t, s[1].omega / s[0].omega 
0, -0.43998975927049333 
0.009999999999999995, -0.43903278794545136 
0.019999999999999934, -0.43821120610914444 
0.029999999999999874, -0.4375100943249235 
0.04000000000000012, -0.4369001688280288 
0.050000000000000405, -0.4363498621732823 
0.06000000000000069, -0.43583368156026364 
0.07000000000000098, -0.4353361104025394 
0.08000000000000126, -0.4348523867352145 
0.09000000000000155, -0.4343884417505633 
0.10000000000000184, -0.43396214718971066 
0.11000000000000212, -0.4336075662614203 
0.12000000000000241, -0.433383833440861 
0.130000000000002, -0.4333907604375309 
0.1400000000000009, -0.43379378472087843 
0.1499999999999998, -0.43485965590105674 
0.1599999999999987, -0.43699591976872953 
0.1699999999999976, -0.4407586390692323 
0.1799999999999965, -0.446725745358924 
0.1899999999999954, -0.4550616398207966 
0.1999999999999943, -0.464780854671172 
0.2099999999999932, -0.4735166727898233 
0.2199999999999921, -0.47895393931447316 
0.229999999999991, -0.48078444190283304 
0.2399999999999899, -0.4804906758082472 
0.2499999999999888, -0.4796216023037464 
0.2599999999999877, -0.47893592450380984 
0.2699999999999866, -0.47858754271915194 
0.2799999999999855, -0.4784953042452339 
0.2899999999999844, -0.4785436559483888 
0.2999999999999833, -0.47864508602193523 
0.3099999999999822, -0.47874510686417493 
0.3199999999999811, -0.47881239773949735 
0.32999999999998, -0.47882883434085804 
0.3399999999999789, -0.478782826752184 
0.3499999999999778, -0.47866616321809047 
0.35999999999997667, -0.4784740589462208 
0.36999999999997557, -0.47820794607746997 
0.37999999999997447, -0.4778796688332115 
0.38999999999997337, -0.47751421979701975 
0.39999999999997227, -0.477147509819236 
0.40999999999997117, -0.47681781317041133 
0.41999999999997006, -0.47655376879148015 
0.42999999999996896, -0.47636452315571837 
0.43999999999996786, -0.47623661347218454 
0.44999999999996676, -0.47613893066357127 
0.45999999999996566, -0.47603347806076945 
0.46999999999996456, -0.47588685451497137 
0.47999999999996346, -0.47567733746472235 
0.48999999999996235, -0.4753957632757298 
0.49999999999996125, -0.4750422883439046 
0.5099999999999602, -0.474622487106439 
0.519999999999959, -0.4741452335779348 
0.529999999999958, -0.4736233999627545 
0.5399999999999568, -0.4730777408281431 
0.5499999999999557, -0.47254415956726226 
0.5599999999999546, -0.47208356321354056 
0.5699999999999535, -0.47178870731261674 
0.5799999999999524, -0.47176736290807736 
0.5899999999999513, -0.4720479348760171 
0.5999999999999502, -0.4723229474881638 
0.6099999999999491, -0.4715631351772117 
0.619999999999948, -0.46803949545049417 
0.6299999999999469, -0.46058876787256997 
0.6399999999999458, -0.4502464385120441 
0.6499999999999447, -0.4396948420803529 
0.6599999999999436, -0.4310594505488119 
0.6699999999999425, -0.42494682381850424 
0.6799999999999414, -0.4209895194669378 
0.6899999999999403, -0.41856374363865834 
0.6999999999999392, -0.41713157791800687 
0.7099999999999381, -0.4163147362763562 
0.719999999999937, -0.41586976052344554 
0.7299999999999359, -0.41564652108442895 
0.7399999999999348, -0.41555462442530844 
0.7499999999999337, -0.4155408897485843 
0.7599999999999326, -0.4155756233260707 
0.7699999999999315, -0.4156450479583179 
0.7799999999999304, -0.4157478770478805 
0.7899999999999293, -0.41589439480679874 
0.7999999999999282, -0.416106250289978 
0.8099999999999271, -0.4164147739442625 
0.819999999999926, -0.4168556369830866 
0.8299999999999249, -0.41745863256190574 
0.8399999999999238, -0.41823334420092245 
0.8499999999999227, -0.41915462161001243 
0.8599999999999216, -0.4201558561559759 
0.8699999999999205, -0.42113915946850355 
0.8799999999999194, -0.42200303187671073 
0.8899999999999183, -0.4226729566866732 
0.8999999999999172, -0.42311590572905533 
0.9099999999999161, -0.4233335313853169 
0.919999999999915, -0.42334412743268574 
0.9299999999999139, -0.42316513526638994 
0.9399999999999128, -0.42280061960831417 
0.9499999999999117, -0.4222317936891965 
0.9599999999999106, -0.42140619857480444 
0.9699999999999095, -0.4202207554560444 
0.9799999999999084, -0.41849485145462034 
0.9899999999999073, -0.41593565610378824 
0.9999999999999062, -0.4121200737201324 
1.0099999999999052, -0.4065661162626477 
1.019999999999904, -0.39899432539166413 
1.029999999999903, -0.38972115844390537 
1.039999999999902, -0.3797773367358095 
1.0499999999999008, -0.37043242261600884 
1.0599999999998997, -0.3625476602181542 
1.0699999999998986, -0.3563672881108052 
1.0799999999998975, -0.3517228055527494 
1.0899999999998964, -0.34829928760182083 
1.0999999999998953, -0.34579074602846405 
1.1099999999998942, -0.34395463844737184 
1.119999999999893, -0.3426166708765336 
1.129999999999892, -0.34165949373155297 
1.1399999999998909, -0.3410098525105439 
1.1499999999998898, -0.3406289284860736 
1.1599999999998887, -0.34050687383069395 
1.1699999999998876, -0.3406615646839807 
1.1799999999998865, -0.3411416630283575 
1.1899999999998854, -0.34203445871937005 
1.1999999999998843, -0.34347919188800813 
1.2099999999998832, -0.345685820885557 
1.219999999999882, -0.34895540798341007 
1.229999999999881, -0.353686660442744 
1.2399999999998799, -0.36032676230178706 
1.2499999999998788, -0.3691894232632662 
1.2599999999998777, -0.3800896389755399 
1.2699999999998766, -0.3919868347286065 
1.2799999999998755, -0.4031725147628518 
1.2899999999998744, -0.41218204847374 
1.2999999999998733, -0.4185528432703472 
1.3099999999998722, -0.42268093175473087 
1.319999999999871, -0.42523556402845675 
1.32999999999987, -0.4267831317429188 
1.3399999999998689, -0.42770107842744576 
1.3499999999998678, -0.42821572692289445 
1.3599999999998666, -0.42845565140297837 
1.3699999999998655, -0.42848970753020205 
1.3799999999998644, -0.42834961816994693 
1.3899999999998633, -0.4280431521732063 
1.3999999999998622, -0.4275635122937268 
1.4099999999998611, -0.42689935016484465 
1.41999999999986, -0.4260479162104871 
1.429999999999859, -0.425029679696656 
1.4399999999998578, -0.42389698987481267 
1.4499999999998567, -0.42272794433432725 
1.4599999999998556, -0.4216052610235477 
1.4699999999998545, -0.42059207806259097 
1.4799999999998534, -0.4197182736952218 
1.4899999999998523, -0.4189812550741755 
1.4999999999998512, -0.41835626862826825 
1.5099999999998501, -0.4178094043084468 
1.519999999999849, -0.41730849352205707 
1.529999999999848, -0.4168296472433535 
1.5399999999998468, -0.41635951985508185 
1.5499999999998457, -0.41589508886453325 
1.5599999999998446, -0.4154432626775474 
1.5699999999998435, -0.41502224456575193 
1.5799999999998424, -0.41466612410397463 
1.5899999999998413, -0.4144341568145589 
1.5999999999998402, -0.41442646653607057 
1.6099999999998391, -0.4148073207932141 
1.619999999999838, -0.4158321671144904 
1.629999999999837, -0.4178559985855694 
1.6399999999998358, -0.42125174217171457 
1.6499999999998347, -0.4260943354729642 
1.6599999999998336, -0.43153644302373584 
1.6699999999998325, -0.4354319376893563 
1.6799999999998314, -0.4355026938316369 
1.6899999999998303, -0.4316040711664849 
1.6999999999998292, -0.4258832380282917 
1.709999999999828, -0.42057483425265163 
1.719999999999827, -0.4166515401938117 
1.729999999999826, -0.41410402299793453 
1.7399999999998248, -0.4125769524820706 
1.7499999999998237, -0.4117137157119613 
1.7599999999998226, -0.4112531454080835 
1.7699999999998215, -0.4110260442319042 
1.7799999999998204, -0.4109289693075532 
1.7899999999998193, -0.41090066206863163 
1.7999999999998182, -0.410905913051603 
1.809999999999817, -0.4109259388511547 
1.819999999999816, -0.41095354905704395 
1.8299999999998149, -0.4109916264402094 
1.8399999999998138, -0.4110534638770729 
1.8499999999998127, -0.4111630743590263 
1.8599999999998116, -0.41135318059551673 
1.8699999999998105, -0.4116590052202378 
1.8799999999998094, -0.4121075420636463 
1.8899999999998083, -0.4127042311139696 
1.8999999999998072, -0.4134215774526152 
1.909999999999806, -0.4141967446818614 
1.919999999999805, -0.41494410482297245 
1.9299999999998039, -0.4155800595671564 
1.9399999999998028, -0.41604645383623867 
1.9499999999998017, -0.4163189389337316 
1.9599999999998006, -0.41639903971013953 
1.9699999999997995, -0.4162989038638332 
1.9799999999997984, -0.41602713774720873 
1.9899999999997973, -0.4155780772451593 
1.9999999999997962, -0.4149221836487774 
2.0099999999998173, -0.4139932447683862 
2.0199999999998384, -0.41266725830345913 
2.0299999999998595, -0.4107284691450099 
2.0399999999998806, -0.40782577630188604 
2.0499999999999017, -0.403453228294791 
2.059999999999923, -0.3970535512498485 
2.069999999999944, -0.3883676718593122 
2.079999999999965, -0.3779050566873144 
2.089999999999986, -0.366975995983574 
2.100000000000007, -0.35700957788102733 
2.1100000000000283, -0.3488362149539962 
2.1200000000000494, -0.34258072048002636 
2.1300000000000705, -0.33796786359850983 
2.1400000000000916, -0.3346181894365091 
2.1500000000001127, -0.33219428761116554 
2.160000000000134, -0.33044081519578417 
2.170000000000155, -0.32917962400475637 
2.180000000000176, -0.3282934670272002 
2.190000000000197, -0.32771095621068264 
2.2000000000002182, -0.32739615648677656 
2.2100000000002393, -0.3273431285084101 
2.2200000000002604, -0.32757516978046824 
2.2300000000002815, -0.3281488035986217 
2.2400000000003026, -0.32916305744156116 
2.2500000000003237, -0.33077476572079656 
2.260000000000345, -0.3332194840319119 
2.270000000000366, -0.3368323465649762 
2.280000000000387, -0.3420477594103273 
2.290000000000408, -0.34932403182796923 
2.3000000000004293, -0.35890479925636765 
2.3100000000004504, -0.3703980683841429 
2.3200000000004715, -0.38248423236618007 
2.3300000000004926, -0.3933445884871066 
2.3400000000005137, -0.40170950936146055 
2.3500000000005348, -0.407416103191874 
2.360000000000556, -0.41102819313593975 
2.370000000000577, -0.4132353114773374 
2.380000000000598, -0.41456317339296056 
2.390000000000619, -0.4153445672134988 
2.4000000000006403, -0.41577361168566984 
2.4100000000006614, -0.41595862884708323 
2.4200000000006825, -0.4159564576142153 
2.4300000000007036, -0.4157922227142987 
2.4400000000007247, -0.4154711649816699 
2.450000000000746, -0.41498784885540624 
2.460000000000767, -0.4143364819057707 
2.470000000000788, -0.41352357466345036 
2.480000000000809, -0.41257971507404967 
2.49000000000083, -0.41156293980537606 
2.5000000000008513, -0.4105479281941382 
2.5100000000008724, -0.4096048579729386 
2.5200000000008935, -0.4087800138416271 
2.5300000000009146, -0.4080877348981688 
2.5400000000009357, -0.4075143206090349 
2.550000000000957, -0.40702883924989824 
2.560000000000978, -0.406595320630451 
2.570000000000999, -0.40618234793756275 
2.58000000000102, -0.40576808598854425 
2.5900000000010412, -0.40534110384317545 
2.6000000000010624, -0.40489902180523973 
2.6100000000010835, -0.4044472826561861 
2.6200000000011046, -0.4039996984921396 
2.6300000000011257, -0.4035817787141589 
2.6400000000011468, -0.4032375178419382 
2.650000000001168, -0.4030396693327539 
2.660000000001189, -0.40310037551847533 
2.67000000000121, -0.40356775672894507 
2.680000000001231, -0.40456374056693506 
2.6900000000012523, -0.4059662194320941 
2.7000000000012734, -0.4069539232587075 
2.7100000000012945, -0.40563760776279334 
2.7200000000013156, -0.39989796793798493 
2.7300000000013367, -0.389672103309076 
2.740000000001358, -0.3776782017827661 
2.750000000001379, -0.36699384340856633 
2.7600000000014, -0.3589995525174047 
2.770000000001421, -0.353588941805535 
2.780000000001442, -0.350114834843973 
2.7900000000014633, -0.3479428189947358 
2.8000000000014844, -0.3466071479358255 
2.8100000000015055, -0.345801871758741 
2.8200000000015266, -0.34533580322928353 
2.8300000000015477, -0.345092876454482 
2.840000000001569, -0.34500505124040554 
2.85000000000159, -0.34503570223065577 
2.860000000001611, -0.3451703434348413 
2.870000000001632, -0.3454122541256407 
2.8800000000016532, -0.3457812241953017 
2.8900000000016743, -0.3463137790769241 
2.9000000000016954, -0.34706285176871676 
2.9100000000017165, -0.3480940426545288 
2.9200000000017377, -0.3494745033440429 
2.9300000000017588, -0.35124994401355963 
2.94000000000178, -0.3534087008138226 
2.950000000001801, -0.35584496133535465 
2.960000000001822, -0.35835281406218195 
2.970000000001843, -0.3606801808903544 
2.9800000000018643, -0.3626221058684758 
2.9900000000018854, -0.36408507210376484 
3.0000000000019065, -0.3650816740742809 
3.0100000000019276, -0.3656814110723891 
3.0200000000019487, -0.36596283734788204 
3.03000000000197, -0.36598660193696875 
3.040000000001991, -0.36578547965459995 
3.050000000002012, -0.36536193405983036 
3.060000000002033, -0.36468724667942315 
3.070000000002054, -0.36370133188769693 
3.0800000000020753, -0.36231775908200187 
3.0900000000020964, -0.36044405337840824 
3.1000000000021175, -0.3580273781240354 
3.1100000000021386, -0.35511718519429025 
3.1200000000021597, -0.3519001560792877 
3.130000000002181, -0.3486564335128755 
3.140000000002202, -0.3456525783635308 
3.150000000002223, -0.34305338000511654 
3.160000000002244, -0.34090565716546184 
3.1700000000022652, -0.33917439255706855 
3.1800000000022863, -0.3377880320031534 
3.1900000000023074, -0.3366702149722253 
3.2000000000023285, -0.33575597015146175 
3.2100000000023496, -0.33499766231251926 
3.2200000000023707, -0.3343658679199434 
3.230000000002392, -0.333848764997396 
3.240000000002413, -0.33345239798167353 
3.250000000002434, -0.33320353097216304 
3.260000000002455, -0.3331567383851354 
3.2700000000024763, -0.3334078871452589 
3.2800000000024974, -0.33411699683911894 
3.2900000000025185, -0.33554348632343567 
3.3000000000025396, -0.3380918287139379 
3.3100000000025607, -0.34234292214590095 
3.3200000000025818, -0.34897877894110496 
3.330000000002603, -0.3583865682935476 
3.340000000002624, -0.36976600305859963 
3.350000000002645, -0.38041165729687587 
3.360000000002666, -0.38701696233787797 
3.3700000000026873, -0.38862038562034934 
3.3800000000027084, -0.38708088174874306 
3.3900000000027295, -0.38469806345306606 
3.4000000000027506, -0.38268422708762506 
3.4100000000027717, -0.3813191407242073 
3.420000000002793, -0.3804976735033776 
3.430000000002814, -0.38004360027065787 
3.440000000002835, -0.37981332049212846 
3.450000000002856, -0.3797103130975096 
3.460000000002877, -0.3796749761864718 
3.4700000000028983, -0.379672408998679 
3.4800000000029194, -0.37968366413483173 
3.4900000000029405, -0.37970086503762923 
3.5000000000029616, -0.37972545106154365 
3.5100000000029827, -0.37976854331913545 
3.520000000003004, -0.37985199896172317 
3.530000000003025, -0.3800081386613303 
3.540000000003046, -0.3802760044473999 
3.550000000003067, -0.3806928743317003 
3.5600000000030882, -0.3812814397083416 
3.5700000000031094, -0.3820352729015254 
3.5800000000031305, -0.38290842448848206 
3.5900000000031516, -0.3838178148353887 
3.6000000000031727, -0.384663509170601 
3.6100000000031938, -0.38535901973790077 
3.620000000003215, -0.38585330910886395 
3.630000000003236, -0.3861326565016477 
3.640000000003257, -0.3862067791410186 
3.650000000003278, -0.38609106065885007 
3.6600000000032993, -0.3857922443443941 
3.6700000000033204, -0.38529788639574586 
3.6800000000033415, -0.38456611533727414 
3.6900000000033626, -0.38351151643039594 
3.7000000000033837, -0.3819842687486711 
3.710000000003405, -0.3797455333729779 
3.720000000003426, -0.37646021465000457 
3.730000000003447, -0.3717629559177752 
3.740000000003468, -0.36546491704494466 
3.750000000003489, -0.35784250592880756 
3.7600000000035103, -0.3497075175118384 
3.7700000000035314, -0.3420447547194633 
3.7800000000035525, -0.33552987175877586 
3.7900000000035736, -0.3303672238584324 
3.8000000000035947, -0.32643669907569794 
3.810000000003616, -0.3234958098869614 
3.820000000003637, -0.3213029931405003 
3.830000000003658, -0.31966406931221025 
3.840000000003679, -0.3184388571959171 
3.8500000000037002, -0.3175339511561376 
3.8600000000037213, -0.316893635309397 
3.8700000000037424, -0.3164932790734773 
3.8800000000037635, -0.31633656638967256 
3.8900000000037847, -0.31645717128427947 
3.9000000000038058, -0.3169257543503413 
3.910000000003827, -0.3178638735545304 
3.920000000003848, -0.3194671354816477 
3.930000000003869, -0.3220394728704638 
3.94000000000389, -0.3260349900372611 
3.9500000000039113, -0.3320830422144168 
3.9600000000039324, -0.3409175587635397 
3.9700000000039535, -0.35304773173757725 
3.9800000000039746, -0.36805832273947026 
3.9900000000039957, -0.3840009322647978 
4.000000000004016, -0.39804246111543057 
4.010000000003993, -0.4083292744033325 
4.02000000000397, -0.4148861154655793 
4.030000000003946, -0.41877337212980237 
4.040000000003923, -0.4210476977861698 
4.0500000000039, -0.42240392277828914 
4.0600000000038765, -0.4232294072931901 
4.070000000003853, -0.4237288688666342 
4.08000000000383, -0.424010318271178 
4.090000000003807, -0.424130885376654 
4.100000000003783, -0.42411942635784533 
4.11000000000376, -0.42398803736632973 
4.120000000003737, -0.42373924354744685 
4.130000000003713, -0.4233726116697866 
4.14000000000369, -0.42289252969513164 
4.150000000003667, -0.4223164268681489 
4.1600000000036434, -0.42167974461926516 
4.17000000000362, -0.42103298450048976 
4.180000000003597, -0.4204298818702964 
4.1900000000035735, -0.41991200226182424 
4.20000000000355, -0.419497509899588 
4.210000000003527, -0.41917853104712155 
4.220000000003504, -0.4189267913742453 
4.23000000000348, -0.4187043508415895 
4.240000000003457, -0.4184749507066125 
4.250000000003434, -0.41821169646809536 
4.26000000000341, -0.41789919187562186 
4.270000000003387, -0.41753140837867997 
4.280000000003364, -0.41710809177372354 
4.2900000000033405, -0.41663192802538507 
4.300000000003317, -0.41610735234814633 
4.310000000003294, -0.41554079379062603 
4.320000000003271, -0.414941019339388 
4.330000000003247, -0.4143154563734024 
4.340000000003224, -0.4136503879186907 
4.350000000003201, -0.41284408124195293 
4.360000000003177, -0.41153485300197756 
4.370000000003154, -0.40879553148831543 
4.380000000003131, -0.4029635778243513 
4.390000000003107, -0.3924383678555291 
4.400000000003084, -0.37762519665840566 
4.410000000003061, -0.3615449550069789 
4.4200000000030375, -0.347504002027486 
4.430000000003014, -0.3369609659777756 
4.440000000002991, -0.3297118738036356 
4.450000000002968, -0.324939953070701 
4.460000000002944, -0.32185452676235593 
4.470000000002921, -0.31987357506123115 
4.480000000002898, -0.31861188194347323 
4.490000000002874, -0.3178262016792476 
4.500000000002851, -0.31736708797477226 
4.510000000002828, -0.31714592835852484 
4.520000000002804, -0.3171146696856273 
4.530000000002781, -0.3172544521149558 
4.540000000002758, -0.317570325314546 
4.5500000000027345, -0.3180901988937955 
4.560000000002711, -0.31886662532902943 
4.570000000002688, -0.31997969900292855 
4.580000000002665, -0.32153789919508374 
4.590000000002641, -0.3236704388850581 
4.600000000002618, -0.32649957802088175 
4.610000000002595, -0.330079243771147 
4.620000000002571, -0.33430343793792383 
4.630000000002548, -0.3388404762172046 
4.640000000002525, -0.3431930282229391 
4.6500000000025015, -0.3469018977213347 
4.660000000002478, -0.34973671990287497 
4.670000000002455, -0.35171677338296914 
4.6800000000024315, -0.3529991338306818 
4.690000000002408, -0.353763660279412 
4.700000000002385, -0.35415493131109205 
4.710000000002362, -0.354269145679921 
4.720000000002338, -0.35415961924896755 
4.730000000002315, -0.35384567217068963 
4.740000000002292, -0.3533204555648515 
4.750000000002268, -0.352559095801266 
4.760000000002245, -0.35153125239171173 
4.770000000002222, -0.3502216980805112 
4.7800000000021985, -0.34865607178569186 
4.790000000002175, -0.34691728370775216 
4.800000000002152, -0.34513413047229424 
4.810000000002129, -0.3434418113644236 
4.820000000002105, -0.34193958938521485 
4.830000000002082, -0.3406713693102146 
4.840000000002059, -0.33963201963277295 
4.850000000002035, -0.33878598798271475 
4.860000000002012, -0.33808588185579014 
