t, s[1].omega / s[0].omega 
0, -0.9800460064177097 
0.009999999999999995, -0.9842779591377164 
0.019999999999999934, -0.9876604469396579 
0.029999999999999874, -0.9901351798741885 
0.04000000000000012, -0.9917801741425771 
0.050000000000000405, -0.9927493424938149 
0.06000000000000069, -0.9932088985470797 
0.07000000000000098, -0.9932987293980652 
0.08000000000000126, -0.9931221679432746 
0.09000000000000155, -0.9927550581858124 
0.10000000000000184, -0.9922666360640461 
0.11000000000000212, -0.9917498607852796 
0.12000000000000241, -0.9913582743523607 
0.130000000000002, -0.9913352190403135 
0.1400000000000009, -0.9920042981882418 
0.1499999999999998, -0.9936921712306892 
0.1599999999999987, -0.996600954146275 
0.1699999999999976, -1.0007053059304407 
0.1799999999999965, -1.0057416969861284 
0.1899999999999954, -1.011283249683268 
0.1999999999999943, -1.0168436277929085 
0.2099999999999932, -1.0219699529155266 
0.2199999999999921, -1.0263178564248048 
0.229999999999991, -1.0297040879187616 
0.2399999999999899, -1.032117369394679 
0.2499999999999888, -1.0336770528905623 
0.2599999999999877, -1.0345621103649936 
0.2699999999999866, -1.0349488688730462 
0.2799999999999855, -1.0349789709954575 
0.2899999999999844, -1.0347556170387882 
0.2999999999999833, -1.0343577229504575 
0.3099999999999822, -1.0338650622037657 
0.3199999999999811, -1.0333908722919993 
0.32999999999998, -1.0331130773012278 
0.3399999999999789, -1.033280672479409 
0.3499999999999778, -1.034165522016888 
0.35999999999997667, -1.0359613940613668 
0.36999999999997557, -1.0386899997006875 
0.37999999999997447, -1.042183637330774 
0.38999999999997337, -1.046147719943465 
0.39999999999997227, -1.0502467931705106 
0.40999999999997117, -1.0541674649597907 
0.41999999999997006, -1.0576535052835998 
0.42999999999996896, -1.0605283674723567 
0.43999999999996786, -1.0627110196508966 
0.44999999999996676, -1.0642156660786892 
0.45999999999996566, -1.0651276195418693 
0.46999999999996456, -1.065564572296115 
0.47999999999996346, -1.0656426613172747 
0.48999999999996235, -1.065460010319327 
0.49999999999996125, -1.0650985996079878 
0.5099999999999602, -1.0646394222045967 
0.519999999999959, -1.0641840357951449 
0.529999999999958, -1.063871033864257 
0.5399999999999568, -1.0638692901748605 
0.5499999999999557, -1.064335429087826 
0.5599999999999546, -1.065352253421116 
0.5699999999999535, -1.0668921227399353 
0.5799999999999524, -1.0688323357957072 
0.5899999999999513, -1.0710039520480668 
0.5999999999999502, -1.0732372459180979 
0.6099999999999491, -1.0753853732772582 
0.619999999999948, -1.0773300477959356 
0.6299999999999469, -1.0789808972625443 
0.6399999999999458, -1.080276988938186 
0.6499999999999447, -1.0811913727284785 
0.6599999999999436, -1.0817330339740698 
0.6699999999999425, -1.0819409427334816 
0.6799999999999414, -1.0818717795076767 
0.6899999999999403, -1.0815887351437397 
0.6999999999999392, -1.081157854159852 
0.7099999999999381, -1.0806527739279692 
0.719999999999937, -1.080162388321968 
0.7299999999999359, -1.0797911075386841 
0.7399999999999348, -1.079642426415088 
0.7499999999999337, -1.0797887619375586 
0.7599999999999326, -1.0802463143262253 
0.7699999999999315, -1.0809728582169276 
0.7799999999999304, -1.0818871308183042 
0.7899999999999293, -1.082894440843073 
0.7999999999999282, -1.0839060601234665 
0.8099999999999271, -1.0848489033854978 
0.819999999999926, -1.0856673303066633 
0.8299999999999249, -1.0863206421215463 
0.8399999999999238, -1.0867799220504688 
0.8499999999999227, -1.0870268199334985 
0.8599999999999216, -1.0870547877500203 
0.8699999999999205, -1.0868710474768621 
0.8799999999999194, -1.0864971739928218 
0.8899999999999183, -1.0859682021241812 
0.8999999999999172, -1.0853320835081717 
0.9099999999999161, -1.0846502403325704 
0.919999999999915, -1.0839964073953698 
0.9299999999999139, -1.0834489470432718 
0.9399999999999128, -1.0830753852366795 
0.9499999999999117, -1.0829152360292666 
0.9599999999999106, -1.082970049962229 
0.9699999999999095, -1.083204673608567 
0.9799999999999084, -1.0835576595395253 
0.9899999999999073, -1.083956225645547 
0.9999999999999062, -1.0843303578178554 
1.0099999999999052, -1.0846217313983133 
1.019999999999904, -1.084786756652657 
1.029999999999903, -1.0847960492347384 
1.039999999999902, -1.0846326159889792 
1.0499999999999008, -1.0842897122979536 
1.0599999999998997, -1.08376895253822 
1.0699999999998986, -1.0830795987778612 
1.0799999999998975, -1.0822396201300364 
1.0899999999998964, -1.0812781294950093 
1.0999999999998953, -1.080238071968005 
1.1099999999998942, -1.0791774956906992 
1.119999999999893, -1.078167095223478 
1.129999999999892, -1.0772820196015307 
1.1399999999998909, -1.0765880863824242 
1.1499999999998898, -1.0761254159546156 
1.1599999999998887, -1.0758950288050724 
1.1699999999998876, -1.0758556044471805 
1.1799999999998865, -1.0759344990535638 
1.1899999999998854, -1.0760476560266106 
1.1999999999998843, -1.076116658360722 
1.2099999999998832, -1.0760759468903944 
1.219999999999882, -1.0758726074998883 
1.229999999999881, -1.0754651266645958 
1.2399999999998799, -1.0748249048598286 
1.2499999999998788, -1.0739395578341069 
1.2599999999998777, -1.07281458920196 
1.2699999999998766, -1.0714717759208814 
1.2799999999998755, -1.0699462490562839 
1.2899999999998744, -1.0682855132192552 
1.2999999999998733, -1.066551429900318 
1.3099999999998722, -1.0648229661679798 
1.319999999999871, -1.0631954708070364 
1.32999999999987, -1.0617718208424471 
1.3399999999998689, -1.0606425465027731 
1.3499999999998678, -1.059858163348227 
1.3599999999998666, -1.0594071174080826 
1.3699999999998655, -1.0592164405321969 
1.3799999999998644, -1.0591777204891641 
1.3899999999998633, -1.0591800770562902 
1.3999999999998622, -1.0591294875885615 
1.4099999999998611, -1.05894981851135 
1.41999999999986, -1.0585744765968124 
1.429999999999859, -1.0579396086095552 
1.4399999999998578, -1.0569854984189928 
1.4499999999998567, -1.0556669395655076 
1.4599999999998556, -1.0539671420840857 
1.4699999999998545, -1.0519065034826591 
1.4799999999998534, -1.049541620636709 
1.4899999999998523, -1.0469582881046489 
1.4999999999998512, -1.044265800079088 
1.5099999999998501, -1.0415952133511879 
1.519999999999849, -1.039096561493089 
1.529999999999848, -1.036925485892683 
1.5399999999998468, -1.03521252755749 
1.5499999999998457, -1.0340215947133742 
1.5599999999998446, -1.0333219884009748 
1.5699999999998435, -1.0329989074101698 
1.5799999999998424, -1.0328987370306968 
1.5899999999998413, -1.03287679473378 
1.5999999999998402, -1.0328201682360123 
1.6099999999998391, -1.0326441636491395 
1.619999999999838, -1.032276410683325 
1.629999999999837, -1.0316420333091927 
1.6399999999998358, -1.0306580197488928 
1.6499999999998347, -1.0292411758569673 
1.6599999999998336, -1.027329215063497 
1.6699999999998325, -1.024906241890102 
1.6799999999998314, -1.022018236947082 
1.6899999999998303, -1.018770430316888 
1.6999999999998292, -1.0153125760474 
1.709999999999828, -1.0118240559244263 
1.719999999999827, -1.0085026735321707 
1.729999999999826, -1.0055493783622034 
1.7399999999998248, -1.0031382646316216 
1.7499999999998237, -1.0013726148511282 
1.7599999999998226, -1.0002483342454627 
1.7699999999998215, -0.9996544958845692 
1.7799999999998204, -0.9994175801864044 
1.7899999999998193, -0.9993604928328672 
1.7999999999998182, -0.999340635559032 
1.809999999999817, -0.9992558897082275 
1.819999999999816, -0.9990302191054414 
1.8299999999998149, -0.9985946694459443 
1.8399999999998138, -0.9978738803518465 
1.8499999999998127, -0.9967837489434542 
1.8599999999998116, -0.9952435181625632 
1.8699999999998105, -0.9932004315487601 
1.8799999999998094, -0.9906558275957631 
1.8899999999998083, -0.9876767918425973 
1.8999999999998072, -0.9843868401820135 
1.909999999999806, -0.9809450587883928 
1.919999999999805, -0.9775276431113396 
1.9299999999998039, -0.9743158467176484 
1.9399999999998028, -0.9714831006424957 
1.9499999999998017, -0.9691723259033594 
1.9599999999998006, -0.9674639689000838 
1.9699999999997995, -0.9663500248204505 
1.9799999999997984, -0.9657349109794001 
1.9899999999997973, -0.9654686911950969 
1.9999999999997962, -0.9653934760814489 
2.0099999999998173, -0.9653765802481882 
2.0199999999998384, -0.9653193971643891 
2.0299999999998595, -0.9651486502607568 
2.0399999999998806, -0.9648023110630637 
2.0499999999999017, -0.9642194718879168 
2.059999999999923, -0.9633393810868671 
2.069999999999944, -0.9621112877174145 
2.079999999999965, -0.9605113893152131 
2.089999999999986, -0.9585569665760112 
2.100000000000007, -0.9563076237705948 
2.1100000000000283, -0.9538530413388235 
2.1200000000000494, -0.9512968451593726 
2.1300000000000705, -0.9487461689461136 
2.1400000000000916, -0.9463082776362084 
2.1500000000001127, -0.9440887457667804 
2.160000000000134, -0.9421846786156521 
2.170000000000155, -0.9406702433423947 
2.180000000000176, -0.9395782545080312 
2.190000000000197, -0.9388876508947452 
2.2000000000002182, -0.9385267782171722 
2.2100000000002393, -0.9383932751884076 
2.2200000000002604, -0.9383798677724176 
2.2300000000002815, -0.9383928668302712 
2.2400000000003026, -0.9383579745619419 
2.2500000000003237, -0.9382170302161675 
2.260000000000345, -0.9379227877592495 
2.270000000000366, -0.9374372540751972 
2.280000000000387, -0.9367352808049898 
2.290000000000408, -0.9358106618613935 
2.3000000000004293, -0.9346791904565231 
2.3100000000004504, -0.9333749904185096 
2.3200000000004715, -0.9319421697744728 
2.3300000000004926, -0.9304275871642048 
2.3400000000005137, -0.9288785731267335 
2.3500000000005348, -0.9273448166330134 
2.360000000000556, -0.9258808700298129 
2.370000000000577, -0.9245458352805993 
2.380000000000598, -0.9233983997696005 
2.390000000000619, -0.9224874817792641 
2.4000000000006403, -0.9218410087968583 
2.4100000000006614, -0.921457219700194 
2.4200000000006825, -0.9213030368271561 
2.4300000000007036, -0.9213212359073714 
2.4400000000007247, -0.9214433695084951 
2.450000000000746, -0.9216024596878596 
2.460000000000767, -0.9217409974608002 
2.470000000000788, -0.9218138965253898 
2.480000000000809, -0.9217888274601542 
2.49000000000083, -0.9216460716205616 
2.5000000000008513, -0.9213779541867861 
2.5100000000008724, -0.9209866281303345 
2.5200000000008935, -0.9204800662535794 
2.5300000000009146, -0.919868313967862 
2.5400000000009357, -0.9191624770930311 
2.550000000000957, -0.9183768678778478 
2.560000000000978, -0.9175325728124852 
2.570000000000999, -0.9166604145711832 
2.58000000000102, -0.9158021306511859 
2.5900000000010412, -0.9150089664939196 
2.6000000000010624, -0.9143367889956828 
2.6100000000010835, -0.9138375717581143 
2.6200000000011046, -0.9135490880171064 
2.6300000000011257, -0.913486411391785 
2.6400000000011468, -0.9136386316736816 
2.650000000001168, -0.9139720185206931 
2.660000000001189, -0.9144381618674593 
2.67000000000121, -0.9149838410666478 
2.680000000001231, -0.9155592923094703 
2.6900000000012523, -0.9161229274630186 
2.7000000000012734, -0.9166422452650311 
2.7100000000012945, -0.9170917473875638 
2.7200000000013156, -0.9174493791582561 
2.7300000000013367, -0.9176938162278295 
2.740000000001358, -0.917804991288485 
2.750000000001379, -0.9177683184299905 
2.7600000000014, -0.917580061755312 
2.770000000001421, -0.9172503969929788 
2.780000000001442, -0.9168032303014803 
2.7900000000014633, -0.9162749037344466 
2.8000000000014844, -0.9157141974448235 
2.8100000000015055, -0.9151835137135651 
2.8200000000015266, -0.9147581501106827 
2.8300000000015477, -0.9145196662633831 
2.840000000001569, -0.9145421469655315 
2.85000000000159, -0.9148756388665893 
2.860000000001611, -0.9155346083499888 
2.870000000001632, -0.9164969081646666 
2.8800000000016532, -0.917712323734863 
2.8900000000016743, -0.9191149960962992 
2.9000000000016954, -0.9206337355968705 
2.9100000000017165, -0.9221969886869632 
2.9200000000017377, -0.9237327391919802 
2.9300000000017588, -0.9251668078379123 
2.94000000000178, -0.9264247980360331 
2.950000000001801, -0.9274412135038542 
2.960000000001822, -0.9281731508012152 
2.970000000001843, -0.9286099890769488 
2.9800000000018643, -0.9287720604397123 
2.9900000000018854, -0.9287000442530562 
3.0000000000019065, -0.9284434325500275 
3.0100000000019276, -0.9280553608039275 
3.0200000000019487, -0.9275960639205248 
3.03000000000197, -0.9271428408544929 
3.040000000001991, -0.9268009564877371 
3.050000000002012, -0.9267065714151895 
3.060000000002033, -0.9270124134959368 
3.070000000002054, -0.9278547137048869 
3.0800000000020753, -0.9293143245790187 
3.0900000000020964, -0.9313925457547741 
3.1000000000021175, -0.934012413142082 
3.1100000000021386, -0.9370381797023697 
3.1200000000021597, -0.9402974953689768 
3.130000000002181, -0.943597327171586 
3.140000000002202, -0.9467368613504892 
3.150000000002223, -0.949527327346004 
3.160000000002244, -0.9518228273593128 
3.1700000000022652, -0.9535504162049312 
3.1800000000022863, -0.9547188280919242 
3.1900000000023074, -0.9553981303711179 
3.2000000000023285, -0.9556846028498558 
3.2100000000023496, -0.9556716838673452 
3.2200000000023707, -0.955437375217487 
3.230000000002392, -0.9550474195025886 
3.240000000002413, -0.9545702688322171 
3.250000000002434, -0.9541005212924025 
3.260000000002455, -0.9537853182856173 
3.2700000000024763, -0.9538400574291203 
3.2800000000024974, -0.9545316737520521 
3.2900000000025185, -0.9561160459484812 
3.3000000000025396, -0.9587486935923051 
3.3100000000025607, -0.9624176047585467 
3.3200000000025818, -0.9669347101986544 
3.330000000002603, -0.971978700447164 
3.340000000002624, -0.9771573011577898 
3.350000000002645, -0.9820699826952396 
3.360000000002666, -0.9863720285154658 
3.3700000000026873, -0.9898368748725007 
3.3800000000027084, -0.9923925315705826 
3.3900000000027295, -0.9941069470392485 
3.4000000000027506, -0.9951300213118532 
3.4100000000027717, -0.9956289324819407 
3.420000000002793, -0.9957468382221935 
3.430000000002814, -0.9955904074588229 
3.440000000002835, -0.9952375723082909 
3.450000000002856, -0.9947575756751904 
3.460000000002877, -0.994240523251104 
3.4700000000028983, -0.9938337035051072 
3.4800000000029194, -0.993771512271962 
3.4900000000029405, -0.9943689961366647 
3.5000000000029616, -0.9959494508008259 
3.5100000000029827, -0.9987201160608 
3.520000000003004, -1.002668408207041 
3.530000000003025, -1.0075475167130739 
3.540000000003046, -1.0129477890986027 
3.550000000003067, -1.0183979749149736 
3.5600000000030882, -1.0234549722308333 
3.5700000000031094, -1.0277754076992092 
3.5800000000031305, -1.031167392619732 
3.5900000000031516, -1.0336053699618981 
3.6000000000031727, -1.0351952859076785 
3.6100000000031938, -1.0361078397665677 
3.620000000003215, -1.0365163943387947 
3.630000000003236, -1.0365628531825848 
3.640000000003257, -1.0363517668476043 
3.650000000003278, -1.035963043110149 
3.6600000000032993, -1.0354760510371368 
3.6700000000033204, -1.0350012255475627 
3.6800000000033415, -1.0347104905368436 
3.6900000000033626, -1.0348440166641222 
3.7000000000033837, -1.035664661842008 
3.710000000003405, -1.037361377885319 
3.720000000003426, -1.0399585897072152 
3.730000000003447, -1.0432987952888355 
3.740000000003468, -1.0471022528168215 
3.750000000003489, -1.0510495370673472 
3.7600000000035103, -1.0548414765245127 
3.7700000000035314, -1.058231511072494 
3.7800000000035525, -1.0610458791898842 
3.7900000000035736, -1.0631989507456092 
3.8000000000035947, -1.0646954603205947 
3.810000000003616, -1.06561067563307 
3.820000000003637, -1.0660549317088328 
3.830000000003658, -1.066140469954057 
3.840000000003679, -1.0659639942668302 
3.8500000000037002, -1.0656070884847677 
3.8600000000037213, -1.0651500768861681 
3.8700000000037424, -1.064692514877009 
3.8800000000037635, -1.0643690196640618 
3.8900000000037847, -1.064342938918138 
3.9000000000038058, -1.0647658304966643 
3.910000000003827, -1.0657186380544115 
3.920000000003848, -1.0671764617162722 
3.930000000003869, -1.069022909970962 
3.94000000000389, -1.071096651652569 
3.9500000000039113, -1.0732351237305597 
3.9600000000039324, -1.075297521469669 
3.9700000000039535, -1.077170290989461 
3.9800000000039746, -1.0787660900799323 
3.9900000000039957, -1.0800246239327849 
4.000000000004016, -1.0809168505986224 
4.010000000003993, -1.081447632823351 
4.02000000000397, -1.081651325800976 
4.030000000003946, -1.081580875519932 
4.040000000003923, -1.0812970659759618 
4.0500000000039, -1.0808644466705901 
4.0600000000038765, -1.0803552998210058 
4.070000000003853, -1.0798566810067047 
4.08000000000383, -1.0794706403428473 
4.090000000003807, -1.0792985754324282 
4.100000000003783, -1.0794122858141457 
4.11000000000376, -1.079829470767278 
4.120000000003737, -1.080510950497834 
4.130000000003713, -1.0813787832261454 
4.14000000000369, -1.0823408777104806 
4.150000000003667, -1.0833101193985057 
4.1600000000036434, -1.0842143289110404 
4.17000000000362, -1.0849984846089344 
4.180000000003597, -1.0856224738062665 
4.1900000000035735, -1.0860578773121243 
4.20000000000355, -1.0862864358709778 
4.210000000003527, -1.0863009736922755 
4.220000000003504, -1.0861073740577776 
4.23000000000348, -1.0857255174138734 
4.240000000003457, -1.0851887819667936 
4.250000000003434, -1.0845436440035017 
4.26000000000341, -1.0838501671646614 
4.270000000003387, -1.0831808748805511 
4.280000000003364, -1.0826134226417872 
4.2900000000033405, -1.0822156622454986 
4.300000000003317, -1.0820286677413231 
4.310000000003294, -1.0820563342828218 
4.320000000003271, -1.0822657709767953 
4.330000000003247, -1.0825969750002928 
4.340000000003224, -1.082977557870478 
4.350000000003201, -1.0833370818761137 
4.360000000003177, -1.0836163718392844 
4.370000000003154, -1.0837708571737177 
4.380000000003131, -1.0837702305521268 
4.390000000003107, -1.083596795778663 
4.400000000003084, -1.083243433193738 
4.410000000003061, -1.0827116465953373 
4.4200000000030375, -1.0820106131665899 
4.430000000003014, -1.081157998262655 
4.440000000002991, -1.0801823018324868 
4.450000000002968, -1.0791256327041376 
4.460000000002944, -1.0780452135676628 
4.470000000002921, -1.0770113071924199 
4.480000000002898, -1.076099480626485 
4.490000000002874, -1.0753771065142579 
4.500000000002851, -1.0748868397123927 
4.510000000002828, -1.0746325240021772 
4.520000000002804, -1.0745749780756604 
4.530000000002781, -1.0746423348470486 
4.540000000002758, -1.0747500283393194 
4.5500000000027345, -1.0748184834519168 
4.560000000002711, -1.0747809028392514 
4.570000000002688, -1.0745831739910576 
4.580000000002665, -1.074182418498445 
4.590000000002641, -1.0735483616128256 
4.600000000002618, -1.0726668415344673 
4.610000000002595, -1.071541946639903 
4.620000000002571, -1.0701947056316254 
4.630000000002548, -1.068660030213381 
4.640000000002525, -1.0669853097978719 
4.6500000000025015, -1.06523207045942 
4.660000000002478, -1.06347876731599 
4.670000000002455, -1.0618205172832933 
4.6800000000024315, -1.0603609873249114 
4.690000000002408, -1.059193218031266 
4.700000000002385, -1.058371994521045 
4.710000000002362, -1.0578905961961926 
4.720000000002338, -1.0576794566811043 
4.730000000002315, -1.0576309202507292 
4.740000000002292, -1.0576327737049651 
4.750000000002268, -1.0575891104171993 
4.760000000002245, -1.0574225119085672 
4.770000000002222, -1.0570658927311078 
4.7800000000021985, -1.0564551339499395 
4.790000000002175, -1.0555296116326136 
4.800000000002152, -1.0542419657150552 
4.810000000002129, -1.0525721819697529 
4.820000000002105, -1.05053727178232 
4.830000000002082, -1.0481911493167098 
4.840000000002059, -1.0456177191823828 
4.850000000002035, -1.0429246154594936 
4.860000000002012, -1.0402410259592505 
4.870000000001989, -1.0377153162266084 
4.880000000001965, -1.035503147699973 
4.890000000001942, -1.0337386926765288 
4.900000000001919, -1.032493700297691 
4.9100000000018955, -1.03174713233993 
4.920000000001872, -1.0313913376504553 
4.930000000001849, -1.0312747087591188 
