t, s[1].omega / s[0].omega 
0, -0.19982626516925522 
0.009999999999999995, -0.1834330324749404 
0.019999999999999934, -0.17051689754045984 
0.029999999999999874, -0.16148360599183292 
0.04000000000000012, -0.15548373068043406 
0.050000000000000405, -0.15154259461718467 
0.06000000000000069, -0.1489324902453635 
0.07000000000000098, -0.14718186965895969 
0.08000000000000126, -0.14600254736328527 
0.09000000000000155, -0.14522538586812478 
0.10000000000000184, -0.14475873100353892 
0.11000000000000212, -0.1445656123221298 
0.12000000000000241, -0.14465476545844758 
0.130000000000002, -0.14508319135598577 
0.1400000000000009, -0.14597109560634375 
0.1499999999999998, -0.14753323033387192 
0.1599999999999987, -0.15013280261486853 
0.1699999999999976, -0.15435855134159512 
0.1799999999999965, -0.16108663375162952 
0.1899999999999954, -0.17135116811018408 
0.1999999999999943, -0.18558530316260327 
0.2099999999999932, -0.2020027150322155 
0.2199999999999921, -0.21602737234855934 
0.229999999999991, -0.22376901902157317 
0.2399999999999899, -0.2256674160497195 
0.2499999999999888, -0.2246593586605626 
0.2599999999999877, -0.22298286020793526 
0.2699999999999866, -0.2215399317016392 
0.2799999999999855, -0.220506387261239 
0.2899999999999844, -0.2198213084911922 
0.2999999999999833, -0.21938789045113755 
0.3099999999999822, -0.21912945147224955 
0.3199999999999811, -0.21899666240089447 
0.32999999999998, -0.21896328533999246 
0.3399999999999789, -0.21902172597068298 
0.3499999999999778, -0.2191810477831504 
0.35999999999997667, -0.21946766113997448 
0.36999999999997557, -0.21992823498818037 
0.37999999999997447, -0.22063395548916453 
0.38999999999997337, -0.2216843953882492 
0.39999999999997227, -0.22320708669099432 
0.40999999999997117, -0.22534413352936947 
0.41999999999997006, -0.22821070353208178 
0.42999999999996896, -0.23181282184604157 
0.43999999999996786, -0.23594866214898796 
0.44999999999996676, -0.24018763047346242 
0.45999999999996566, -0.24401852813614938 
0.46999999999996456, -0.24708550223341189 
0.47999999999996346, -0.2493015135786953 
0.48999999999996235, -0.2507774821056585 
0.49999999999996125, -0.2516912202981162 
0.5099999999999602, -0.25220261451018844 
0.519999999999959, -0.25242610171602387 
0.529999999999958, -0.2524327541808201 
0.5399999999999568, -0.2522607727436559 
0.5499999999999557, -0.25192630742344435 
0.5599999999999546, -0.2514338533867156 
0.5699999999999535, -0.2507877416403151 
0.5799999999999524, -0.2500050294381237 
0.5899999999999513, -0.24912624349884943 
0.5999999999999502, -0.2482169965713405 
0.6099999999999491, -0.24735609013143534 
0.619999999999948, -0.2466149827630145 
0.6299999999999469, -0.2460399805002627 
0.6399999999999458, -0.24564458311988058 
0.6499999999999447, -0.24541122721044895 
0.6599999999999436, -0.24529861329693153 
0.6699999999999425, -0.24525238960708115 
0.6799999999999414, -0.24521739004065476 
0.6899999999999403, -0.2451478249917553 
0.6999999999999392, -0.24501162778462668 
0.7099999999999381, -0.24478812361073782 
0.719999999999937, -0.24446121164164944 
0.7299999999999359, -0.24401051040776411 
0.7399999999999348, -0.24340094383329064 
0.7499999999999337, -0.24256887623951848 
0.7599999999999326, -0.24140136562145917 
0.7699999999999315, -0.23970637021515925 
0.7799999999999304, -0.23718251805028917 
0.7899999999999293, -0.23343036970837364 
0.7999999999999282, -0.2280964466215148 
0.8099999999999271, -0.2211989616694346 
0.819999999999926, -0.2133980407607503 
0.8299999999999249, -0.20577589138918265 
0.8399999999999238, -0.1992245953377992 
0.8499999999999227, -0.19408715028853213 
0.8599999999999216, -0.19026633045830896 
0.8699999999999205, -0.1874863505854329 
0.8799999999999194, -0.1854651746642002 
0.8899999999999183, -0.18397790882707937 
0.8999999999999172, -0.18286389180429588 
0.9099999999999161, -0.1820157615043904 
0.919999999999915, -0.18136677890925465 
0.9299999999999139, -0.18088141279535783 
0.9399999999999128, -0.1805502926862374 
0.9499999999999117, -0.18038983287997143 
0.9599999999999106, -0.18044704479651497 
0.9699999999999095, -0.18081026681152065 
0.9799999999999084, -0.18162507654579377 
0.9899999999999073, -0.18310610779816405 
0.9999999999999062, -0.1855038678987478 
1.0099999999999052, -0.18889929199328645 
1.019999999999904, -0.19257996917832532 
1.029999999999903, -0.19405304594469028 
1.039999999999902, -0.1894367441720446 
1.0499999999999008, -0.17742916109129409 
1.0599999999998997, -0.16203297014147003 
1.0699999999998986, -0.14832750442224546 
1.0799999999998975, -0.13833961324637073 
1.0899999999998964, -0.13170065896706504 
1.0999999999998953, -0.12741525755754277 
1.1099999999998942, -0.1246465669523074 
1.119999999999893, -0.12283956642161058 
1.129999999999892, -0.12165638388358653 
1.1399999999998909, -0.12090046871740567 
1.1499999999998898, -0.12046505883656342 
1.1599999999998887, -0.12030419158159185 
1.1699999999998876, -0.12042004464146486 
1.1799999999998865, -0.1208630058666279 
1.1899999999998854, -0.12174436333363259 
1.1999999999998843, -0.12326496850199489 
1.2099999999998832, -0.125765877141332 
1.219999999999882, -0.12980347380103788 
1.229999999999881, -0.1362201378305124 
1.2399999999998799, -0.14606312272281646 
1.2499999999998788, -0.15995688516660692 
1.2599999999998777, -0.17661860325058704 
1.2699999999998766, -0.19200213246186132 
1.2799999999998755, -0.20203854213894318 
1.2899999999998744, -0.20632944708298848 
1.2999999999998733, -0.20719220674719932 
1.3099999999998722, -0.2067656872615204 
1.319999999999871, -0.2060998920472116 
1.32999999999987, -0.2055376402162976 
1.3399999999998689, -0.20513714784468112 
1.3499999999998678, -0.20487536484045038 
1.3599999999998666, -0.20471920458653609 
1.3699999999998655, -0.20464495079226985 
1.3799999999998644, -0.2046416725962413 
1.3899999999998633, -0.204711323543026 
1.3999999999998622, -0.20486943935189011 
1.4099999999998611, -0.205147397535066 
1.41999999999986, -0.20559612524212065 
1.429999999999859, -0.20629045921359687 
1.4399999999998578, -0.20733232779081562 
1.4499999999998567, -0.20884852367388862 
1.4599999999998556, -0.21097384346161846 
1.4699999999998545, -0.21380469076854638 
1.4799999999998534, -0.2173150533094764 
1.4899999999998523, -0.22126974290976703 
1.4999999999998512, -0.22523260012412316 
1.5099999999998501, -0.2287337408116346 
1.519999999999849, -0.23148241096209143 
1.529999999999848, -0.2334378247132503 
1.5399999999998468, -0.23472231283734885 
1.5499999999998457, -0.23550266301050038 
1.5599999999998446, -0.23592159539961757 
1.5699999999998435, -0.23607861797194488 
1.5799999999998424, -0.23603418143866817 
1.5899999999998413, -0.23581989572101225 
1.5999999999998402, -0.2354489455825571 
1.6099999999998391, -0.234926612612573 
1.619999999999838, -0.23426206645986683 
1.629999999999837, -0.2334805771514204 
1.6399999999998358, -0.23263140959384607 
1.6499999999998347, -0.23178495152405793 
1.6599999999998336, -0.23101767566708312 
1.6699999999998325, -0.23039243990432431 
1.6799999999998314, -0.2299443782431856 
1.6899999999998303, -0.2296764518727215 
1.6999999999998292, -0.2295623438844224 
1.709999999999828, -0.22955394256023962 
1.719999999999827, -0.2295924834447542 
1.729999999999826, -0.22962136149251067 
1.7399999999998248, -0.2295960206795813 
1.7499999999998237, -0.22948689728852786 
1.7599999999998226, -0.22927534109990383 
1.7699999999998215, -0.22894542328932016 
1.7799999999998204, -0.22847414639829364 
1.7899999999998193, -0.2278202471509208 
1.7999999999998182, -0.2269097533117605 
1.809999999999817, -0.22561630488659 
1.819999999999816, -0.22373895615150952 
1.8299999999998149, -0.220996577757826 
1.8399999999998138, -0.21708937574942183 
1.8499999999998127, -0.21188569849266847 
1.8599999999998116, -0.2056694993282548 
1.8699999999998105, -0.1991686140052428 
1.8799999999998094, -0.19320190069544513 
1.8899999999998083, -0.18827141799007338 
1.8999999999998072, -0.1844714105905872 
1.909999999999806, -0.18164800786613985 
1.919999999999805, -0.1795737063497498 
1.9299999999998039, -0.17804004173790094 
1.9399999999998028, -0.17688591223632077 
1.9499999999998017, -0.17599708599960726 
1.9599999999998006, -0.17529754128848965 
1.9699999999997995, -0.1747407546833503 
1.9799999999997984, -0.1743034132754226 
1.9899999999997973, -0.17398217270146138 
1.9999999999997962, -0.17379358003602743 
2.0099999999998173, -0.17377686665940495 
2.0199999999998384, -0.17399761890032445 
2.0299999999998595, -0.1745438119568358 
2.0399999999998806, -0.17548484503342737 
2.0499999999999017, -0.1767115874092793 
2.059999999999923, -0.17750537388819704 
2.069999999999944, -0.1758611912770979 
2.079999999999965, -0.16869147941592763 
2.089999999999986, -0.15478718567857164 
2.100000000000007, -0.13762507737749238 
2.1100000000000283, -0.12225507464143096 
2.1200000000000494, -0.1109626983936437 
2.1300000000000705, -0.10342926771980825 
2.1400000000000916, -0.09855819932401427 
2.1500000000001127, -0.09540063706096255 
2.160000000000134, -0.09332239645695874 
2.170000000000155, -0.09193641929207265 
2.180000000000176, -0.09101627169463967 
2.190000000000197, -0.09043644719029117 
2.2000000000002182, -0.09013834988044447 
2.2100000000002393, -0.0901147205748453 
2.2200000000002604, -0.09040812944872337 
2.2300000000002815, -0.09112313837039002 
2.2400000000003026, -0.09245562817131352 
2.2500000000003237, -0.09474545738202653 
2.260000000000345, -0.09855252499913214 
2.270000000000366, -0.10470979324057976 
2.280000000000387, -0.1141321448757779 
2.290000000000408, -0.1268149580346429 
2.3000000000004293, -0.13982521408509413 
2.3100000000004504, -0.14733366130847675 
2.3200000000004715, -0.14632997520069732 
2.3300000000004926, -0.14008357597704507 
2.3400000000005137, -0.13322153770543804 
2.3500000000005348, -0.12785091971153684 
2.360000000000556, -0.12415583047140762 
2.370000000000577, -0.1217274119934765 
2.380000000000598, -0.12015148660900483 
2.390000000000619, -0.1191365301530863 
2.4000000000006403, -0.11850155522867316 
2.4100000000006614, -0.1181435725929904 
2.4200000000006825, -0.11801335187097335 
2.4300000000007036, -0.11810246006006006 
2.4400000000007247, -0.1184400285437522 
2.450000000000746, -0.11909849687655132 
2.460000000000767, -0.12020941899034068 
2.470000000000788, -0.12199200469286187 
2.480000000000809, -0.12479606351315393 
2.49000000000083, -0.12914896120967387 
2.5000000000008513, -0.13575014991046747 
2.5100000000008724, -0.14524876874504142 
2.5200000000008935, -0.1575731845558417 
2.5300000000009146, -0.17107748440484408 
2.5400000000009357, -0.18291058043694108 
2.550000000000957, -0.19110942230259934 
2.560000000000978, -0.19579048391313095 
2.570000000000999, -0.19815509640330858 
2.58000000000102, -0.19928864114875722 
2.5900000000010412, -0.1998308566679644 
2.6000000000010624, -0.20009540057638503 
2.6100000000010835, -0.20022549734198186 
2.6200000000011046, -0.20028664330430526 
2.6300000000011257, -0.20031127293580914 
2.6400000000011468, -0.20031923347828834 
2.650000000001168, -0.2003279391164837 
2.660000000001189, -0.20035864382381066 
2.67000000000121, -0.200441355742739 
2.680000000001231, -0.2006188489779607 
2.6900000000012523, -0.200949080481517 
2.7000000000012734, -0.20150469913175248 
2.7100000000012945, -0.20236757782580753 
2.7200000000013156, -0.2036145430411457 
2.7300000000013367, -0.2052890390939135 
2.740000000001358, -0.20735907674892312 
2.750000000001379, -0.20968208663563556 
2.7600000000014, -0.21201849154529415 
2.770000000001421, -0.2141132969604434 
2.780000000001442, -0.21579472994823093 
2.7900000000014633, -0.21701358470178986 
2.8000000000014844, -0.21781138772613665 
2.8100000000015055, -0.2182649536150468 
2.8200000000015266, -0.2184467887102281 
2.8300000000015477, -0.218408210490052 
2.840000000001569, -0.2181765839573484 
2.85000000000159, -0.21775879889012267 
2.860000000001611, -0.21714811550952245 
2.870000000001632, -0.21633507288712045 
2.8800000000016532, -0.2153233974851408 
2.8900000000016743, -0.21414751734538978 
2.9000000000016954, -0.21288133578318855 
2.9100000000017165, -0.21162728748722276 
2.9200000000017377, -0.2104876885604156 
2.9300000000017588, -0.20953579889829843 
2.94000000000178, -0.20880253506644242 
2.950000000001801, -0.20827960566651654 
2.960000000001822, -0.20793044116061546 
2.970000000001843, -0.20770238750707937 
2.9800000000018643, -0.20753826564394112 
2.9900000000018854, -0.20738622707995752 
3.0000000000019065, -0.20720570032709124 
3.0100000000019276, -0.2069678327490218 
3.0200000000019487, -0.20665106000646785 
3.03000000000197, -0.20623366296374085 
3.040000000001991, -0.20568430214463485 
3.050000000002012, -0.20494950152854646 
3.060000000002033, -0.20393517086258503 
3.070000000002054, -0.20247916804099725 
3.0800000000020753, -0.20031871218970476 
3.0900000000020964, -0.19708228968391545 
3.1000000000021175, -0.19238578662344777 
3.1100000000021386, -0.18611443006529704 
3.1200000000021597, -0.1787493812317545 
3.130000000002181, -0.17129901104053763 
3.140000000002202, -0.16473340717310042 
3.150000000002223, -0.1595166222173126 
3.160000000002244, -0.15562476079632717 
3.1700000000022652, -0.1528034891010697 
3.1800000000022863, -0.15076703838685487 
3.1900000000023074, -0.14927994477185486 
3.2000000000023285, -0.14817102691535786 
3.2100000000023496, -0.14732375953917393 
3.2200000000023707, -0.14666299231830915 
3.230000000002392, -0.14614421155977386 
3.240000000002413, -0.14574651977067316 
3.250000000002434, -0.1454691864535314 
3.260000000002455, -0.14533126758557002 
3.2700000000024763, -0.14537292968417165 
3.2800000000024974, -0.14565357941483834 
3.2900000000025185, -0.14622998787559535 
3.3000000000025396, -0.14706433602109342 
3.3100000000025607, -0.14774769534062643 
3.3200000000025818, -0.14693134086514342 
3.330000000002603, -0.1419446951579757 
3.340000000002624, -0.1304134615671016 
3.350000000002645, -0.11385506208811524 
3.360000000002666, -0.09729119849655986 
3.3700000000026873, -0.08434196202055869 
3.3800000000027084, -0.07548877970330264 
3.3900000000027295, -0.06974569220316594 
3.4000000000027506, -0.06604294506974646 
3.4100000000027717, -0.0636199999706104 
3.420000000002793, -0.06200345699410431 
3.430000000002814, -0.06091336418247034 
3.440000000002835, -0.06019041942751 
3.450000000002856, -0.059752176277216504 
3.460000000002877, -0.05957068068493909 
3.4700000000028983, -0.05966534723392312 
3.4800000000029194, -0.060108751889784415 
3.4900000000029405, -0.06104644936717053 
3.5000000000029616, -0.06273325929508732 
3.5100000000029827, -0.06558000789659628 
3.520000000003004, -0.0701562056980963 
3.530000000003025, -0.07692602430711659 
3.540000000003046, -0.08519544770896328 
3.550000000003067, -0.09129106164499438 
3.5600000000030882, -0.08951129082607254 
3.5700000000031094, -0.07892922673448093 
3.5800000000031305, -0.06537493597434682 
3.5900000000031516, -0.05407064071128413 
3.6000000000031727, -0.04626699130482131 
3.6100000000031938, -0.04124194610886313 
3.620000000003215, -0.038044627994557344 
3.630000000003236, -0.03598928933373125 
3.640000000003257, -0.03465422521475724 
3.650000000003278, -0.03379618513874526 
3.6600000000032993, -0.03328365418954869 
3.6700000000033204, -0.0330583223723264 
3.6800000000033415, -0.03311793262664744 
3.6900000000033626, -0.03351561750986228 
3.7000000000033837, -0.03437556923282907 
3.710000000003405, -0.03592979621203122 
3.720000000003426, -0.0385837568694752 
3.730000000003447, -0.043007465752863336 
3.740000000003468, -0.05017129459548897 
3.750000000003489, -0.06096867894627224 
3.7600000000035103, -0.07465054552447721 
3.7700000000035314, -0.08655122245791377 
3.7800000000035525, -0.09035177680384268 
3.7900000000035736, -0.08567518112919162 
3.8000000000035947, -0.07782497578505913 
3.810000000003616, -0.07089086011506861 
3.820000000003637, -0.06593817762440786 
3.830000000003658, -0.06265867959587582 
3.840000000003679, -0.06052944827330138 
3.8500000000037002, -0.059149865993477525 
3.8600000000037213, -0.058265582169086005 
3.8700000000037424, -0.05772937563386125 
3.8800000000037635, -0.05746655581852274 
3.8900000000037847, -0.057455161667846075 
3.9000000000038058, -0.05771963023590604 
3.910000000003827, -0.05833696930501668 
3.920000000003848, -0.059457564011041394 
3.930000000003869, -0.06134653310466938 
3.94000000000389, -0.0644534610665344 
3.9500000000039113, -0.06950566432821942 
3.9600000000039324, -0.07754626204529033 
3.9700000000039535, -0.0896060782510295 
3.9800000000039746, -0.10543099604067122 
3.9900000000039957, -0.12173302979670382 
4.000000000004016, -0.13346762432147627 
4.010000000003993, -0.13868191697947158 
4.02000000000397, -0.1394794262839661 
4.030000000003946, -0.13856019174360062 
4.040000000003923, -0.1373735225008313 
4.0500000000039, -0.13639301017032485 
4.0600000000038765, -0.13568652524560507 
4.070000000003853, -0.13520996932321233 
4.08000000000383, -0.1349093179741469 
4.090000000003807, -0.13474690877111256 
4.100000000003783, -0.13470513525356395 
4.11000000000376, -0.13478594564986654 
4.120000000003737, -0.13501172655313193 
4.130000000003713, -0.1354292652298248 
4.14000000000369, -0.13611754441946877 
4.150000000003667, -0.1371998142114094 
4.1600000000036434, -0.13885910216690095 
4.17000000000362, -0.1413509641138902 
4.180000000003597, -0.14499175813052087 
4.1900000000035735, -0.15007159508332743 
4.20000000000355, -0.15663017724875658 
4.210000000003527, -0.16415589544303014 
4.220000000003504, -0.17155918779442225 
4.23000000000348, -0.1777198298330139 
4.240000000003457, -0.18213730956646076 
4.250000000003434, -0.1849812208642309 
4.26000000000341, -0.18669784741297743 
4.270000000003387, -0.1876968472458836 
4.280000000003364, -0.18825791547476747 
4.2900000000033405, -0.1885491549675612 
4.300000000003317, -0.18866657246151447 
4.310000000003294, -0.18866476430737872 
4.320000000003271, -0.1885766198735016 
4.330000000003247, -0.18842608685538678 
4.340000000003224, -0.18823735792086832 
4.350000000003201, -0.18804178177158182 
4.360000000003177, -0.1878819302845918 
4.370000000003154, -0.18781149135798797 
4.380000000003131, -0.1878904776660934 
4.390000000003107, -0.18817651751293615 
4.400000000003084, -0.188712803266689 
4.410000000003061, -0.1895123174731572 
4.4200000000030375, -0.19054055541973627 
4.430000000003014, -0.19170706700981088 
4.440000000002991, -0.19288061863024525 
4.450000000002968, -0.19392903209412002 
4.460000000002944, -0.1947602124995153 
4.470000000002921, -0.19533746729506854 
4.480000000002898, -0.19566643462507166 
4.490000000002874, -0.19577091836295263 
4.500000000002851, -0.1956729464173219 
4.510000000002828, -0.19538138905103264 
4.520000000002804, -0.19488727594876903 
4.530000000002781, -0.19416404217672853 
4.540000000002758, -0.19317393841555552 
4.5500000000027345, -0.1918844412717639 
4.560000000002711, -0.19029623608692098 
4.570000000002688, -0.18847269203967928 
4.580000000002665, -0.1865462861460223 
4.590000000002641, -0.18468413705679526 
4.600000000002618, -0.18303029818088826 
4.610000000002595, -0.18166546832155933 
4.620000000002571, -0.18060349011260365 
4.630000000002548, -0.17981121871937766 
4.640000000002525, -0.17923139160114135 
4.6500000000025015, -0.17879946749547573 
4.660000000002478, -0.17845443705519934 
4.670000000002455, -0.17814511806791164 
4.6800000000024315, -0.17783224235672299 
4.690000000002408, -0.1774864996997719 
4.700000000002385, -0.17708341138636488 
4.710000000002362, -0.1765958790703258 
4.720000000002338, -0.17598397647204114 
4.730000000002315, -0.17517944935885094 
4.740000000002292, -0.17406015958246812 
4.750000000002268, -0.17240979396995457 
4.760000000002245, -0.16987024852920812 
4.770000000002222, -0.16594053130786918 
4.7800000000021985, -0.16015686527088208 
4.790000000002175, -0.15254026526029216 
4.800000000002152, -0.14395792206028432 
4.810000000002129, -0.13576289544158854 
4.820000000002105, -0.12895447426874032 
