t, s[1].omega / s[0].omega 
0, -0.3000226532069695 
0.009999999999999995, -0.3025114560986977 
0.019999999999999934, -0.30533262527765004 
0.029999999999999874, -0.30822951116201436 
0.04000000000000012, -0.3108946833451157 
0.050000000000000405, -0.3130916894588933 
0.06000000000000069, -0.3147286093517499 
0.07000000000000098, -0.3158392034155014 
0.08000000000000126, -0.3165165631092323 
0.09000000000000155, -0.31685719594564177 
0.10000000000000184, -0.3169339187644423 
0.11000000000000212, -0.3167888797458833 
0.12000000000000241, -0.3164348981060758 
0.130000000000002, -0.31585911826160845 
0.1400000000000009, -0.3150287214563185 
0.1499999999999998, -0.31390243741287005 
0.1599999999999987, -0.31245261287312986 
0.1699999999999976, -0.3106965405613968 
0.1799999999999965, -0.30872103404436063 
0.1899999999999954, -0.30667490219209137 
0.1999999999999943, -0.3047229037612941 
0.2099999999999932, -0.3029906756697527 
0.2199999999999921, -0.3015369219134583 
0.229999999999991, -0.30035970570289855 
0.2399999999999899, -0.29941933166183055 
0.2499999999999888, -0.29866087494042437 
0.2599999999999877, -0.2980298360736107 
0.2699999999999866, -0.2974807975393169 
0.2799999999999855, -0.2969806800538147 
0.2899999999999844, -0.29650848072523095 
0.2999999999999833, -0.296053426268129 
0.3099999999999822, -0.2956131392857115 
0.3199999999999811, -0.2951927036761194 
0.32999999999998, -0.29480457390242304 
0.3399999999999789, -0.29446766145200914 
0.3499999999999778, -0.29419978337868863 
0.35999999999997667, -0.29398635166759124 
0.36999999999997557, -0.2936822197332138 
0.37999999999997447, -0.29276951423041664 
0.38999999999997337, -0.28995925224762986 
0.39999999999997227, -0.2831097853485621 
0.40999999999997117, -0.270637546439075 
0.41999999999997006, -0.2539858217355196 
0.42999999999996896, -0.23724377374228595 
0.43999999999996786, -0.2236410100461191 
0.44999999999996676, -0.21393005203823612 
0.45999999999996566, -0.2074130709371614 
0.46999999999996456, -0.20312421044416853 
0.47999999999996346, -0.200297063950156 
0.48999999999996235, -0.19841896669700249 
0.49999999999996125, -0.19716985936084314 
0.5099999999999602, -0.1963575319688812 
0.519999999999959, -0.19587272021586208 
0.529999999999958, -0.19566260233388774 
0.5399999999999568, -0.1957177736675303 
0.5499999999999557, -0.19606941493941082 
0.5599999999999546, -0.19679567521368507 
0.5699999999999535, -0.1980384049352092 
0.5799999999999524, -0.20003285308092686 
0.5899999999999513, -0.2031516150282285 
0.5999999999999502, -0.20795192326889347 
0.6099999999999491, -0.21517107845364788 
0.619999999999948, -0.2255123464476633 
0.6299999999999469, -0.23899071647182607 
0.6399999999999458, -0.25403484512326513 
0.6499999999999447, -0.267667320671977 
0.6599999999999436, -0.2775445115701955 
0.6699999999999425, -0.2834816002278128 
0.6799999999999414, -0.28666549828736876 
0.6899999999999403, -0.2883120665911095 
0.6999999999999392, -0.2891823675449136 
0.7099999999999381, -0.2896641523721514 
0.719999999999937, -0.2899397464164322 
0.7299999999999359, -0.290094104657118 
0.7399999999999348, -0.29016824425107657 
0.7499999999999337, -0.29018358280429657 
0.7599999999999326, -0.2901534289799693 
0.7699999999999315, -0.2900895327864254 
0.7799999999999304, -0.29000708547826975 
0.7899999999999293, -0.2899290646942692 
0.7999999999999282, -0.2898891365243481 
0.8099999999999271, -0.2899314048008149 
0.819999999999926, -0.29010560377878686 
0.8299999999999249, -0.2904575807286996 
0.8399999999999238, -0.29101598624336805 
0.8499999999999227, -0.2917771494933257 
0.8599999999999216, -0.29269329968058433 
0.8699999999999205, -0.2936737960135324 
0.8799999999999194, -0.2946066499482606 
0.8899999999999183, -0.2953928251888828 
0.8999999999999172, -0.29597221882456093 
0.9099999999999161, -0.2963267890411362 
0.919999999999915, -0.2964654317101957 
0.9299999999999139, -0.2964043317917916 
0.9399999999999128, -0.2961514907093484 
0.9499999999999117, -0.2956962785136139 
0.9599999999999106, -0.295001354125852 
0.9699999999999095, -0.2939951388519991 
0.9799999999999084, -0.2925672478628977 
0.9899999999999073, -0.29057735553019043 
0.9999999999999062, -0.2878970111684746 
1.0099999999999052, -0.28449652890192234 
1.019999999999904, -0.28053910516954883 
1.029999999999903, -0.27638361173601317 
1.039999999999902, -0.2724465264546399 
1.0499999999999008, -0.26902772574725936 
1.0599999999998997, -0.2662396747135954 
1.0699999999998986, -0.26404937638257003 
1.0799999999998975, -0.26235474885395227 
1.0899999999998964, -0.2610407774085911 
1.0999999999998953, -0.26000695181724487 
1.1099999999998942, -0.25917615418976747 
1.119999999999893, -0.25849490949451265 
1.129999999999892, -0.25793076784025415 
1.1399999999998909, -0.2574697981143894 
1.1499999999998898, -0.2571158574168206 
1.1599999999998887, -0.2568928010013626 
1.1699999999998876, -0.25685071852120056 
1.1799999999998865, -0.2570771372573538 
1.1899999999998854, -0.2577123840471083 
1.1999999999998843, -0.25895996712063224 
1.2099999999998832, -0.2610542898297222 
1.219999999999882, -0.26407567240789404 
1.229999999999881, -0.26741569758277883 
1.2399999999998799, -0.26895781596116697 
1.2499999999998788, -0.26533881234653645 
1.2599999999998777, -0.2550645487657433 
1.2699999999998766, -0.24110329430811675 
1.2799999999998755, -0.22799204086081004 
1.2899999999998744, -0.21802883686064414 
1.2999999999998733, -0.2112296039085467 
1.3099999999998722, -0.20678890211422826 
1.319999999999871, -0.20391974622976652 
1.32999999999987, -0.20206269050603978 
1.3399999999998689, -0.2008620812185505 
1.3499999999998678, -0.20010295621719232 
1.3599999999998666, -0.1996611110609246 
1.3699999999998655, -0.19947182648056733 
1.3799999999998644, -0.199512951216434 
1.3899999999998633, -0.19979823093981236 
1.3999999999998622, -0.2003786927527556 
1.4099999999998611, -0.20135162207627572 
1.41999999999986, -0.20287769416018658 
1.429999999999859, -0.2052059921222312 
1.4399999999998578, -0.20870002195332932 
1.4499999999998567, -0.21383576002324886 
1.4599999999998556, -0.22109392914260967 
1.4699999999998545, -0.2306268085429668 
1.4799999999998534, -0.2417355316811794 
1.4899999999998523, -0.25272054628623586 
1.4999999999998512, -0.2617559292797239 
1.5099999999998501, -0.2680568888889801 
1.519999999999849, -0.271973064112528 
1.529999999999848, -0.2742681511498569 
1.5399999999998468, -0.27558958284001955 
1.5499999999998457, -0.27634833621258803 
1.5599999999998446, -0.27677567822756316 
1.5699999999998435, -0.27699628905682666 
1.5799999999998424, -0.27707691676087143 
1.5899999999998413, -0.2770537202421074 
1.5999999999998402, -0.2769475468260151 
1.6099999999998391, -0.2767736549934679 
1.619999999999838, -0.27654925910315076 
1.629999999999837, -0.27629970094369194 
1.6399999999998358, -0.2760619741412699 
1.6499999999998347, -0.2758834940829335 
1.6599999999998336, -0.2758152772804598 
1.6699999999998325, -0.2759011072234864 
1.6799999999998314, -0.27616545179890317 
1.6899999999998303, -0.27660267563113117 
1.6999999999998292, -0.277171056322642 
1.709999999999828, -0.2777971827913862 
1.719999999999827, -0.27839380609361564 
1.729999999999826, -0.27888444239035454 
1.7399999999998248, -0.27922063301384625 
1.7499999999998237, -0.27938326630282173 
1.7599999999998226, -0.2793714996490533 
1.7699999999998215, -0.27918812548682886 
1.7799999999998204, -0.2788268636732255 
1.7899999999998193, -0.2782619403191453 
1.7999999999998182, -0.27743793515773674 
1.809999999999817, -0.2762588871173406 
1.819999999999816, -0.2745807508582413 
1.8299999999998149, -0.2722224203347098 
1.8399999999998138, -0.269023477116087 
1.8499999999998127, -0.2649638984996047 
1.8599999999998116, -0.26028356301768385 
1.8699999999998105, -0.2554594570217553 
1.8799999999998094, -0.25099858813851145 
1.8899999999998083, -0.24722254826892795 
1.8999999999998072, -0.24421413662099117 
1.909999999999806, -0.24189646521345315 
1.919999999999805, -0.24013132090829262 
1.9299999999998039, -0.2387802195167906 
1.9399999999998028, -0.23772929553511318 
1.9499999999998017, -0.236894495318159 
1.9599999999998006, -0.2362190791793787 
1.9699999999997995, -0.23566942107985325 
1.9799999999997984, -0.23523180013481956 
1.9899999999997973, -0.23491154163724753 
1.9999999999997962, -0.23473545795925163 
2.0099999999998173, -0.2347584820233432 
2.0199999999998384, -0.23507493138776278 
2.0299999999998595, -0.23583173336604277 
2.0399999999998806, -0.23722818784395674 
2.0499999999999017, -0.23944687253226862 
2.059999999999923, -0.242372343754717 
2.069999999999944, -0.24491228965188183 
2.079999999999965, -0.24430092637936265 
2.089999999999986, -0.23731991018338444 
2.100000000000007, -0.2241273511274513 
2.1100000000000283, -0.20908954164997806 
2.1200000000000494, -0.1963586283836336 
2.1300000000000705, -0.18722411223152732 
2.1400000000000916, -0.18115230242043284 
2.1500000000001127, -0.17721561563031457 
2.160000000000134, -0.1746642555604259 
2.170000000000155, -0.1730008514789928 
2.180000000000176, -0.1719196275449465 
2.190000000000197, -0.1712404622726084 
2.2000000000002182, -0.1708638612455524 
2.2100000000002393, -0.1707450317137635 
2.2200000000002604, -0.1708817556712573 
2.2300000000002815, -0.17131267400953878 
2.2400000000003026, -0.17212508087617306 
2.2500000000003237, -0.17347349253314168 
2.260000000000345, -0.17561146449010828 
2.270000000000366, -0.178936392487908 
2.280000000000387, -0.1840299566943809 
2.290000000000408, -0.1916209704306884 
2.3000000000004293, -0.20228724479913654 
2.3100000000004504, -0.21570963525155898 
2.3200000000004715, -0.2299301275512861 
2.3300000000004926, -0.2420481061738052 
2.3400000000005137, -0.25034828908406076 
2.3500000000005348, -0.2551474745949008 
2.360000000000556, -0.2576722280188989 
2.370000000000577, -0.2589694808272329 
2.380000000000598, -0.2596517823126747 
2.390000000000619, -0.26002415401383805 
2.4000000000006403, -0.26023014408804074 
2.4100000000006614, -0.2603376935404699 
2.4200000000006825, -0.2603807486048588 
2.4300000000007036, -0.26037857355366956 
2.4400000000007247, -0.26034547339376474 
2.450000000000746, -0.2602969144810301 
2.460000000000767, -0.2602543917392362 
2.470000000000788, -0.2602492621458912 
2.480000000000809, -0.2603244359728841 
2.49000000000083, -0.26053241253619236 
2.5000000000008513, -0.26092865208222843 
2.5100000000008724, -0.26155986370460416 
2.5200000000008935, -0.2624471652705236 
2.5300000000009146, -0.2635665771902448 
2.5400000000009357, -0.2648364454411619 
2.550000000000957, -0.26612726301701084 
2.560000000000978, -0.26729927296681566 
2.570000000000999, -0.2682478381681355 
2.58000000000102, -0.26892619284637365 
2.5900000000010412, -0.26933647000141525 
2.6000000000010624, -0.269504712168307 
2.6100000000010835, -0.2694578993388935 
2.6200000000011046, -0.2692095938625435 
2.6300000000011257, -0.26875236880309084 
2.6400000000011468, -0.2680538162155041 
2.650000000001168, -0.26705578145152925 
2.660000000001189, -0.2656813324380962 
2.67000000000121, -0.2638585790274841 
2.680000000001231, -0.26156732362241314 
2.6900000000012523, -0.2588924689544494 
2.7000000000012734, -0.2560374461302321 
2.7100000000012945, -0.2532626020270555 
2.7200000000013156, -0.25078461761736076 
2.7300000000013367, -0.24871391593317646 
2.740000000001358, -0.24705881177513495 
2.750000000001379, -0.2457652916139811 
2.7600000000014, -0.2447557752024539 
2.770000000001421, -0.24395331118427163 
2.780000000001442, -0.24329305656966946 
2.7900000000014633, -0.24272597404745766 
2.8000000000014844, -0.24221832876583207 
2.8100000000015055, -0.24174927516801187 
2.8200000000015266, -0.2413080662040406 
2.8300000000015477, -0.24089168600688415 
2.840000000001569, -0.24050271651546304 
2.85000000000159, -0.24014550347446656 
2.860000000001611, -0.2398145519393685 
2.870000000001632, -0.23945859169971034 
2.8800000000016532, -0.23888101342243018 
2.8900000000016743, -0.2375111463350697 
2.9000000000016954, -0.2340543700506303 
2.9100000000017165, -0.22649470133906163 
2.9200000000017377, -0.21353602933262303 
2.9300000000017588, -0.1968905893524259 
2.94000000000178, -0.18061557186875538 
2.950000000001801, -0.1676529076466311 
2.960000000001822, -0.15850912996884595 
2.970000000001843, -0.1523993860391396 
2.9800000000018643, -0.14836824657977432 
2.9900000000018854, -0.14568759099352732 
3.0000000000019065, -0.14388055789740123 
3.0100000000019276, -0.14265366539973262 
3.0200000000019487, -0.14183346904773436 
3.03000000000197, -0.14132480883648452 
3.040000000001991, -0.1410875600033395 
3.050000000002012, -0.1411271551898376 
3.060000000002033, -0.14149659028013356 
3.070000000002054, -0.14231069218965295 
3.0800000000020753, -0.14377660226318545 
3.0900000000020964, -0.1462466432588119 
3.1000000000021175, -0.15029440157290272 
3.1100000000021386, -0.15677604564372355 
3.1200000000021597, -0.1666984613334542 
3.130000000002181, -0.18043912435194828 
3.140000000002202, -0.19605835250971465 
3.150000000002223, -0.20872307406354595 
3.160000000002244, -0.21452226007761163 
3.1700000000022652, -0.21435936392910185 
3.1800000000022863, -0.21166158612221359 
3.1900000000023074, -0.20880465391287087 
3.2000000000023285, -0.2065957743476124 
3.2100000000023496, -0.20507550710656108 
3.2200000000023707, -0.20408019444142184 
3.230000000002392, -0.2034478063498812 
3.240000000002413, -0.20306285321479783 
3.250000000002434, -0.2028536063094953 
3.260000000002455, -0.20278144458489064 
3.2700000000024763, -0.20283279228308335 
3.2800000000024974, -0.2030153192769943 
3.2900000000025185, -0.20335807786447035 
3.3000000000025396, -0.20391501084734914 
3.3100000000025607, -0.20477114889025602 
3.3200000000025818, -0.20604999492937925 
3.330000000002603, -0.20791775585323088 
3.340000000002624, -0.2105728892891127 
3.350000000002645, -0.214197248517767 
3.360000000002666, -0.21884127235631454 
3.3700000000026873, -0.22426357527247948 
3.3800000000027084, -0.22986796908579898 
3.3900000000027295, -0.23491360057206406 
3.4000000000027506, -0.238891693340135 
3.4100000000027717, -0.24170593012914043 
3.420000000002793, -0.24354706212813576 
3.430000000002814, -0.24468381226077943 
3.440000000002835, -0.24534274979750165 
3.450000000002856, -0.24567951656089923 
3.460000000002877, -0.24578990731530395 
3.4700000000028983, -0.24572833142360717 
3.4800000000029194, -0.24552331391559884 
3.4900000000029405, -0.2451896166051608 
3.5000000000029616, -0.24473897909265344 
3.5100000000029827, -0.24419050571291206 
3.520000000003004, -0.24357902348481053 
3.530000000003025, -0.2429572904343881 
3.540000000003046, -0.2423889727730823 
3.550000000003067, -0.241934589465547 
3.5600000000030882, -0.2416371166195685 
3.5700000000031094, -0.2415126473094026 
3.5800000000031305, -0.24154715601739613 
3.5900000000031516, -0.24169893416401783 
3.6000000000031727, -0.2419073771539834 
3.6100000000031938, -0.24210742096728613 
3.620000000003215, -0.24224431967955748 
3.630000000003236, -0.24228161529567985 
3.640000000003257, -0.24219951586656258 
3.650000000003278, -0.24198661775609298 
3.6600000000032993, -0.24162937605284532 
3.6700000000033204, -0.24110135982385383 
3.6800000000033415, -0.24035153607305784 
3.6900000000033626, -0.239289807820877 
3.7000000000033837, -0.23777037825706007 
3.710000000003405, -0.2355828088225449 
3.720000000003426, -0.23248061769347378 
3.730000000003447, -0.22829314916014173 
3.740000000003468, -0.22311587793110577 
3.750000000003489, -0.21742206570236045 
3.7600000000035103, -0.21189758669181802 
3.7700000000035314, -0.20709748596190866 
3.7800000000035525, -0.20325103806757974 
3.7900000000035736, -0.20031570489091016 
3.8000000000035947, -0.1981236368597626 
3.810000000003616, -0.19648880472857205 
3.820000000003637, -0.1952537577981635 
3.830000000003658, -0.1943003918057351 
3.840000000003679, -0.19354655380475982 
3.8500000000037002, -0.1929392885729676 
3.8600000000037213, -0.19244885582124602 
3.8700000000037424, -0.1920649512216917 
3.8800000000037635, -0.19179567566456088 
3.8900000000037847, -0.19166942147519117 
3.9000000000038058, -0.19173903389683114 
3.910000000003827, -0.19208437746823162 
3.920000000003848, -0.1927981623386828 
3.930000000003869, -0.19390716121812313 
3.94000000000389, -0.1951129999566689 
3.9500000000039113, -0.19521699708020404 
3.9600000000039324, -0.19159952007347011 
3.9700000000039535, -0.18149994226135002 
3.9800000000039746, -0.1656568627406178 
3.9900000000039957, -0.14881969664760558 
4.000000000004016, -0.1350946077808281 
4.010000000003993, -0.1254684241322655 
4.02000000000397, -0.11914389689105354 
4.030000000003946, -0.11505171684423661 
4.040000000003923, -0.11238199643168345 
4.0500000000039, -0.11061528689670216 
4.0600000000038765, -0.1094390789011509 
4.070000000003853, -0.10867282639163345 
4.08000000000383, -0.10822019610819689 
4.090000000003807, -0.10804335281458577 
4.100000000003783, -0.10815308403253263 
4.11000000000376, -0.1086119607620997 
4.120000000003737, -0.10955154718077882 
4.130000000003713, -0.11120842829803787 
4.14000000000369, -0.11398587024520641 
4.150000000003667, -0.11853825491357042 
4.1600000000036434, -0.1258157079090926 
4.17000000000362, -0.13680540808289204 
4.180000000003597, -0.15139482527345774 
4.1900000000035735, -0.16645753978389954 
4.20000000000355, -0.17646316001239631 
4.210000000003527, -0.17884069166015984 
4.220000000003504, -0.17624768157650483 
4.23000000000348, -0.17237242916575815 
4.240000000003457, -0.16905547832382253 
4.250000000003434, -0.16667466788973614 
4.26000000000341, -0.16507837269153824 
4.270000000003387, -0.16403830887669602 
4.280000000003364, -0.1633762782497642 
4.2900000000033405, -0.16297634254265178 
4.300000000003317, -0.16277147364870814 
4.310000000003294, -0.16273054279581858 
4.320000000003271, -0.16285083137857312 
4.330000000003247, -0.16315620437459938 
4.340000000003224, -0.16370053519666689 
4.350000000003201, -0.16457636000516368 
4.360000000003177, -0.16592877800537356 
4.370000000003154, -0.16797272780064243 
4.380000000003131, -0.1710040718798768 
4.390000000003107, -0.17537433293822527 
4.400000000003084, -0.18136548006256917 
4.410000000003061, -0.1889074899604712 
4.4200000000030375, -0.19726910149605809 
4.430000000003014, -0.2051665294545857 
4.440000000002991, -0.21147956722714886 
4.450000000002968, -0.21586260312630387 
4.460000000002944, -0.218627341585242 
4.470000000002921, -0.2202812194818752 
4.480000000002898, -0.22124277417534416 
4.490000000002874, -0.2217839873559379 
4.500000000002851, -0.22206419481875317 
4.510000000002828, -0.22217298787006082 
4.520000000002804, -0.22216047073544573 
4.530000000002781, -0.22205599930045902 
4.540000000002758, -0.22188029181223673 
4.5500000000027345, -0.22165438149640188 
4.560000000002711, -0.22140660307993856 
4.570000000002688, -0.22117674246172675 
4.580000000002665, -0.22101558749215058 
4.590000000002641, -0.22097917627451538 
4.600000000002618, -0.22111903370041391 
4.610000000002595, -0.2214702937264846 
4.620000000002571, -0.22203885371221052 
4.630000000002548, -0.22279009225185806 
4.640000000002525, -0.22364648636176593 
4.6500000000025015, -0.2245027407814557 
4.660000000002478, -0.22525626944915414 
4.670000000002455, -0.22583564767110018 
4.6800000000024315, -0.22620991976316923 
4.690000000002408, -0.22637825765789601 
4.700000000002385, -0.22635180581234593 
4.710000000002362, -0.2261378413938259 
4.720000000002338, -0.22572912276786194 
4.730000000002315, -0.22509719266542555 
4.740000000002292, -0.22418891090951995 
4.750000000002268, -0.22292926181918502 
4.760000000002245, -0.22123869187800524 
4.770000000002222, -0.2190740113941033 
4.7800000000021985, -0.2164857673840142 
4.790000000002175, -0.21365096474065984 
4.800000000002152, -0.21083178881304793 
4.810000000002129, -0.20827337758949233 
4.820000000002105, -0.2061202707867436 
4.830000000002082, -0.20440355587715522 
4.840000000002059, -0.2030777548085831 
