t, s[1].omega / s[0].omega 
0, -0.5899977306256627 
0.009999999999999995, -0.5897781314393995 
0.019999999999999934, -0.5895666389417982 
0.029999999999999874, -0.5893469791661864 
0.04000000000000012, -0.5891000041816834 
0.050000000000000405, -0.5888108069173728 
0.06000000000000069, -0.5884727898537683 
0.07000000000000098, -0.5880882318269061 
0.08000000000000126, -0.5876672168420971 
0.09000000000000155, -0.5872272791582366 
0.10000000000000184, -0.58679539914506 
0.11000000000000212, -0.5864132520611396 
0.12000000000000241, -0.5861463503931901 
0.130000000000002, -0.5860976825030241 
0.1400000000000009, -0.5864260126408684 
0.1499999999999998, -0.5873671423434138 
0.1599999999999987, -0.5892512941663882 
0.1699999999999976, -0.5924985909392539 
0.1799999999999965, -0.5975564980013874 
0.1899999999999954, -0.6047312004143636 
0.1999999999999943, -0.6139077294241457 
0.2099999999999932, -0.6243110209966984 
0.2199999999999921, -0.6346227881400488 
0.229999999999991, -0.6435591450749509 
0.2399999999999899, -0.650453169574401 
0.2499999999999888, -0.6553336121127031 
0.2599999999999877, -0.6586031488937943 
0.2699999999999866, -0.6607194745789347 
0.2799999999999855, -0.6620499561414362 
0.2899999999999844, -0.6628493413760366 
0.2999999999999833, -0.6632814076004154 
0.3099999999999822, -0.6634448799535149 
0.3199999999999811, -0.6633921840671022 
0.32999999999998, -0.6631401614046873 
0.3399999999999789, -0.6626743755581722 
0.3499999999999778, -0.6619491616425367 
0.35999999999997667, -0.6608867827510074 
0.36999999999997557, -0.65938207572763 
0.37999999999997447, -0.6573227006283403 
0.38999999999997337, -0.6546332615060825 
0.39999999999997227, -0.6513341483529792 
0.40999999999997117, -0.6475776178416832 
0.41999999999997006, -0.6436209455390154 
0.42999999999996896, -0.6397443228642329 
0.43999999999996786, -0.6361699623923772 
0.44999999999996676, -0.6330275459832014 
0.45999999999996566, -0.6303644232341008 
0.46999999999996456, -0.6281741992257843 
0.47999999999996346, -0.6264229728147681 
0.48999999999996235, -0.6250661542080215 
0.49999999999996125, -0.6240569755045563 
0.5099999999999602, -0.6233500339511922 
0.519999999999959, -0.6229026484373825 
0.529999999999958, -0.6226756262756716 
0.5399999999999568, -0.6226340719155127 
0.5499999999999557, -0.6227483047796379 
0.5599999999999546, -0.6229947296173579 
0.5699999999999535, -0.6233564641699314 
0.5799999999999524, -0.6238234812821767 
0.5899999999999513, -0.6243918113017605 
0.5999999999999502, -0.6250610053162895 
0.6099999999999491, -0.6258289541176469 
0.619999999999948, -0.6266839705474208 
0.6299999999999469, -0.6275962415356972 
0.6399999999999458, -0.6285135803763018 
0.6499999999999447, -0.6293670647918572 
0.6599999999999436, -0.6300873767021474 
0.6699999999999425, -0.6306240849879696 
0.6799999999999414, -0.6309563517142653 
0.6899999999999403, -0.6310900986509193 
0.6999999999999392, -0.6310465460174399 
0.7099999999999381, -0.6308503184636579 
0.719999999999937, -0.630521881967625 
0.7299999999999359, -0.6300748863364973 
0.7399999999999348, -0.6295173343488856 
0.7499999999999337, -0.6288559230714441 
0.7599999999999326, -0.6281039928512061 
0.7699999999999315, -0.6272941478877374 
0.7799999999999304, -0.6264953394165867 
0.7899999999999293, -0.6258282580654158 
0.7999999999999282, -0.625459128654272 
0.8099999999999271, -0.6255363290430294 
0.819999999999926, -0.6260540959016356 
0.8299999999999249, -0.6267407085181562 
0.8399999999999238, -0.6271849807578007 
0.8499999999999227, -0.6271976116638381 
0.8599999999999216, -0.6269751105799648 
0.8699999999999205, -0.6268450249887263 
0.8799999999999194, -0.6269716094602125 
0.8899999999999183, -0.6273210710298857 
0.8999999999999172, -0.6277759506118868 
0.9099999999999161, -0.6282281798301517 
0.919999999999915, -0.6286100541064692 
0.9299999999999139, -0.6288893991931557 
0.9399999999999128, -0.6290550289892218 
0.9499999999999117, -0.6291039300243507 
0.9599999999999106, -0.6290325997314101 
0.9699999999999095, -0.628831931094177 
0.9799999999999084, -0.6284849596547607 
0.9899999999999073, -0.6279677767473781 
0.9999999999999062, -0.6272548551378302 
1.0099999999999052, -0.6263296105177627 
1.019999999999904, -0.6251978478739335 
1.029999999999903, -0.6238968324224607 
1.039999999999902, -0.6224916731350608 
1.0499999999999008, -0.6210583049511759 
1.0599999999998997, -0.6196628841480893 
1.0699999999998986, -0.6183493054354822 
1.0799999999998975, -0.6171387137245543 
1.0899999999998964, -0.6160368867175225 
1.0999999999998953, -0.6150433572347784 
1.1099999999998942, -0.6141584604075088 
1.119999999999893, -0.6133873809843691 
1.129999999999892, -0.6127418779797411 
1.1399999999998909, -0.6122406739773478 
1.1499999999998898, -0.6119092031378767 
1.1599999999998887, -0.6117790855044882 
1.1699999999998876, -0.61188753926928 
1.1799999999998865, -0.6122768898577035 
1.1899999999998854, -0.6129942087864889 
1.1999999999998843, -0.614090731697001 
1.2099999999998832, -0.6156199187812065 
1.219999999999882, -0.6176318077680417 
1.229999999999881, -0.6201600507832525 
1.2399999999998799, -0.6231981881272673 
1.2499999999998788, -0.626666550151118 
1.2599999999998777, -0.6303839400424263 
1.2699999999998766, -0.6340734671663604 
1.2799999999998755, -0.6374262701835398 
1.2899999999998744, -0.6402019428726786 
1.2999999999998733, -0.6422990667466963 
1.3099999999998722, -0.6437503215174674 
1.319999999999871, -0.6446639897209792 
1.32999999999987, -0.6451630807655921 
1.3399999999998689, -0.6453496786023831 
1.3499999999998678, -0.6452926888756962 
1.3599999999998666, -0.6450271077698551 
1.3699999999998655, -0.6445553718958109 
1.3799999999998644, -0.6438456294903664 
1.3899999999998633, -0.6428241245361995 
1.3999999999998622, -0.641359774635693 
1.4099999999998611, -0.6392407447574001 
1.41999999999986, -0.6361501861393916 
1.429999999999859, -0.6316694335210306 
1.4399999999998578, -0.6253720225467372 
1.4499999999998567, -0.6170717476400482 
1.4599999999998556, -0.6071425429642281 
1.4699999999998545, -0.5965910326631298 
1.4799999999998534, -0.586662469829135 
1.4899999999998523, -0.5782812797655087 
1.4999999999998512, -0.5717989632889611 
1.5099999999998501, -0.5671094608104041 
1.519999999999849, -0.5638871187040745 
1.529999999999848, -0.5617657059536292 
1.5399999999998468, -0.5604250608120731 
1.5499999999998457, -0.5596162293644266 
1.5599999999998446, -0.5591579049441049 
1.5699999999998435, -0.5589233596357686 
1.5799999999998424, -0.5588264646680331 
1.5899999999998413, -0.5588098853065182 
1.5999999999998402, -0.5588362050435038 
1.6099999999998391, -0.5588819093010822 
1.619999999999838, -0.5589338854129668 
1.629999999999837, -0.5589878496034016 
1.6399999999998358, -0.55904764114232 
1.6499999999998347, -0.559123766505875 
1.6599999999998336, -0.5592295719900383 
1.6699999999998325, -0.5593746596693243 
1.6799999999998314, -0.5595574166917284 
1.6899999999998303, -0.5597603808843141 
1.6999999999998292, -0.5599519179935524 
1.709999999999828, -0.5600946062529522 
1.719999999999827, -0.5601563047647307 
1.729999999999826, -0.5601178882438653 
1.7399999999998248, -0.5599743741707244 
1.7499999999998237, -0.5597309407947774 
1.7599999999998226, -0.5593976977358579 
1.7699999999998215, -0.5589862122170246 
1.7799999999998204, -0.5585089885439178 
1.7899999999998193, -0.5579821441517375 
1.7999999999998182, -0.5574315698504748 
1.809999999999817, -0.5569031982826044 
1.819999999999816, -0.5564775312895132 
1.8299999999998149, -0.5562852928620851 
1.8399999999998138, -0.5565114376493265 
1.8499999999998127, -0.5573563540590987 
1.8599999999998116, -0.5589102946142458 
1.8699999999998105, -0.5609510878547456 
1.8799999999998094, -0.5628593008977639 
1.8899999999998083, -0.5639435971140224 
1.8999999999998072, -0.5640075518955936 
1.909999999999806, -0.5634613242619796 
1.919999999999805, -0.5628591543158092 
1.9299999999998039, -0.5625045202903947 
1.9399999999998028, -0.5624301727317539 
1.9499999999998017, -0.5625442983657578 
1.9599999999998006, -0.5627418295325877 
1.9699999999997995, -0.5629461276208756 
1.9799999999997984, -0.5631116174569331 
1.9899999999997973, -0.5632140828807557 
1.9999999999997962, -0.5632405029538042 
2.0099999999998173, -0.5631817219530065 
2.0199999999998384, -0.5630281949128644 
2.0299999999998595, -0.5627686051389107 
2.0399999999998806, -0.5623914825669214 
2.0499999999999017, -0.5618899359832527 
2.059999999999923, -0.5612684026104444 
2.069999999999944, -0.5605480096466013 
2.079999999999965, -0.5597658961684329 
2.089999999999986, -0.5589665626070301 
2.100000000000007, -0.5581890836208964 
2.1100000000000283, -0.557457290706747 
2.1200000000000494, -0.5567775081641706 
2.1300000000000705, -0.5561432239675754 
2.1400000000000916, -0.555542814855697 
2.1500000000001127, -0.5549664618026953 
2.160000000000134, -0.5544104092332182 
2.170000000000155, -0.5538789044578454 
2.180000000000176, -0.5533852900532198 
2.190000000000197, -0.5529537161290086 
2.2000000000002182, -0.5526224270600268 
2.2100000000002393, -0.5524491248168888 
2.2200000000002604, -0.552518654185841 
2.2300000000002815, -0.5529529925038967 
2.2400000000003026, -0.553922813913189 
2.2500000000003237, -0.5556579124694535 
2.260000000000345, -0.5584490655478765 
2.270000000000366, -0.562624835239028 
2.280000000000387, -0.5684749172867507 
2.290000000000408, -0.576092312897952 
2.3000000000004293, -0.585159842664763 
2.3100000000004504, -0.5948356822414125 
2.3200000000004715, -0.6039619671286632 
2.3300000000004926, -0.6115702972320943 
2.3400000000005137, -0.6172699526109275 
2.3500000000005348, -0.621211069240472 
2.360000000000556, -0.6237926155203074 
2.370000000000577, -0.625418805749613 
2.380000000000598, -0.6263998717851018 
2.390000000000619, -0.6269443603250024 
2.4000000000006403, -0.6271813141229697 
2.4100000000006614, -0.627182990801992 
2.4200000000006825, -0.6269801002469145 
2.4300000000007036, -0.6265694466594389 
2.4400000000007247, -0.6259158987605689 
2.450000000000746, -0.6249516820589083 
2.460000000000767, -0.6235784241975393 
2.470000000000788, -0.6216814115547529 
2.480000000000809, -0.6191668274773992 
2.49000000000083, -0.6160208446364845 
2.5000000000008513, -0.6123602978644126 
2.5100000000008724, -0.6084268826068379 
2.5200000000008935, -0.6045123536068716 
2.5300000000009146, -0.6008649131377422 
2.5400000000009357, -0.5976370784823588 
2.550000000000957, -0.5948876608220892 
2.560000000000978, -0.5926119096694786 
2.570000000000999, -0.5907729956424546 
2.58000000000102, -0.5893233800603902 
2.5900000000010412, -0.5882158697038392 
2.6000000000010624, -0.5874079363759178 
2.6100000000010835, -0.586862701420509 
2.6200000000011046, -0.5865487590062614 
2.6300000000011257, -0.5864399273609614 
2.6400000000011468, -0.5865153204574639 
2.650000000001168, -0.5867597550136832 
2.660000000001189, -0.5871643116384053 
2.67000000000121, -0.587726704147829 
2.680000000001231, -0.5884508386883359 
2.6900000000012523, -0.5893445222524368 
2.7000000000012734, -0.5904139344547377 
2.7100000000012945, -0.5916538691448537 
2.7200000000013156, -0.5930348716902644 
2.7300000000013367, -0.5944926341357857 
2.740000000001358, -0.5959290033218554 
2.750000000001379, -0.5972314569435746 
2.7600000000014, -0.598305137793175 
2.770000000001421, -0.5990985349011161 
2.780000000001442, -0.5996074504658853 
2.7900000000014633, -0.5998595999680687 
2.8000000000014844, -0.5998936855245105 
2.8100000000015055, -0.5997436214800105 
2.8200000000015266, -0.5994301515856099 
2.8300000000015477, -0.5989572072026875 
2.840000000001569, -0.5983096142520574 
2.85000000000159, -0.5974494882271671 
2.860000000001611, -0.5963090232523316 
2.870000000001632, -0.5947768104764173 
2.8800000000016532, -0.5926739152014601 
2.8900000000016743, -0.5897187379673519 
2.9000000000016954, -0.5854994431525625 
2.9100000000017165, -0.579528293925667 
2.9200000000017377, -0.5715034078627119 
2.9300000000017588, -0.5617505410645605 
2.94000000000178, -0.5514020625053472 
2.950000000001801, -0.5418975102131247 
2.960000000001822, -0.534224615260926 
2.970000000001843, -0.5286324127121816 
2.9800000000018643, -0.5248557173118948 
2.9900000000018854, -0.5224473414772702 
3.0000000000019065, -0.5209827692160811 
3.0100000000019276, -0.5201327055757261 
3.0200000000019487, -0.5196660912710566 
3.03000000000197, -0.5194296316762228 
3.040000000001991, -0.5193249235536024 
3.050000000002012, -0.519289997444069 
3.060000000002033, -0.519286270414445 
3.070000000002054, -0.5192901567874697 
3.0800000000020753, -0.5192883506899364 
3.0900000000020964, -0.5192758726804263 
3.1000000000021175, -0.5192558161791739 
3.1100000000021386, -0.5192392295441445 
3.1200000000021597, -0.5192431803777131 
3.130000000002181, -0.5192856328489035 
3.140000000002202, -0.5193776959993899 
3.150000000002223, -0.5195161423617229 
3.160000000002244, -0.5196802080031577 
3.1700000000022652, -0.5198354084384532 
3.1800000000022863, -0.5199434308173982 
3.1900000000023074, -0.5199731308032909 
3.2000000000023285, -0.5199069118472144 
3.2100000000023496, -0.5197404058907715 
3.2200000000023707, -0.5194777883156129 
3.230000000002392, -0.5191264715806958 
3.240000000002413, -0.5186935638050623 
3.250000000002434, -0.5181847095489518 
3.260000000002455, -0.5176050541088361 
3.2700000000024763, -0.5169618735243608 
3.2800000000024974, -0.5162679780497406 
3.2900000000025185, -0.5155429530193454 
3.3000000000025396, -0.5148035739246176 
3.3100000000025607, -0.5140242619501769 
3.3200000000025818, -0.5130437791734396 
3.330000000002603, -0.511441253490506 
3.340000000002624, -0.5085582311951282 
3.350000000002645, -0.5039274911169039 
3.360000000002666, -0.4978934326888451 
3.3700000000026873, -0.49159057100068404 
3.3800000000027084, -0.4861518810990641 
3.3900000000027295, -0.48209856045910005 
3.4000000000027506, -0.47938027184619897 
3.4100000000027717, -0.4776915204169335 
3.420000000002793, -0.476704528024041 
3.430000000002814, -0.4761605702529178 
3.440000000002835, -0.4758810416992622 
3.450000000002856, -0.47575092778513695 
3.460000000002877, -0.47569891705310585 
3.4700000000028983, -0.4756816697449072 
3.4800000000029194, -0.4756732054668668 
3.4900000000029405, -0.47565857883510143 
3.5000000000029616, -0.4756308448034954 
3.5100000000029827, -0.4755903915096137 
3.520000000003004, -0.47554548494696014 
3.530000000003025, -0.47551232367058516 
3.540000000003046, -0.47551264096250456 
3.550000000003067, -0.47556775975775223 
3.5600000000030882, -0.47569009304111487 
3.5700000000031094, -0.4758752784400989 
3.5800000000031305, -0.47609905071876674 
3.5900000000031516, -0.47632167842311796 
3.6000000000031727, -0.4764990328117397 
3.6100000000031938, -0.4765949062388125 
3.620000000003215, -0.47658815508656477 
3.630000000003236, -0.4764722065489109 
3.640000000003257, -0.47624944290347476 
3.650000000003278, -0.47592454542274354 
3.6600000000032993, -0.4754992258874252 
3.6700000000033204, -0.4749685567664425 
3.6800000000033415, -0.4743177515430642 
3.6900000000033626, -0.4735174056113699 
3.7000000000033837, -0.4725138581723137 
3.710000000003405, -0.4712085336169875 
3.720000000003426, -0.46941650127513296 
3.730000000003447, -0.46679835791027663 
3.740000000003468, -0.4627994668794272 
3.750000000003489, -0.4567394791917095 
3.7600000000035103, -0.4482544731762566 
3.7700000000035314, -0.43791543162997765 
3.7800000000035525, -0.4272299447758445 
3.7900000000035736, -0.4177563248088102 
3.8000000000035947, -0.41030077628537276 
3.810000000003616, -0.4048876010353107 
3.820000000003637, -0.40114622839959113 
3.830000000003658, -0.39863381320768954 
3.840000000003679, -0.39697776679163915 
3.8500000000037002, -0.39590527439506173 
3.8600000000037213, -0.3952295569414644 
3.8700000000037424, -0.3948274813096423 
3.8800000000037635, -0.3946203485561397 
3.8900000000037847, -0.3945601771534716 
3.9000000000038058, -0.39462084712970263 
3.910000000003827, -0.3947929342256557 
3.920000000003848, -0.39508115149663764 
3.930000000003869, -0.3955033487470425 
3.94000000000389, -0.3960897550836548 
3.9500000000039113, -0.39688056581742626 
3.9600000000039324, -0.39791927406710875 
3.9700000000039535, -0.39923893701835156 
3.9800000000039746, -0.4008403687239235 
3.9900000000039957, -0.4026675536595284 
4.000000000004016, -0.404596095112643 
4.010000000003993, -0.4064542902281613 
4.02000000000397, -0.40807694893558566 
4.030000000003946, -0.40935943541406256 
4.040000000003923, -0.41027545975106444 
4.0500000000039, -0.41085614358587275 
4.0600000000038765, -0.4111556785985632 
4.070000000003853, -0.41122500048473365 
4.08000000000383, -0.41109826368693814 
4.090000000003807, -0.4107874992252053 
4.100000000003783, -0.4102799936397078 
4.11000000000376, -0.40953538108058796 
4.120000000003737, -0.40848264296064657 
4.130000000003713, -0.407021579645151 
4.14000000000369, -0.4050391937821013 
4.150000000003667, -0.40245375502423003 
4.1600000000036434, -0.3992838148976728 
4.17000000000362, -0.3957000992283804 
4.180000000003597, -0.39199812330216693 
4.1900000000035735, -0.3884886451948065 
4.20000000000355, -0.3853882119858728 
4.210000000003527, -0.3827829010894783 
4.220000000003504, -0.38065856173620477 
4.23000000000348, -0.37895063048200583 
4.240000000003457, -0.37758238613699474 
4.250000000003434, -0.3764855249746236 
4.26000000000341, -0.37560817140485214 
4.270000000003387, -0.37491650926630493 
4.280000000003364, -0.3743942587343748 
4.2900000000033405, -0.3740423908141155 
4.300000000003317, -0.3738803972080034 
4.310000000003294, -0.3739499963045595 
4.320000000003271, -0.37432211352990336 
4.330000000003247, -0.37510802611283317 
4.340000000003224, -0.37647514545037086 
4.350000000003201, -0.37866566198403023 
4.360000000003177, -0.3820090641646287 
4.370000000003154, -0.3869020610576591 
4.380000000003131, -0.3937006292687494 
4.390000000003107, -0.40246134748428075 
4.400000000003084, -0.4125903200319295 
4.410000000003061, -0.42275880510458624 
4.4200000000030375, -0.43147604328183 
4.430000000003014, -0.4379354484899685 
4.440000000002991, -0.4422378393071321 
4.450000000002968, -0.4449449387027432 
4.460000000002944, -0.4466199626217649 
4.470000000002921, -0.44765825909134815 
4.480000000002898, -0.44829915664171843 
4.490000000002874, -0.448679713823145 
4.500000000002851, -0.44887708895277634 
4.510000000002828, -0.44893364926242024 
4.520000000002804, -0.4488705524084214 
4.530000000002781, -0.4486953147629137 
4.540000000002758, -0.4484070808249183 
4.5500000000027345, -0.44800205025530876 
4.560000000002711, -0.4474803671568138 
4.570000000002688, -0.4468538411837433 
4.580000000002665, -0.4461512116784074 
4.590000000002641, -0.4454164860827605 
4.600000000002618, -0.4446989272035912 
4.610000000002595, -0.44403913695032216 
4.620000000002571, -0.4434585947375608 
4.630000000002548, -0.442957158832752 
4.640000000002525, -0.4425180142120796 
4.6500000000025015, -0.44211646873764615 
4.660000000002478, -0.4417285133778027 
4.670000000002455, -0.44133633774943115 
4.6800000000024315, -0.440930180169161 
4.690000000002408, -0.44050778235052 
4.700000000002385, -0.4400733780842788 
4.710000000002362, -0.43963776586678305 
4.720000000002338, -0.43922041353260266 
4.730000000002315, -0.4388542125075044 
4.740000000002292, -0.4385932921366396 
4.750000000002268, -0.4385233916901921 
4.760000000002245, -0.43877070046771144 
4.770000000002222, -0.4394949113645465 
4.7800000000021985, -0.4408316403234602 
4.790000000002175, -0.44273164024498657 
4.800000000002152, -0.4447057971675269 
4.810000000002129, -0.44574112749264333 
4.820000000002105, -0.4448452722416982 
4.830000000002082, -0.44197581720739354 
4.840000000002059, -0.4381506914534006 
4.850000000002035, -0.4345396516045679 
4.860000000002012, -0.43175432992487267 
4.870000000001989, -0.4298617992685664 
4.880000000001965, -0.4286793198314383 
4.890000000001942, -0.4279851275275942 
4.900000000001919, -0.4276001158823249 
