t, s[1].omega / s[0].omega 
0, -1.3001057297071792 
0.009999999999999995, -1.309215800461729 
0.019999999999999934, -1.3154576501374122 
0.029999999999999874, -1.3193394721091776 
0.04000000000000012, -1.321548219712287 
0.050000000000000405, -1.3226629990227208 
0.06000000000000069, -1.3230856637547332 
0.07000000000000098, -1.3230688230624315 
0.08000000000000126, -1.3227712660597772 
0.09000000000000155, -1.3223157277287647 
0.10000000000000184, -1.3218403720063086 
0.11000000000000212, -1.3215223850806161 
0.12000000000000241, -1.321537972028412 
0.130000000000002, -1.3219702231606603 
0.1400000000000009, -1.3227586831903662 
0.1499999999999998, -1.3237478636230975 
0.1599999999999987, -1.3247711024349913 
0.1699999999999976, -1.3256974973254998 
0.1799999999999965, -1.3264394132374284 
0.1899999999999954, -1.3269441201045251 
0.1999999999999943, -1.3271830323821034 
0.2099999999999932, -1.3271432521005122 
0.2199999999999921, -1.326822664552454 
0.229999999999991, -1.3262282124931466 
0.2399999999999899, -1.3253768032969497 
0.2499999999999888, -1.324298956834526 
0.2599999999999877, -1.3230452605744378 
0.2699999999999866, -1.3216940764795744 
0.2799999999999855, -1.320356654894817 
0.2899999999999844, -1.3191719118626826 
0.2999999999999833, -1.3182755216387065 
0.3099999999999822, -1.317737133663607 
0.3199999999999811, -1.317509059409916 
0.32999999999998, -1.31744835218262 
0.3399999999999789, -1.3173915731702655 
0.3499999999999778, -1.3172021979322481 
0.35999999999997667, -1.3167615595390556 
0.36999999999997557, -1.3159285633248827 
0.37999999999997447, -1.3144932001492868 
0.38999999999997337, -1.3121368565590688 
0.39999999999997227, -1.3084191137261978 
0.40999999999997117, -1.302833250071766 
0.41999999999997006, -1.2949924872064973 
0.42999999999996896, -1.284990446348649 
0.43999999999996786, -1.2738424572060751 
0.44999999999996676, -1.263573873819166 
0.45999999999996566, -1.2563353159794872 
0.46999999999996456, -1.252903199973428 
0.47999999999996346, -1.2522877419628908 
0.48999999999996235, -1.2529125313161282 
0.49999999999996125, -1.253710519235856 
0.5099999999999602, -1.2542562918399907 
0.519999999999959, -1.2544627785717428 
0.529999999999958, -1.2543364198071145 
0.5399999999999568, -1.2538626391407754 
0.5499999999999557, -1.2529554840115293 
0.5599999999999546, -1.2514244321877839 
0.5699999999999535, -1.2489616696151726 
0.5799999999999524, -1.2452405130170798 
0.5899999999999513, -1.2403632136109966 
0.5999999999999502, -1.2358566087631488 
0.6099999999999491, -1.235352315262299 
0.619999999999948, -1.242515403366377 
0.6299999999999469, -1.256725393052251 
0.6399999999999458, -1.2728435241436966 
0.6499999999999447, -1.2860924730394374 
0.6599999999999436, -1.2949722709445664 
0.6699999999999425, -1.3002152423023805 
0.6799999999999414, -1.3030570407944337 
0.6899999999999403, -1.3044635333334078 
0.6999999999999392, -1.3050309813089067 
0.7099999999999381, -1.3050893113817237 
0.719999999999937, -1.3048138459239533 
0.7299999999999359, -1.3043133350937155 
0.7399999999999348, -1.303712358560319 
0.7499999999999337, -1.303237612684364 
0.7599999999999326, -1.3032543484115167 
0.7699999999999315, -1.3041390076108699 
0.7799999999999304, -1.3060120299664155 
0.7899999999999293, -1.3086178879491945 
0.7999999999999282, -1.3115047646289728 
0.8099999999999271, -1.3142720712409353 
0.819999999999926, -1.316672064885902 
0.8299999999999249, -1.3185903839165438 
0.8399999999999238, -1.3199974415730962 
0.8499999999999227, -1.3209125776843655 
0.8599999999999216, -1.3213833698303752 
0.8699999999999205, -1.3214725615713996 
0.8799999999999194, -1.3212486565631985 
0.8899999999999183, -1.3207815023252027 
0.8999999999999172, -1.3201448523722368 
0.9099999999999161, -1.3194227482899623 
0.919999999999915, -1.318710043871792 
0.9299999999999139, -1.3180994222215099 
0.9399999999999128, -1.3176608808131713 
0.9499999999999117, -1.3174255134972106 
0.9599999999999106, -1.3173753293140358 
0.9699999999999095, -1.3174423164855382 
0.9799999999999084, -1.3175265284868907 
0.9899999999999073, -1.3175239558850418 
0.9999999999999062, -1.3173407991652213 
1.0099999999999052, -1.3168883227929058 
1.019999999999904, -1.316071244090379 
1.029999999999903, -1.3147830244590155 
1.039999999999902, -1.312913569553059 
1.0499999999999008, -1.310368321487649 
1.0599999999998997, -1.3070965181335095 
1.0699999999998986, -1.3031322097446576 
1.0799999999998975, -1.298656612955021 
1.0899999999998964, -1.2940699336839758 
1.0999999999998953, -1.2899898647602053 
1.1099999999998942, -1.2870387505871799 
1.119999999999893, -1.2854632689538794 
1.129999999999892, -1.284976002112024 
1.1399999999998909, -1.2850345440154416 
1.1499999999998898, -1.285198566334422 
1.1599999999998887, -1.2852330025636627 
1.1699999999998876, -1.2850280031365373 
1.1799999999998865, -1.2844941777074004 
1.1899999999998854, -1.283479866848078 
1.1999999999998843, -1.281690290566368 
1.2099999999998832, -1.278586181837816 
1.219999999999882, -1.2732899191619818 
1.229999999999881, -1.264684469824942 
1.2399999999998799, -1.2521652993095302 
1.2499999999998788, -1.237328066103941 
1.2599999999998777, -1.224942263480575 
1.2699999999998766, -1.2199284137863233 
1.2799999999998755, -1.222478950722552 
1.2899999999998744, -1.2285254637045835 
1.2999999999998733, -1.2342945781506311 
1.3099999999998722, -1.2383604978803724 
1.319999999999871, -1.2408018522529283 
1.32999999999987, -1.2420977329683178 
1.3399999999998689, -1.242656290474687 
1.3499999999998678, -1.2427292267001173 
1.3599999999998666, -1.2424417193797808 
1.3699999999998655, -1.2418367578547875 
1.3799999999998644, -1.2409256686140346 
1.3899999999998633, -1.2397811052240297 
1.3999999999998622, -1.2387265149127384 
1.4099999999998611, -1.2385887755054417 
1.41999999999986, -1.2406772812338145 
1.429999999999859, -1.2460236956843953 
1.4399999999998578, -1.2543335356429526 
1.4499999999998567, -1.2639839853118822 
1.4599999999998556, -1.2731268804905547 
1.4699999999998545, -1.2805985118782466 
1.4799999999998534, -1.2860535110904858 
1.4899999999998523, -1.2896788851032326 
1.4999999999998512, -1.2918778913162323 
1.5099999999998501, -1.2930635987495858 
1.519999999999849, -1.2935660603720467 
1.529999999999848, -1.2936163364371889 
1.5399999999998468, -1.2933695882968776 
1.5499999999998457, -1.2929434468437282 
1.5599999999998446, -1.2924585768031513 
1.5699999999998435, -1.2920637096786842 
1.5799999999998424, -1.2919171028924452 
1.5899999999998413, -1.2921207310381366 
1.5999999999998402, -1.292665313715567 
1.6099999999998391, -1.2934454151966894 
1.619999999999838, -1.2943206144325186 
1.629999999999837, -1.2951637109719205 
1.6399999999998358, -1.2958785879761068 
1.6499999999998347, -1.2964003154677797 
1.6599999999998336, -1.2966888093906679 
1.6699999999998325, -1.2967216584664696 
1.6799999999998314, -1.2964889007633038 
1.6899999999998303, -1.2959904633540489 
1.6999999999998292, -1.295235994159948 
1.709999999999828, -1.2942470141045033 
1.719999999999827, -1.293061612779518 
1.729999999999826, -1.291741100782111 
1.7399999999998248, -1.2903760470374634 
1.7499999999998237, -1.2890867674719275 
1.7599999999998226, -1.2880089188654553 
1.7699999999998215, -1.2872519548757935 
1.7799999999998204, -1.286840420264083 
1.7899999999998193, -1.2866898523271868 
1.7999999999998182, -1.286650657435243 
1.809999999999817, -1.2865739342038331 
1.819999999999816, -1.2863378129077856 
1.8299999999998149, -1.2858290245261181 
1.8399999999998138, -1.2849060574957318 
1.8499999999998127, -1.2833636647062856 
1.8599999999998116, -1.2809117452180576 
1.8699999999998105, -1.2771880271673948 
1.8799999999998094, -1.2718330908834112 
1.8899999999998083, -1.2646532393880896 
1.8999999999998072, -1.25586932078281 
1.909999999999806, -1.2463666668505466 
1.919999999999805, -1.2376827280532985 
1.9299999999998039, -1.2313925172875453 
1.9399999999998028, -1.2281195517701622 
1.9499999999998017, -1.227213394827467 
1.9599999999998006, -1.2274878426595728 
1.9699999999997995, -1.2280417313728305 
1.9799999999997984, -1.228452869062347 
1.9899999999997973, -1.228593164788842 
1.9999999999997962, -1.228433622578884 
2.0099999999998173, -1.2279350825415793 
2.0199999999998384, -1.2269887511234123 
2.0299999999998595, -1.2253648234388712 
2.0399999999998806, -1.2226566630562958 
2.0499999999999017, -1.2182691217108599 
2.059999999999923, -1.2116399369567445 
2.069999999999944, -1.2030393941201207 
2.079999999999965, -1.1948573272398386 
2.089999999999986, -1.1915284833795954 
2.100000000000007, -1.1960091343014942 
2.1100000000000283, -1.2062896707150312 
2.1200000000000494, -1.2174778515973643 
2.1300000000000705, -1.2262395863490985 
2.1400000000000916, -1.2319253367908196 
2.1500000000001127, -1.2352181506348985 
2.160000000000134, -1.2369629946854623 
2.170000000000155, -1.2377686012269795 
2.180000000000176, -1.2379950770465018 
2.190000000000197, -1.2378310411266014 
2.2000000000002182, -1.2373647970363835 
2.2100000000002393, -1.2366466762979698 
2.2200000000002604, -1.235772728795924 
2.2300000000002815, -1.2350213499996165 
2.2400000000003026, -1.2350000682319169 
2.2500000000003237, -1.2365787820237508 
2.260000000000345, -1.2403859678706008 
2.270000000000366, -1.2462191691571824 
2.280000000000387, -1.2530899895417005 
2.290000000000408, -1.2598468179190527 
2.3000000000004293, -1.2656804709922733 
2.3100000000004504, -1.2702320901139985 
2.3200000000004715, -1.2734813367521167 
2.3300000000004926, -1.2755989439742432 
2.3400000000005137, -1.2768280471397664 
2.3500000000005348, -1.277405757604971 
2.360000000000556, -1.2775249741038006 
2.370000000000577, -1.2773295239046583 
2.380000000000598, -1.2769312725905437 
2.390000000000619, -1.2764373024394469 
2.4000000000006403, -1.2759716756536323 
2.4100000000006614, -1.2756697673282535 
2.4200000000006825, -1.27563574061548 
2.4300000000007036, -1.2758954455368055 
2.4400000000007247, -1.276391868599179 
2.450000000000746, -1.2770215583614744 
2.460000000000767, -1.2776736241548163 
2.470000000000788, -1.2782516833808697 
2.480000000000809, -1.2786818574842633 
2.49000000000083, -1.2789124650777361 
2.5000000000008513, -1.2789097098811353 
2.5100000000008724, -1.278653236705925 
2.5200000000008935, -1.27813346026398 
2.5300000000009146, -1.2773508185750968 
2.5400000000009357, -1.2763170119785368 
2.550000000000957, -1.275058798201717 
2.560000000000978, -1.2736246362204955 
2.570000000000999, -1.2720929382620616 
2.58000000000102, -1.270578030816021 
2.5900000000010412, -1.2692250172444104 
2.6000000000010624, -1.2681783142122003 
2.6100000000010835, -1.2675192813187257 
2.6200000000011046, -1.2672130142439324 
2.6300000000011257, -1.2671233315736665 
2.6400000000011468, -1.267084475270392 
2.650000000001168, -1.266955942335747 
2.660000000001189, -1.2666242531855656 
2.67000000000121, -1.2659709391115521 
2.680000000001231, -1.2648329862146128 
2.6900000000012523, -1.2629696833662156 
2.7000000000012734, -1.2600496023700405 
2.7100000000012945, -1.255682785186172 
2.7200000000013156, -1.2495302784048048 
2.7300000000013367, -1.2415089570304052 
2.740000000001358, -1.2320600095142864 
2.750000000001379, -1.2223354912193718 
2.7600000000014, -1.2139946461359736 
2.770000000001421, -1.2084067234754905 
2.780000000001442, -1.2057891754176655 
2.7900000000014633, -1.205247330005099 
2.8000000000014844, -1.205627518716901 
2.8100000000015055, -1.2061612311101304 
2.8200000000015266, -1.2065172587883055 
2.8300000000015477, -1.2066013411948706 
2.840000000001569, -1.2063876257083792 
2.85000000000159, -1.2058276261616363 
2.860000000001611, -1.2047961466835893 
2.870000000001632, -1.2030377588717063 
2.8800000000016532, -1.2001039732912067 
2.8900000000016743, -1.1953284234053365 
2.9000000000016954, -1.18802146604099 
2.9100000000017165, -1.1782192760192882 
2.9200000000017377, -1.167951531063184 
2.9300000000017588, -1.1614175898478358 
2.94000000000178, -1.1620207069171973 
2.950000000001801, -1.1688551065986283 
2.960000000001822, -1.1778052872343359 
2.970000000001843, -1.1854671421300287 
2.9800000000018643, -1.1907328913708028 
2.9900000000018854, -1.1939125688242211 
3.0000000000019065, -1.1956578123782042 
3.0100000000019276, -1.1964980386768893 
3.0200000000019487, -1.1967649592998364 
3.03000000000197, -1.1966358921189835 
3.040000000001991, -1.196186820862126 
3.050000000002012, -1.195437846557689 
3.060000000002033, -1.1944128348861711 
3.070000000002054, -1.1932585767628985 
3.0800000000020753, -1.1924583893394085 
3.0900000000020964, -1.193030609177455 
3.1000000000021175, -1.1963151812915138 
3.1100000000021386, -1.2030739793679035 
3.1200000000021597, -1.212634078561682 
3.130000000002181, -1.2231734520548825 
3.140000000002202, -1.2328444587732412 
3.150000000002223, -1.2405650075407244 
3.160000000002244, -1.2460869435090622 
3.1700000000022652, -1.2496863322261278 
3.1800000000022863, -1.251830725798329 
3.1900000000023074, -1.2529671625588352 
3.2000000000023285, -1.2534365944981434 
3.2100000000023496, -1.2534689798484382 
3.2200000000023707, -1.2532143179549695 
3.230000000002392, -1.2527853900967636 
3.240000000002413, -1.252302423053547 
3.250000000002434, -1.2519253186176127 
3.260000000002455, -1.2518422833123144 
3.2700000000024763, -1.2521968877176053 
3.2800000000024974, -1.2530057507182286 
3.2900000000025185, -1.2541525848850639 
3.3000000000025396, -1.255459376617209 
3.3100000000025607, -1.2567595443093034 
3.3200000000025818, -1.2579299734091722 
3.330000000002603, -1.2588917320792787 
3.340000000002624, -1.2595997231306357 
3.350000000002645, -1.2600321657330629 
3.360000000002666, -1.260183550505398 
3.3700000000026873, -1.2600611694883737 
3.3800000000027084, -1.259683826170116 
3.3900000000027295, -1.2590816898464792 
3.4000000000027506, -1.2582975774756284 
3.4100000000027717, -1.2573898448195244 
3.420000000002793, -1.2564343303965706 
3.430000000002814, -1.2555205444179185 
3.440000000002835, -1.2547397125317996 
3.450000000002856, -1.2541658985629922 
3.460000000002877, -1.2538319787270404 
3.4700000000028983, -1.2537097611538837 
3.4800000000029194, -1.2537140190176108 
3.4900000000029405, -1.2537333996744695 
3.5000000000029616, -1.2536613456457881 
3.5100000000029827, -1.2534042235955551 
3.520000000003004, -1.2528706417824658 
3.530000000003025, -1.25195832341068 
3.540000000003046, -1.2505510066802732 
3.550000000003067, -1.2485304160249044 
3.5600000000030882, -1.2458014756543858 
3.5700000000031094, -1.2423248825747248 
3.5800000000031305, -1.2381543224460585 
3.5900000000031516, -1.233481601078108 
3.6000000000031727, -1.2286821052125212 
3.6100000000031938, -1.2243081148793646 
3.620000000003215, -1.220937729712349 
3.630000000003236, -1.2188841709324185 
3.640000000003257, -1.218007444113679 
3.650000000003278, -1.2178556111713266 
3.6600000000032993, -1.2179726791782814 
3.6700000000033204, -1.2180664841901234 
3.6800000000033415, -1.2179901263190642 
3.6900000000033626, -1.2176569055497803 
3.7000000000033837, -1.2169631565134902 
3.710000000003405, -1.215722456336099 
3.720000000003426, -1.213591476286466 
3.730000000003447, -1.2099791055106723 
3.740000000003468, -1.203980935919167 
3.750000000003489, -1.194501415385266 
3.7600000000035103, -1.1808677758287465 
3.7700000000035314, -1.1640257243753198 
3.7800000000035525, -1.1473166669716097 
3.7900000000035736, -1.1350191278491757 
3.8000000000035947, -1.1292008187802454 
3.810000000003616, -1.128549409381132 
3.820000000003637, -1.1303231002450627 
3.830000000003658, -1.1324835911997788 
3.840000000003679, -1.1341709016808037 
3.8500000000037002, -1.1352352106372146 
3.8600000000037213, -1.1357724735693657 
3.8700000000037424, -1.1359004421563248 
3.8800000000037635, -1.1356863013971723 
3.8900000000037847, -1.1351290809062464 
3.9000000000038058, -1.134151067585726 
3.910000000003827, -1.1325876323096182 
3.920000000003848, -1.130195253351406 
3.930000000003869, -1.126750196917888 
3.94000000000389, -1.1223843015947612 
3.9500000000039113, -1.1182443220470633 
3.9600000000039324, -1.1169758969319696 
3.9700000000039535, -1.121664354040021 
3.9800000000039746, -1.1329891748602798 
3.9900000000039957, -1.1478220411764557 
4.000000000004016, -1.161723188366492 
4.010000000003993, -1.172136725789557 
4.02000000000397, -1.1788652420572678 
4.030000000003946, -1.1828142826306094 
4.040000000003923, -1.1849669119699178 
4.0500000000039, -1.1860291553911044 
4.0600000000038765, -1.1864278814847153 
4.070000000003853, -1.1863957870232116 
4.08000000000383, -1.1860480883690148 
4.090000000003807, -1.1854414766820693 
4.100000000003783, -1.184636881112741 
4.11000000000376, -1.1837975566126375 
4.120000000003737, -1.1833300278991223 
4.130000000003713, -1.183967062823892 
4.14000000000369, -1.186556560808077 
4.150000000003667, -1.191500678859956 
4.1600000000036434, -1.198338165474733 
4.17000000000362, -1.2059681534288662 
4.180000000003597, -1.213249389307624 
4.1900000000035735, -1.2194129276180807 
4.20000000000355, -1.2241395526943881 
4.210000000003527, -1.2274539589876297 
4.220000000003504, -1.2295749232479194 
4.23000000000348, -1.2307846986825088 
4.240000000003457, -1.231343469248056 
4.250000000003434, -1.2314530717539862 
4.26000000000341, -1.231258045917765 
4.270000000003387, -1.2308680907541512 
4.280000000003364, -1.2303897423360237 
4.2900000000033405, -1.2299538748768133 
4.300000000003317, -1.2297162100921157 
4.310000000003294, -1.229812583316073 
4.320000000003271, -1.2302938959455236 
4.330000000003247, -1.2311023578713267 
4.340000000003224, -1.232109845953248 
4.350000000003201, -1.2331752051207978 
4.360000000003177, -1.2341798481671158 
4.370000000003154, -1.2350381466659335 
4.380000000003131, -1.235694536730661 
4.390000000003107, -1.2361164614814326 
4.400000000003084, -1.2362878801130477 
4.410000000003061, -1.2362052665424113 
4.4200000000030375, -1.2358760865157012 
4.430000000003014, -1.2353188862647113 
4.440000000002991, -1.2345645015931068 
4.450000000002968, -1.2336585182394972 
4.460000000002944, -1.232664150877992 
4.470000000002921, -1.2316622365293273 
4.480000000002898, -1.230744452374633 
4.490000000002874, -1.2299985707442387 
4.500000000002851, -1.2294864669609544 
4.510000000002828, -1.2292190733713948 
4.520000000002804, -1.2291440525478285 
4.530000000002781, -1.2291623925534074 
4.540000000002758, -1.2291629690055734 
4.5500000000027345, -1.2290459170304493 
4.560000000002711, -1.2287228176926137 
4.570000000002688, -1.2281044261113498 
4.580000000002665, -1.2270912252877608 
4.590000000002641, -1.2255760113884473 
4.600000000002618, -1.2234603068055845 
4.610000000002595, -1.220679781587553 
4.620000000002571, -1.217231734033684 
4.630000000002548, -1.2132031786900472 
4.640000000002525, -1.2088032468967171 
4.6500000000025015, -1.2043909985358066 
4.660000000002478, -1.2004525531263175 
4.670000000002455, -1.197460932325516 
4.6800000000024315, -1.1956431870179594 
4.690000000002408, -1.1948512170104235 
4.700000000002385, -1.1946908808566357 
4.710000000002362, -1.1947688967663432 
4.720000000002338, -1.1948262470207376 
4.730000000002315, -1.1947240565672852 
4.740000000002292, -1.1943730814973892 
4.750000000002268, -1.1936660959958116 
4.760000000002245, -1.1924180963470987 
4.770000000002222, -1.1903008701411601 
4.7800000000021985, -1.1867700869933078 
4.790000000002175, -1.1810267640861858 
4.800000000002152, -1.1721411372089956 
4.810000000002129, -1.1595382910055687 
4.820000000002105, -1.1438635175838323 
4.830000000002082, -1.1275816344746201 
4.840000000002059, -1.1141705301238631 
4.850000000002035, -1.1059661221331276 
4.860000000002012, -1.1027778755774682 
4.870000000001989, -1.1027067594076037 
4.880000000001965, -1.1038324738087208 
4.890000000001942, -1.1050412060879409 
4.900000000001919, -1.1059217557885637 
4.9100000000018955, -1.10641039810581 
4.920000000001872, -1.1065472653199933 
4.930000000001849, -1.1063664109696254 
