t, s[1].omega / s[0].omega 
0, -0.6099977246224682 
0.009999999999999995, -0.6097795470414512 
0.019999999999999934, -0.6095720746263399 
0.029999999999999874, -0.6093555318503435 
0.04000000000000012, -0.609106839980792 
0.050000000000000405, -0.6088084346813464 
0.06000000000000069, -0.6084532907895193 
0.07000000000000098, -0.6080456524219436 
0.08000000000000126, -0.6075999257218265 
0.09000000000000155, -0.6071407614602004 
0.10000000000000184, -0.6067063698572396 
0.11000000000000212, -0.6063561393928275 
0.12000000000000241, -0.6061832525800293 
0.130000000000002, -0.6063328546732116 
0.1400000000000009, -0.6070257092301986 
0.1499999999999998, -0.6085850782821931 
0.1599999999999987, -0.6114587653851309 
0.1699999999999976, -0.6162153174846658 
0.1799999999999965, -0.6234704124577799 
0.1899999999999954, -0.633677427019008 
0.1999999999999943, -0.646751645747931 
0.2099999999999932, -0.6616906077067808 
0.2199999999999921, -0.6766319284598958 
0.229999999999991, -0.6896272929302565 
0.2399999999999899, -0.699580375554671 
0.2499999999999888, -0.7064841979883468 
0.2599999999999877, -0.710962212503577 
0.2699999999999866, -0.7137439710899732 
0.2799999999999855, -0.7154111072509596 
0.2899999999999844, -0.7163563884746899 
0.2999999999999833, -0.7168221014176941 
0.3099999999999822, -0.7169459265390534 
0.3199999999999811, -0.7167929763944805 
0.32999999999998, -0.7163721515810992 
0.3399999999999789, -0.7156390060953401 
0.3499999999999778, -0.7144870662087129 
0.35999999999997667, -0.7127305640405501 
0.36999999999997557, -0.7100885386114567 
0.37999999999997447, -0.7061978184686498 
0.38999999999997337, -0.7007036280163466 
0.39999999999997227, -0.6934582100661946 
0.40999999999997117, -0.6847425473018751 
0.41999999999997006, -0.6752974610000928 
0.42999999999996896, -0.6660586526464561 
0.43999999999996786, -0.6577946622858978 
0.44999999999996676, -0.6509179012378268 
0.45999999999996566, -0.6455130488634081 
0.46999999999996456, -0.6414603138123718 
0.47999999999996346, -0.6385487201635395 
0.48999999999996235, -0.6365470504605157 
0.49999999999996125, -0.6352395869598744 
0.5099999999999602, -0.634441042670729 
0.519999999999959, -0.6340007778874363 
0.529999999999958, -0.6338016058748677 
0.5399999999999568, -0.6337558151091167 
0.5499999999999557, -0.633799980993739 
0.5599999999999546, -0.6338897859843848 
0.5699999999999535, -0.6339958237155133 
0.5799999999999524, -0.6341009399684568 
0.5899999999999513, -0.6341989034397539 
0.5999999999999502, -0.6342931633650977 
0.6099999999999491, -0.6343937485976423 
0.619999999999948, -0.6345110407503645 
0.6299999999999469, -0.6346475439427609 
0.6399999999999458, -0.6347914263184898 
0.6499999999999447, -0.6349161325322401 
0.6599999999999436, -0.634987498115722 
0.6699999999999425, -0.6349749306711108 
0.6799999999999414, -0.6348603576765032 
0.6899999999999403, -0.6346408405942168 
0.6999999999999392, -0.6343258865637014 
0.7099999999999381, -0.6339336350414515 
0.719999999999937, -0.6334896847511563 
0.7299999999999359, -0.6330305701783285 
0.7399999999999348, -0.6326129112963526 
0.7499999999999337, -0.6323293011654376 
0.7599999999999326, -0.63233223178025 
0.7699999999999315, -0.6328666037879976 
0.7799999999999304, -0.6343078649228301 
0.7899999999999293, -0.6371934293174945 
0.7999999999999282, -0.6422149335423267 
0.8099999999999271, -0.6501066640422517 
0.819999999999926, -0.6613460406389653 
0.8299999999999249, -0.675667617883881 
0.8399999999999238, -0.6916878668405076 
0.8499999999999227, -0.7072003468261128 
0.8599999999999216, -0.7202238469731675 
0.8699999999999205, -0.7299016160422346 
0.8799999999999194, -0.736476649082226 
0.8899999999999183, -0.7406914780851759 
0.8999999999999172, -0.7432930717351618 
0.9099999999999161, -0.7448431591230583 
0.919999999999915, -0.7457113506349484 
0.9299999999999139, -0.7461225795600391 
0.9399999999999128, -0.7462024639803925 
0.9499999999999117, -0.7460067767866079 
0.9599999999999106, -0.7455351682567524 
0.9699999999999095, -0.7447313031265521 
0.9799999999999084, -0.7434708462474737 
0.9899999999999073, -0.7415399796885943 
0.9999999999999062, -0.7386154163881394 
1.0099999999999052, -0.7342777707812197 
1.019999999999904, -0.7281159948396545 
1.029999999999903, -0.7199600940420509 
1.039999999999902, -0.7101426916911857 
1.0499999999999008, -0.6995354212430928 
1.0599999999998997, -0.6892342545544022 
1.0699999999998986, -0.6801304847152865 
1.0799999999998975, -0.6726880097499508 
1.0899999999998964, -0.6669788236816899 
1.0999999999998953, -0.6628315599485005 
1.1099999999998942, -0.6599690913038676 
1.119999999999893, -0.6580962760330724 
1.129999999999892, -0.6569451096680596 
1.1399999999998909, -0.6562932897594758 
1.1499999999998898, -0.6559679045632693 
1.1599999999998887, -0.655841154210332 
1.1699999999998876, -0.655822293186825 
1.1799999999998865, -0.6558486227771408 
1.1899999999998854, -0.6558775069598881 
1.1999999999998843, -0.6558806738924547 
1.2099999999998832, -0.6558413263816638 
1.219999999999882, -0.6557535834769336 
1.229999999999881, -0.6556224695667223 
1.2399999999998799, -0.6554618126975097 
1.2499999999998788, -0.6552883877890884 
1.2599999999998777, -0.6551136574830981 
1.2699999999998766, -0.6549372704042188 
1.2799999999998755, -0.6547463122628046 
1.2899999999998744, -0.6545209420242596 
1.2999999999998733, -0.6542430522664912 
1.3099999999998722, -0.6539032004161329 
1.319999999999871, -0.65350333229657 
1.32999999999987, -0.6530564172758452 
1.3399999999998689, -0.6525859457687442 
1.3499999999998678, -0.6521277497535004 
1.3599999999998666, -0.6517352616662714 
1.3699999999998655, -0.6514882697685374 
1.3799999999998644, -0.6515045145489401 
1.3899999999998633, -0.6519526854624194 
1.3999999999998622, -0.6530641505787125 
1.4099999999998611, -0.6551386832140768 
1.41999999999986, -0.6585357077651219 
1.429999999999859, -0.6636360409993589 
1.4399999999998578, -0.6707510740899992 
1.4499999999998567, -0.679958895835159 
1.4599999999998556, -0.6908919123074462 
1.4699999999998545, -0.702612270771125 
1.4799999999998534, -0.7137937142001884 
1.4899999999998523, -0.7232411973130559 
1.4999999999998512, -0.7303770385660766 
1.5099999999998501, -0.7352956089899194 
1.519999999999849, -0.7384604060314168 
1.529999999999848, -0.7403868729161255 
1.5399999999998468, -0.7414854782399338 
1.5499999999998457, -0.742033556666645 
1.5599999999998446, -0.742198530199003 
1.5699999999998435, -0.742066921486073 
1.5799999999998424, -0.7416633588937287 
1.5899999999998413, -0.7409563902873233 
1.5999999999998402, -0.7398504915608494 
1.6099999999998391, -0.7381629823306346 
1.619999999999838, -0.7355855891956794 
1.629999999999837, -0.7316407430726601 
1.6399999999998358, -0.7256758515585189 
1.6499999999998347, -0.716997970232101 
1.6599999999998336, -0.7052610981960629 
1.6699999999998325, -0.6909910906571183 
1.6799999999998314, -0.6757301419544915 
1.6899999999998303, -0.6614177350393253 
1.6999999999998292, -0.64948779822669 
1.709999999999828, -0.6404631091522734 
1.719999999999827, -0.6341451123665609 
1.729999999999826, -0.6299969924032393 
1.7399999999998248, -0.6274286498122245 
1.7499999999998237, -0.6259332430360436 
1.7599999999998226, -0.6251254568749659 
1.7699999999998215, -0.6247334395005448 
1.7799999999998204, -0.6245749897726204 
1.7899999999998193, -0.6245322185797016 
1.7999999999998182, -0.6245301707592223 
1.809999999999817, -0.6245209116950778 
1.819999999999816, -0.624473036597798 
1.8299999999998149, -0.6243661143509631 
1.8399999999998138, -0.6241893278081716 
1.8499999999998127, -0.6239428246094936 
1.8599999999998116, -0.6236389971810392 
1.8699999999998105, -0.6233003124719106 
1.8799999999998094, -0.6229521767257201 
1.8899999999998083, -0.6226132673972206 
1.8999999999998072, -0.6222884685334193 
1.909999999999806, -0.6219683655124133 
1.919999999999805, -0.6216352330044107 
1.9299999999998039, -0.6212717717482052 
1.9399999999998028, -0.6208680769782807 
1.9499999999998017, -0.6204247003719134 
1.9599999999998006, -0.6199528952444655 
1.9699999999997995, -0.6194746959972808 
1.9799999999997984, -0.6190250720214883 
1.9899999999997973, -0.6186573020770667 
1.9999999999997962, -0.6184519060068567 
2.0099999999998173, -0.6185289938213308 
2.0199999999998384, -0.6190633334083314 
2.0299999999998595, -0.620300254316374 
2.0399999999998806, -0.6225678470808634 
2.0499999999999017, -0.6262752019022302 
2.059999999999923, -0.6318756604827958 
2.069999999999944, -0.6397599263291645 
2.079999999999965, -0.6500448921068183 
2.089999999999986, -0.6622906378782832 
2.100000000000007, -0.6753452725903974 
2.1100000000000283, -0.6876198881586296 
2.1200000000000494, -0.697778645442933 
2.1300000000000705, -0.7052875528690048 
2.1400000000000916, -0.7103736522633701 
2.1500000000001127, -0.7136130270446344 
2.160000000000134, -0.7155816125053519 
2.170000000000155, -0.7167138610732489 
2.180000000000176, -0.717294502864211 
2.190000000000197, -0.7174928631369011 
2.2000000000002182, -0.7173962911275195 
2.2100000000002393, -0.7170306392894581 
2.2200000000002604, -0.7163667940668558 
2.2300000000002815, -0.7153139762515542 
2.2400000000003026, -0.7137003585854741 
2.2500000000003237, -0.7112447983458545 
2.260000000000345, -0.7075373288492186 
2.270000000000366, -0.7020768905251233 
2.280000000000387, -0.6944427201109241 
2.290000000000408, -0.6846145751291393 
2.3000000000004293, -0.6732400377468856 
2.3100000000004504, -0.6615169439961618 
2.3200000000004715, -0.6506859954472739 
2.3300000000004926, -0.6415620960916766 
2.3400000000005137, -0.6344187961589526 
2.3500000000005348, -0.6291402955439546 
2.360000000000556, -0.6254244149678716 
2.370000000000577, -0.6229247151490457 
2.380000000000598, -0.6213227216636849 
2.390000000000619, -0.6203549415167708 
2.4000000000006403, -0.619816870067252 
2.4100000000006614, -0.6195569265092736 
2.4200000000006825, -0.6194667711232199 
2.4300000000007036, -0.6194711659334009 
2.4400000000007247, -0.6195190383300313 
2.450000000000746, -0.6195766708622099 
2.460000000000767, -0.6196234399642649 
2.470000000000788, -0.6196499225386548 
2.480000000000809, -0.6196572688665947 
2.49000000000083, -0.6196557572806882 
2.5000000000008513, -0.6196603906100744 
2.5100000000008724, -0.6196832075552421 
2.5200000000008935, -0.6197249846766685 
2.5300000000009146, -0.6197708437554956 
2.5400000000009357, -0.6197930300960868 
2.550000000000957, -0.6197600492411243 
2.560000000000978, -0.6196471769172811 
2.570000000000999, -0.6194427901980656 
2.58000000000102, -0.6191487347528233 
2.5900000000010412, -0.6187773110960291 
2.6000000000010624, -0.6183488705936078 
2.6100000000010835, -0.6178928569596942 
2.6200000000011046, -0.6174537424592376 
2.6300000000011257, -0.6171028916737656 
2.6400000000011468, -0.6169576545046312 
2.650000000001168, -0.6172090243312229 
2.660000000001189, -0.6181576614173678 
2.67000000000121, -0.62025256365082 
2.680000000001231, -0.6241126555285361 
2.6900000000012523, -0.6304834716449459 
2.7000000000012734, -0.6400445656993126 
2.7100000000012945, -0.6529942087435625 
2.7200000000013156, -0.6685304990802415 
2.7300000000013367, -0.684727716483292 
2.740000000001358, -0.6992915947965316 
2.750000000001379, -0.7107264358174181 
2.7600000000014, -0.7188021126936256 
2.770000000001421, -0.7241147474583786 
2.780000000001442, -0.7274614291750304 
2.7900000000014633, -0.7295058039876198 
2.8000000000014844, -0.7307068378495777 
2.8100000000015055, -0.7313539197360622 
2.8200000000015266, -0.7316176214263403 
2.8300000000015477, -0.7315875338464977 
2.840000000001569, -0.7312937493220398 
2.85000000000159, -0.7307143719754359 
2.860000000001611, -0.7297713481383439 
2.870000000001632, -0.7283169477815141 
2.8800000000016532, -0.7261174112442325 
2.8900000000016743, -0.7228529904242104 
2.9000000000016954, -0.7181736206155442 
2.9100000000017165, -0.7118501064856337 
2.9200000000017377, -0.7039869461409382 
2.9300000000017588, -0.6951319143781599 
2.94000000000178, -0.6861250043194523 
2.950000000001801, -0.6777725538541873 
2.960000000001822, -0.6706010453637515 
2.970000000001843, -0.6648130490474112 
2.9800000000018643, -0.6603741679812147 
2.9900000000018854, -0.6571221512594753 
3.0000000000019065, -0.6548464219849992 
3.0100000000019276, -0.6533337195039037 
3.0200000000019487, -0.6523908712312014 
3.03000000000197, -0.6518546227070268 
3.040000000001991, -0.6515942152557106 
3.050000000002012, -0.6515096267254237 
3.060000000002033, -0.6515273056572157 
3.070000000002054, -0.6515949454427267 
3.0800000000020753, -0.6516766706119119 
3.0900000000020964, -0.6517496328714472 
3.1000000000021175, -0.6518023008629801 
3.1100000000021386, -0.6518336411871719 
3.1200000000021597, -0.6518513212110492 
3.130000000002181, -0.6518670569947304 
3.140000000002202, -0.6518891215744586 
3.150000000002223, -0.6519149334349107 
3.160000000002244, -0.6519280806177731 
3.1700000000022652, -0.6519023125431723 
3.1800000000022863, -0.6518107384634814 
3.1900000000023074, -0.6516350063574163 
3.2000000000023285, -0.6513698624635831 
3.2100000000023496, -0.6510226253567682 
3.2200000000023707, -0.6506106877718477 
3.230000000002392, -0.6501606787203721 
3.240000000002413, -0.6497115134000684 
3.250000000002434, -0.6493222544233552 
3.260000000002455, -0.6490851290764085 
3.2700000000024763, -0.6491436466286505 
3.2800000000024974, -0.6497147018309557 
3.2900000000025185, -0.6511109770923371 
3.3000000000025396, -0.653754682090836 
3.3100000000025607, -0.658163890256289 
3.3200000000025818, -0.6648776740373593 
3.330000000002603, -0.6742749664189958 
3.340000000002624, -0.6862728056490714 
3.350000000002645, -0.7000260961507272 
3.360000000002666, -0.7139492791961007 
3.3700000000026873, -0.7262977017911807 
3.3800000000027084, -0.7359631204038237 
3.3900000000027295, -0.7427880818870155 
3.4000000000027506, -0.7472584765745736 
3.4100000000027717, -0.7500362634287422 
3.420000000002793, -0.7516849397055616 
3.430000000002814, -0.7525983632331446 
3.440000000002835, -0.7530231594867586 
3.450000000002856, -0.7530993636191285 
3.460000000002877, -0.7528913952328347 
3.4700000000028983, -0.7524039329659883 
3.4800000000029194, -0.7515831295334692 
3.4900000000029405, -0.750303375969702 
3.5000000000029616, -0.7483393580750596 
3.5100000000029827, -0.7453279395149867 
3.520000000003004, -0.7407439415723674 
3.530000000003025, -0.7339567749486313 
3.540000000003046, -0.7244710187261139 
3.550000000003067, -0.7123583960143831 
3.5600000000030882, -0.6985799164307711 
3.5700000000031094, -0.6847527853669744 
3.5800000000031305, -0.6724267966940406 
3.5900000000031516, -0.6624975838162606 
3.6000000000031727, -0.6551325027298385 
3.6100000000031938, -0.6500284475598697 
3.620000000003215, -0.6466976822896127 
3.630000000003236, -0.6446495856313383 
3.640000000003257, -0.643471865355385 
3.650000000003278, -0.6428510541784404 
3.6600000000032993, -0.6425642728399821 
3.6700000000033204, -0.6424605974115742 
3.6800000000033415, -0.6424411474463442 
3.6900000000033626, -0.6424419622511728 
3.7000000000033837, -0.6424211784506159 
3.710000000003405, -0.6423508548212203 
3.720000000003426, -0.6422132622541453 
3.730000000003447, -0.6420008545885829 
3.740000000003468, -0.6417179589512089 
3.750000000003489, -0.6413809332701496 
3.7600000000035103, -0.6410138538895421 
3.7700000000035314, -0.6406398723450069 
3.7800000000035525, -0.6402722758036876 
3.7900000000035736, -0.6399103111937292 
3.8000000000035947, -0.6395419336050245 
3.810000000003616, -0.639151373433963 
3.820000000003637, -0.6387270751384402 
3.830000000003658, -0.638266595840977 
3.840000000003679, -0.637778135346449 
3.8500000000037002, -0.637280752787722 
3.8600000000037213, -0.6368056430578595 
3.8700000000037424, -0.6363998515697071 
3.8800000000037635, -0.6361327114743787 
3.8900000000037847, -0.6361045383410564 
3.9000000000038058, -0.6364565476131954 
3.910000000003827, -0.6373802741217992 
3.920000000003848, -0.6391236025929178 
3.930000000003869, -0.6419881177468472 
3.94000000000389, -0.6463076101526599 
3.9500000000039113, -0.6523898436413128 
3.9600000000039324, -0.6603988434845511 
3.9700000000039535, -0.6701745738757565 
3.9800000000039746, -0.6810642494874088 
3.9900000000039957, -0.6919495075282922 
4.000000000004016, -0.7016118210869038 
4.010000000003993, -0.7092479748663619 
4.02000000000397, -0.7147082447107005 
4.030000000003946, -0.718321289573365 
4.040000000003923, -0.7205733919885733 
4.0500000000039, -0.7218964949850888 
4.0600000000038765, -0.7226003773071381 
4.070000000003853, -0.7228807245013635 
4.08000000000383, -0.7228462377332555 
4.090000000003807, -0.7225403556329194 
4.100000000003783, -0.7219510669896871 
4.11000000000376, -0.7210076620849627 
4.120000000003737, -0.7195634534839079 
4.130000000003713, -0.7173638239427005 
4.14000000000369, -0.7140058231463643 
4.150000000003667, -0.7089202581579459 
4.1600000000036434, -0.7014572786564053 
4.17000000000362, -0.6911847777475064 
4.180000000003597, -0.6783606218807015 
4.1900000000035735, -0.664181835999884 
4.20000000000355, -0.6503803202004355 
4.210000000003527, -0.6384182923456383 
4.220000000003504, -0.6289952894465366 
4.23000000000348, -0.6221080617878318 
4.240000000003457, -0.6173657501258066 
4.250000000003434, -0.6142643436533122 
4.26000000000341, -0.612336042222711 
4.270000000003387, -0.6112039519485992 
4.280000000003364, -0.610587676121666 
4.2900000000033405, -0.6102892882225328 
4.300000000003317, -0.6101742489105466 
4.310000000003294, -0.61015345373195 
4.320000000003271, -0.6101686878668906 
4.330000000003247, -0.6101821101252877 
4.340000000003224, -0.6101697388241113 
4.350000000003201, -0.6101185410449683 
4.360000000003177, -0.6100261030099329 
4.370000000003154, -0.6099008263989093 
4.380000000003131, -0.6097598789717631 
4.390000000003107, -0.6096231171416255 
4.400000000003084, -0.6095042024841504 
4.410000000003061, -0.6094030839158686 
4.4200000000030375, -0.6093042473907234 
4.430000000003014, -0.6091821304120476 
4.440000000002991, -0.6090108112853103 
4.450000000002968, -0.6087726667488386 
4.460000000002944, -0.6084622432675648 
4.470000000002921, -0.6080856218337363 
4.480000000002898, -0.6076584017875771 
4.490000000002874, -0.6072055319471498 
4.500000000002851, -0.6067649785038552 
4.510000000002828, -0.6063963394207856 
4.520000000002804, -0.6061953946048394 
4.530000000002781, -0.6063156778531252 
4.540000000002758, -0.6069975359123494 
4.5500000000027345, -0.6086022819763406 
4.560000000002711, -0.6116409964402221 
4.570000000002688, -0.6167692869025772 
4.580000000002665, -0.6246879565661858 
4.590000000002641, -0.6358655164735063 
4.600000000002618, -0.6500692260567881 
4.610000000002595, -0.6659744863039626 
4.620000000002571, -0.6814134992623968 
4.630000000002548, -0.6944010740749822 
4.640000000002525, -0.7040608913143996 
4.6500000000025015, -0.710626947015901 
4.660000000002478, -0.7148414635555501 
4.670000000002455, -0.7174512472200332 
4.6800000000024315, -0.7190160705113984 
4.690000000002408, -0.719903295750896 
4.700000000002385, -0.7203365691220499 
4.710000000002362, -0.7204416502780342 
4.720000000002338, -0.7202761378575229 
4.730000000002315, -0.7198438087655741 
4.740000000002292, -0.7190962916898579 
4.750000000002268, -0.7179243404788344 
4.760000000002245, -0.7161426733453725 
4.770000000002222, -0.7134803639909583 
4.7800000000021985, -0.7096057081920273 
4.790000000002175, -0.7042282683525407 
4.800000000002152, -0.6972871066441414 
4.810000000002129, -0.6891209403056275 
4.820000000002105, -0.6804385476378714 
4.830000000002082, -0.6720555462080948 
4.840000000002059, -0.6646023169377961 
4.850000000002035, -0.6584001949851995 
4.860000000002012, -0.653504728750939 
4.870000000001989, -0.6498095959589909 
4.880000000001965, -0.6471356153609619 
4.890000000001942, -0.6452855856218479 
4.900000000001919, -0.6440725278180671 
4.9100000000018955, -0.6433325258516663 
4.920000000001872, -0.6429294865369855 
