t, s[1].omega / s[0].omega 
0, -1.6201465376769228 
0.009999999999999995, -1.6323947400706789 
0.019999999999999934, -1.6398618637167075 
0.029999999999999874, -1.643861472242742 
0.04000000000000012, -1.6457942835428714 
0.050000000000000405, -1.6465643595652122 
0.06000000000000069, -1.646672938311791 
0.07000000000000098, -1.646392544720713 
0.08000000000000126, -1.6459004558860584 
0.09000000000000155, -1.6453608826480424 
0.10000000000000184, -1.6449316844956712 
0.11000000000000212, -1.6447029556802022 
0.12000000000000241, -1.6446683676121538 
0.130000000000002, -1.6447643290712968 
0.1400000000000009, -1.64489454372382 
0.1499999999999998, -1.6449375989530466 
0.1599999999999987, -1.6447665020830908 
0.1699999999999976, -1.6442462580746313 
0.1799999999999965, -1.6431937688663567 
0.1899999999999954, -1.6413190532853768 
0.1999999999999943, -1.6381674016303411 
0.2099999999999932, -1.6331032116169173 
0.2199999999999921, -1.6254840663119474 
0.229999999999991, -1.6153857571570924 
0.2399999999999899, -1.6049595732168769 
0.2499999999999888, -1.5982014502309219 
0.2599999999999877, -1.596749501154695 
0.2699999999999866, -1.5981389198955573 
0.2799999999999855, -1.59974676551592 
0.2899999999999844, -1.6007083599839387 
0.2999999999999833, -1.6010439066553848 
0.3099999999999822, -1.6009074900471272 
0.3199999999999811, -1.6003864180056186 
0.32999999999998, -1.5995320738477274 
0.3399999999999789, -1.5985338558499969 
0.3499999999999778, -1.5980192236772113 
0.35999999999997667, -1.5990177846749156 
0.36999999999997557, -1.601965208465047 
0.37999999999997447, -1.6059995984859117 
0.38999999999997337, -1.6098932886306248 
0.39999999999997227, -1.6129887755166776 
0.40999999999997117, -1.615166075612563 
0.41999999999997006, -1.6165292580627981 
0.42999999999996896, -1.6172270365897574 
0.43999999999996786, -1.617391690264165 
0.44999999999996676, -1.6171263153909057 
0.45999999999996566, -1.61650943571594 
0.46999999999996456, -1.615608969661254 
0.47999999999996346, -1.614501544260256 
0.48999999999996235, -1.6132927453207404 
0.49999999999996125, -1.6121384911378684 
0.5099999999999602, -1.6112400253578687 
0.519999999999959, -1.6107380457159226 
0.529999999999958, -1.6105703567612086 
0.5399999999999568, -1.6105119604524476 
0.5499999999999557, -1.610337058690917 
0.5599999999999546, -1.609866943198907 
0.5699999999999535, -1.6088859167356997 
0.5799999999999524, -1.6069939435679128 
0.5899999999999513, -1.603399540883465 
0.5999999999999502, -1.5967210384472112 
0.6099999999999491, -1.5854191205804458 
0.619999999999948, -1.5706140366244896 
0.6299999999999469, -1.560233059944409 
0.6399999999999458, -1.5625795548566335 
0.6499999999999447, -1.573353824770843 
0.6599999999999436, -1.5833893347549792 
0.6699999999999425, -1.5895667691430635 
0.6799999999999414, -1.5927232785625198 
0.6899999999999403, -1.5941330561303153 
0.6999999999999392, -1.5945974253988768 
0.7099999999999381, -1.5945284154326815 
0.719999999999937, -1.5941410968243004 
0.7299999999999359, -1.593607131531855 
0.7399999999999348, -1.5931657288061716 
0.7499999999999337, -1.5931096079938318 
0.7599999999999326, -1.593583296969894 
0.7699999999999315, -1.5944447330000213 
0.7799999999999304, -1.5954157192970562 
0.7899999999999293, -1.5962756796694335 
0.7999999999999282, -1.5968995770296346 
0.8099999999999271, -1.5972210719118953 
0.819999999999926, -1.5971989217381801 
0.8299999999999249, -1.5967957179474659 
0.8399999999999238, -1.5959658513922457 
0.8499999999999227, -1.5946515769849925 
0.8599999999999216, -1.5927884209444898 
0.8699999999999205, -1.5903300211458637 
0.8799999999999194, -1.5873197002648094 
0.8899999999999183, -1.5840369791393438 
0.8999999999999172, -1.5811190573837575 
0.9099999999999161, -1.5792917194992064 
0.919999999999915, -1.578697701250215 
0.9299999999999139, -1.5787925586053608 
0.9399999999999128, -1.578978532031552 
0.9499999999999117, -1.578952130825885 
0.9599999999999106, -1.578590574037451 
0.9699999999999095, -1.5777705438302527 
0.9799999999999084, -1.5762547270184395 
0.9899999999999073, -1.5736767563659844 
0.9999999999999062, -1.569906436157064 
1.0099999999999052, -1.5664515387555291 
1.019999999999904, -1.5678836976024149 
1.029999999999903, -1.5777687301883307 
1.039999999999902, -1.5923156022979557 
1.0499999999999008, -1.6051031412971137 
1.0599999999998997, -1.6136629301732008 
1.0699999999998986, -1.6186054899569133 
1.0799999999998975, -1.621185223085498 
1.0899999999998964, -1.6223636723201225 
1.0999999999998953, -1.622726060641143 
1.1099999999998942, -1.6226019240716734 
1.119999999999893, -1.6221880004695521 
1.129999999999892, -1.6216394018988716 
1.1399999999998909, -1.6211114796695063 
1.1499999999998898, -1.6207315694232456 
1.1599999999998887, -1.6205483872144661 
1.1699999999998876, -1.6205377471514582 
1.1799999999998865, -1.6206310473594236 
1.1899999999998854, -1.620721619356723 
1.1999999999998843, -1.6206823384784 
1.2099999999998832, -1.6203847473967017 
1.219999999999882, -1.6196813643483012 
1.229999999999881, -1.6183564604551854 
1.2399999999998799, -1.6160673285842393 
1.2499999999998788, -1.6122977423995368 
1.2599999999998777, -1.6063869952688237 
1.2699999999998766, -1.5978351104774295 
1.2799999999998755, -1.5872345780744852 
1.2899999999998744, -1.5774295857313514 
1.2999999999998733, -1.5721208692243143 
1.3099999999998722, -1.5716459603329578 
1.319999999999871, -1.5731886054270734 
1.32999999999987, -1.574630101853181 
1.3399999999998689, -1.575421764095291 
1.3499999999998678, -1.5756400270190125 
1.3599999999998666, -1.5754185748815346 
1.3699999999998655, -1.574820895068185 
1.3799999999998644, -1.573890463630607 
1.3899999999998633, -1.5728449758379923 
1.3999999999998622, -1.5723963688855316 
1.4099999999998611, -1.573666735546818 
1.41999999999986, -1.5770757247796294 
1.429999999999859, -1.5816368933365565 
1.4399999999998578, -1.586005623042333 
1.4499999999998567, -1.5894722091302615 
1.4599999999998556, -1.5919150516468707 
1.4699999999998545, -1.59345955922378 
1.4799999999998534, -1.5942813907085343 
1.4899999999998523, -1.5945378696948884 
1.4999999999998512, -1.5943527679988456 
1.5099999999998501, -1.5938207888514506 
1.519999999999849, -1.593022368015649 
1.529999999999848, -1.5920426922783777 
1.5399999999998468, -1.5909863480228161 
1.5499999999998457, -1.5899866482915972 
1.5599999999998446, -1.589200926888476 
1.5699999999998435, -1.5887426057231802 
1.5799999999998424, -1.5885729929095882 
1.5899999999998413, -1.5885100972033523 
1.5999999999998402, -1.5883498381435723 
1.6099999999998391, -1.5879196973892482 
1.619999999999838, -1.5870185584030425 
1.629999999999837, -1.5852929096245287 
1.6399999999998358, -1.5820581229753192 
1.6499999999998347, -1.5760864707087787 
1.6599999999998336, -1.565682942839612 
1.6699999999998325, -1.550220833136766 
1.6799999999998314, -1.5340280208572599 
1.6899999999998303, -1.5262939633959092 
1.6999999999998292, -1.529749690678187 
1.709999999999828, -1.5373773220575697 
1.719999999999827, -1.5434245201470271 
1.729999999999826, -1.5469073175336163 
1.7399999999998248, -1.5485993563510967 
1.7499999999998237, -1.5492534216435003 
1.7599999999998226, -1.5493072454442296 
1.7699999999998215, -1.5489839022436211 
1.7799999999998204, -1.5484263944380154 
1.7899999999998193, -1.5478334973127965 
1.7999999999998182, -1.5475578585188159 
1.809999999999817, -1.5479890213111651 
1.819999999999816, -1.5492048820551854 
1.8299999999998149, -1.5508701975145964 
1.8399999999998138, -1.5525514130331488 
1.8499999999998127, -1.5539714384339738 
1.8599999999998116, -1.5550156007235 
1.8699999999998105, -1.5556558909468372 
1.8799999999998094, -1.5558974202458704 
1.8899999999998083, -1.5557529734724895 
1.8999999999998072, -1.5552332410054275 
1.909999999999806, -1.5543455765691454 
1.919999999999805, -1.5530997461047265 
1.9299999999998039, -1.551523349017074 
1.9399999999998028, -1.5496930325840168 
1.9499999999998017, -1.5477854672713922 
1.9599999999998006, -1.546109352781838 
1.9699999999997995, -1.5449939131926966 
1.9799999999997984, -1.5445232033858491 
1.9899999999997973, -1.5444530957558866 
1.9999999999997962, -1.5444488476026792 
2.0099999999998173, -1.5442781763556994 
2.0199999999998384, -1.543785939250292 
2.0299999999998595, -1.5427750681758765 
2.0399999999998806, -1.5408671256070514 
2.0499999999999017, -1.5373400017170957 
2.059999999999923, -1.5310757581215424 
2.069999999999944, -1.5213532495922335 
2.079999999999965, -1.5107838326289416 
2.089999999999986, -1.5074059522562966 
2.100000000000007, -1.5162276519776487 
2.1100000000000283, -1.5307339166978713 
2.1200000000000494, -1.5426502152588566 
2.1300000000000705, -1.5498658005942882 
2.1400000000000916, -1.5536204127961921 
2.1500000000001127, -1.5553736345724762 
2.160000000000134, -1.556040074490299 
2.170000000000155, -1.5561002216989184 
2.180000000000176, -1.5558019828457876 
2.190000000000197, -1.5553124114572827 
2.2000000000002182, -1.5548270840775784 
2.2100000000002393, -1.5545981882600648 
2.2200000000002604, -1.554811701293104 
2.2300000000002815, -1.5554334730818633 
2.2400000000003026, -1.5562562268658555 
2.2500000000003237, -1.5570655177967212 
2.260000000000345, -1.557715636237071 
2.270000000000366, -1.55811868894073 
2.280000000000387, -1.5582190014071593 
2.290000000000408, -1.557973205751425 
2.3000000000004293, -1.5573366743910118 
2.3100000000004504, -1.556257121774753 
2.3200000000004715, -1.5546756862544198 
2.3300000000004926, -1.5525392301801904 
2.3400000000005137, -1.5498382368151016 
2.3500000000005348, -1.5466970801820472 
2.360000000000556, -1.543512108972193 
2.370000000000577, -1.5409592082295251 
2.380000000000598, -1.5395759127707804 
2.390000000000619, -1.53924500802757 
2.4000000000006403, -1.539385296772556 
2.4100000000006614, -1.5395126667367076 
2.4200000000006825, -1.539401142331456 
2.4300000000007036, -1.5389395589268235 
2.4400000000007247, -1.5379786187130409 
2.450000000000746, -1.5362269571351812 
2.460000000000767, -1.5332262361028932 
2.470000000000788, -1.528708894428668 
2.480000000000809, -1.5240751168993047 
2.49000000000083, -1.5242093731853414 
2.5000000000008513, -1.5337722132546356 
2.5100000000008724, -1.5495082850540254 
2.5200000000008935, -1.563991348009507 
2.5300000000009146, -1.57381940723739 
2.5400000000009357, -1.5794786623935488 
2.550000000000957, -1.5824200762257568 
2.560000000000978, -1.5837821723838519 
2.570000000000999, -1.5842490510736904 
2.58000000000102, -1.5841954622185173 
2.5900000000010412, -1.5838351065820797 
2.6000000000010624, -1.5833297954918921 
2.6100000000010835, -1.5828497696187054 
2.6200000000011046, -1.5825529823122797 
2.6300000000011257, -1.5825061204838202 
2.6400000000011468, -1.582663528217754 
2.650000000001168, -1.5829252821936524 
2.660000000001189, -1.5831797178984721 
2.67000000000121, -1.5833149047120818 
2.680000000001231, -1.5832261712230558 
2.6900000000012523, -1.582809962211844 
2.7000000000012734, -1.5819407218103918 
2.7100000000012945, -1.580445664750429 
2.7200000000013156, -1.5780902744071705 
2.7300000000013367, -1.574588707725741 
2.740000000001358, -1.5696812671154792 
2.750000000001379, -1.563382102132776 
2.7600000000014, -1.5564711379095097 
2.770000000001421, -1.5507460072302846 
2.780000000001442, -1.5478457212416872 
2.7900000000014633, -1.547507924821974 
2.8000000000014844, -1.5482045183763191 
2.8100000000015055, -1.5488570524797562 
2.8200000000015266, -1.5491342242019492 
2.8300000000015477, -1.5490140782534902 
2.840000000001569, -1.5484985046305981 
2.85000000000159, -1.5475305756364393 
2.860000000001611, -1.5460493725962712 
2.870000000001632, -1.5442961518026923 
2.8800000000016532, -1.5434766854885122 
2.8900000000016743, -1.5458180061425613 
2.9000000000016954, -1.5523095617037823 
2.9100000000017165, -1.5609087203047176 
2.9200000000017377, -1.568807836705413 
2.9300000000017588, -1.574702671855002 
2.94000000000178, -1.5785823624754054 
2.950000000001801, -1.5808926038000588 
2.960000000001822, -1.582097776072635 
2.970000000001843, -1.5825547936554538 
2.9800000000018643, -1.582507955649516 
2.9900000000018854, -1.5821212122602495 
3.0000000000019065, -1.5815198781568944 
3.0100000000019276, -1.5808239477761716 
3.0200000000019487, -1.580152627872035 
3.03000000000197, -1.579603803575844 
3.040000000001991, -1.5792403895239453 
3.050000000002012, -1.579076231468862 
3.060000000002033, -1.579046584634756 
3.070000000002054, -1.5790177142407822 
3.0800000000020753, -1.578839626108718 
3.0900000000020964, -1.5783636853457559 
3.1000000000021175, -1.5773987622657057 
3.1100000000021386, -1.575631268969637 
3.1200000000021597, -1.572527883731883 
3.130000000002181, -1.567256931425469 
3.140000000002202, -1.558786903678753 
3.150000000002223, -1.5466036026431278 
3.160000000002244, -1.5324667260750533 
3.1700000000022652, -1.5213626562117564 
3.1800000000022863, -1.5173144670946448 
3.1900000000023074, -1.5185969417866927 
3.2000000000023285, -1.5211906081708522 
3.2100000000023496, -1.5231122162752748 
3.2200000000023707, -1.5241234239231936 
3.230000000002392, -1.5244607444215872 
3.240000000002413, -1.5243294837402124 
3.250000000002434, -1.5238332437397364 
3.260000000002455, -1.5230361059821538 
3.2700000000024763, -1.5221162771533208 
3.2800000000024974, -1.5216062195884448 
3.2900000000025185, -1.5223967056939143 
3.3000000000025396, -1.525011600459607 
3.3100000000025607, -1.5288979429750649 
3.3200000000025818, -1.5329549271540273 
3.330000000002603, -1.5364165767479934 
3.340000000002624, -1.539022897162157 
3.350000000002645, -1.5407966478725825 
3.360000000002666, -1.5418565896000962 
3.3700000000026873, -1.5423340964103704 
3.3800000000027084, -1.5423451650902573 
3.3900000000027295, -1.5419847852902488 
3.4000000000027506, -1.5413328688459988 
3.4100000000027717, -1.5404679995379538 
3.420000000002793, -1.5394816853612054 
3.430000000002814, -1.5384852270762555 
3.440000000002835, -1.5376095489195836 
3.450000000002856, -1.5369835749492966 
3.460000000002877, -1.5366612462105385 
3.4700000000028983, -1.5365568982134654 
3.4800000000029194, -1.536492236188254 
3.4900000000029405, -1.5362905060621361 
3.5000000000029616, -1.535793667408072 
3.5100000000029827, -1.5347987078435246 
3.520000000003004, -1.5329511646203824 
3.530000000003025, -1.5296027387498445 
3.540000000003046, -1.523665790108501 
3.550000000003067, -1.513704110334537 
3.5600000000030882, -1.4989855470966775 
3.5700000000031094, -1.482098434723047 
3.5800000000031305, -1.4699232210046458 
3.5900000000031516, -1.467122505820303 
3.6000000000031727, -1.470540539839274 
3.6100000000031938, -1.474872013440054 
3.620000000003215, -1.4778750095476982 
3.630000000003236, -1.4794993186074241 
3.640000000003257, -1.4801920911515078 
3.650000000003278, -1.4802989209518413 
3.6600000000032993, -1.4800062052435887 
3.6700000000033204, -1.4794101861884523 
3.6800000000033415, -1.478628407783018 
3.6900000000033626, -1.4779678816203403 
3.7000000000033837, -1.4780381187721565 
3.710000000003405, -1.4794598058933839 
3.720000000003426, -1.482229892101233 
3.730000000003447, -1.4856489731138274 
3.740000000003468, -1.4889416443489125 
3.750000000003489, -1.4916714725112965 
3.7600000000035103, -1.4937099790160684 
3.7700000000035314, -1.4950833650375794 
3.7800000000035525, -1.4958722531397304 
3.7900000000035736, -1.4961676132708999 
3.8000000000035947, -1.4960544062279162 
3.810000000003616, -1.4956076401310534 
3.820000000003637, -1.4948969350801402 
3.830000000003658, -1.4939974985267988 
3.840000000003679, -1.4930007466116817 
3.8500000000037002, -1.4920176674591679 
3.8600000000037213, -1.4911742241021915 
3.8700000000037424, -1.49058512543896 
3.8800000000037635, -1.4902877200879945 
3.8900000000037847, -1.4901937642589678 
3.9000000000038058, -1.4901362033721979 
3.910000000003827, -1.4899501214350672 
3.920000000003848, -1.4894879870819233 
3.930000000003869, -1.4885675646783325 
3.94000000000389, -1.4868871823495717 
3.9500000000039113, -1.4839209509435052 
3.9600000000039324, -1.4788196596164287 
3.9700000000039535, -1.4704547064481095 
3.9800000000039746, -1.4579942161473822 
3.9900000000039957, -1.4424738342882377 
4.000000000004016, -1.4282780825895165 
4.010000000003993, -1.4206327683167692 
4.02000000000397, -1.4200229929626798 
4.030000000003946, -1.4226172103445045 
4.040000000003923, -1.425259803722407 
4.0500000000039, -1.42697385561927 
4.0600000000038765, -1.4278320614421793 
4.070000000003853, -1.4280874510220225 
4.08000000000383, -1.427913288881388 
4.090000000003807, -1.4273862985150358 
4.100000000003783, -1.4265413850278008 
4.11000000000376, -1.4254988240414224 
4.120000000003737, -1.4247068300604209 
4.130000000003713, -1.425122489308502 
4.14000000000369, -1.4277467658148093 
4.150000000003667, -1.4325630641486355 
4.1600000000036434, -1.438381425430106 
4.17000000000362, -1.4438821320851016 
4.180000000003597, -1.4483454268378428 
4.1900000000035735, -1.4516061409396794 
4.20000000000355, -1.4537786436995275 
4.210000000003527, -1.4550683878428028 
4.220000000003504, -1.4556835322470743 
4.23000000000348, -1.4558003780405568 
4.240000000003457, -1.4555566778924263 
4.250000000003434, -1.4550626133734794 
4.26000000000341, -1.454420884039626 
4.270000000003387, -1.4537407516178322 
4.280000000003364, -1.4531300636199422 
4.2900000000033405, -1.452671360784462 
4.300000000003317, -1.452405746909157 
4.310000000003294, -1.4523238082694585 
4.320000000003271, -1.4523569864253978 
4.330000000003247, -1.452392218697557 
4.340000000003224, -1.452307149986995 
4.350000000003201, -1.4519858705547342 
4.360000000003177, -1.451301618363035 
4.370000000003154, -1.450085452883081 
4.380000000003131, -1.4481009315073528 
4.390000000003107, -1.4450399144091615 
4.400000000003084, -1.4405610986911714 
4.410000000003061, -1.4344147630590256 
4.4200000000030375, -1.4267235464393437 
4.430000000003014, -1.418405771431991 
4.440000000002991, -1.4112866747785462 
4.450000000002968, -1.4070771221867102 
4.460000000002944, -1.4058545227847952 
4.470000000002921, -1.406262053560149 
4.480000000002898, -1.4070110300567522 
4.490000000002874, -1.4075233432902965 
4.500000000002851, -1.4076727155844602 
4.510000000002828, -1.4074604807470332 
4.520000000002804, -1.4068629188822919 
4.530000000002781, -1.4057800897911137 
4.540000000002758, -1.4040490655023148 
4.5500000000027345, -1.4016184645703724 
4.560000000002711, -1.3991319826026793 
4.570000000002688, -1.3988201216818321 
4.580000000002665, -1.403923625991728 
4.590000000002641, -1.4151529968928407 
4.600000000002618, -1.4289551921619426 
4.610000000002595, -1.4411060180373318 
4.620000000002571, -1.4497979174306586 
4.630000000002548, -1.4552483269603755 
4.640000000002525, -1.4583538313033508 
4.6500000000025015, -1.4599513006734015 
4.660000000002478, -1.4606244993382593 
4.670000000002455, -1.4607325858167521 
4.6800000000024315, -1.4604903137359715 
4.690000000002408, -1.4600461997968222 
4.700000000002385, -1.459544581793642 
4.710000000002362, -1.4591481032052658 
4.720000000002338, -1.4589932231329352 
4.730000000002315, -1.4591182732311903 
4.740000000002292, -1.4594563784595116 
4.750000000002268, -1.4598927022131813 
4.760000000002245, -1.4603106393244103 
4.770000000002222, -1.4606080550259388 
4.7800000000021985, -1.4607013602578556 
4.790000000002175, -1.4605213199126734 
4.800000000002152, -1.4600033027622834 
4.810000000002129, -1.459079837079549 
4.820000000002105, -1.4576798771193842 
4.830000000002082, -1.45573538285996 
4.840000000002059, -1.4531988085902139 
4.850000000002035, -1.4500842737872204 
4.860000000002012, -1.4465507235768431 
4.870000000001989, -1.4430093958802206 
4.880000000001965, -1.440107160192649 
4.890000000001942, -1.4383763399904599 
4.900000000001919, -1.437787160432701 
4.9100000000018955, -1.4378296407418811 
4.920000000001872, -1.4379934408356274 
4.930000000001849, -1.4379998474595783 
4.940000000001826, -1.4377240954889965 
