t, s[1].omega / s[0].omega 
0, -0.6199977221241112 
0.009999999999999995, -0.6197860078908304 
0.019999999999999934, -0.6195957490091144 
0.029999999999999874, -0.6194006777086736 
0.04000000000000012, -0.6191699972209121 
0.050000000000000405, -0.6188801432058989 
0.06000000000000069, -0.6185215847892123 
0.07000000000000098, -0.6180998751864463 
0.08000000000000126, -0.6176343048878163 
0.09000000000000155, -0.6171583497543243 
0.10000000000000184, -0.6167247130667108 
0.11000000000000212, -0.6164163867588233 
0.12000000000000241, -0.616364613873775 
0.130000000000002, -0.6167744333936431 
0.1400000000000009, -0.6179577496145472 
0.1499999999999998, -0.6203713862835937 
0.1599999999999987, -0.624650851273149 
0.1699999999999976, -0.6316141376967731 
0.1799999999999965, -0.6421763429967239 
0.1899999999999954, -0.6570714215107778 
0.1999999999999943, -0.6762953817026479 
0.2099999999999932, -0.6984503812509911 
0.2199999999999921, -0.7206900836146974 
0.229999999999991, -0.7398970611898996 
0.2399999999999899, -0.754307283460815 
0.2499999999999888, -0.7639796184709382 
0.2599999999999877, -0.7700007541487585 
0.2699999999999866, -0.7735753347794971 
0.2799999999999855, -0.7756168682032618 
0.2899999999999844, -0.7767107107584927 
0.2999999999999833, -0.7771983550461538 
0.3099999999999822, -0.7772609134054951 
0.3199999999999811, -0.7769718809651491 
0.32999999999998, -0.7763199029778954 
0.3399999999999789, -0.7752052640489882 
0.3499999999999778, -0.7734089929041608 
0.35999999999997667, -0.7705288359067457 
0.36999999999997557, -0.7658812135423304 
0.37999999999997447, -0.758407690300617 
0.38999999999997337, -0.746740536805742 
0.39999999999997227, -0.7297339626155213 
0.40999999999997117, -0.7075701070509955 
0.41999999999997006, -0.6825803439797762 
0.42999999999996896, -0.6584279773084348 
0.43999999999996786, -0.6381068313409479 
0.44999999999996676, -0.6227886714672631 
0.45999999999996566, -0.6121459781911998 
0.46999999999996456, -0.6051916587888397 
0.47999999999996346, -0.6008735853981577 
0.48999999999996235, -0.598323137494724 
0.49999999999996125, -0.5969023705151385 
0.5099999999999602, -0.5961726725352663 
0.519999999999959, -0.5958452209814398 
0.529999999999958, -0.5957355398757693 
0.5399999999999568, -0.5957280635413381 
0.5499999999999557, -0.5957508202486747 
0.5599999999999546, -0.595758797225894 
0.5699999999999535, -0.595724476461865 
0.5799999999999524, -0.5956341492651015 
0.5899999999999513, -0.5954881055328445 
0.5999999999999502, -0.5953014719122662 
0.6099999999999491, -0.5951015825975459 
0.619999999999948, -0.594919460935177 
0.6299999999999469, -0.5947774155728635 
0.6399999999999458, -0.5946785547243642 
0.6499999999999447, -0.5946039338070915 
0.6599999999999436, -0.5945192517018134 
0.6699999999999425, -0.5943877690228134 
0.6799999999999414, -0.5941825885521206 
0.6899999999999403, -0.5938927279340569 
0.6999999999999392, -0.5935227055171373 
0.7099999999999381, -0.5930897288457896 
0.719999999999937, -0.5926231303734437 
0.7299999999999359, -0.5921691171109424 
0.7399999999999348, -0.5918028317582824 
0.7499999999999337, -0.5916500029101714 
0.7599999999999326, -0.5919215162710155 
0.7699999999999315, -0.5929649104454897 
0.7799999999999304, -0.5953348319026056 
0.7899999999999293, -0.599874113302535 
0.7999999999999282, -0.6077647563244741 
0.8099999999999271, -0.6204322698701048 
0.819999999999926, -0.6390776000605166 
0.8299999999999249, -0.6636575973533982 
0.8399999999999238, -0.6917876110320026 
0.8499999999999227, -0.7190596282732572 
0.8599999999999216, -0.7414241129486203 
0.8699999999999205, -0.7573523453884283 
0.8799999999999194, -0.7676353644003304 
0.8899999999999183, -0.7739033792137479 
0.8999999999999172, -0.7776063199283858 
0.9099999999999161, -0.7797389249523564 
0.919999999999915, -0.7809089225625943 
0.9299999999999139, -0.7814646447664335 
0.9399999999999128, -0.7815912975137185 
0.9499999999999117, -0.7813667176207588 
0.9599999999999106, -0.7807850893088669 
0.9699999999999095, -0.7797549083932023 
0.9799999999999084, -0.778072095655129 
0.9899999999999073, -0.7753670869737104 
0.9999999999999062, -0.7710357738237433 
1.0099999999999052, -0.7642090178044302 
1.019999999999904, -0.7539052780075546 
1.029999999999903, -0.7395428559624966 
1.039999999999902, -0.7216754515608944 
1.0499999999999008, -0.7022249906607091 
1.0599999999998997, -0.6836740473920152 
1.0699999999998986, -0.667892082834433 
1.0799999999998975, -0.6556260905235047 
1.0899999999998964, -0.6467352237153603 
1.0999999999998953, -0.6406455016587314 
1.1099999999998942, -0.6366830153956402 
1.119999999999893, -0.6342384275645331 
1.129999999999892, -0.6328228075406664 
1.1399999999998909, -0.6320709892236924 
1.1499999999998898, -0.6317240326397667 
1.1599999999998887, -0.6316056795063336 
1.1699999999998876, -0.6315995283920923 
1.1799999999998865, -0.6316299584731512 
1.1899999999998854, -0.6316480680487018 
1.1999999999998843, -0.631622988484763 
1.2099999999998832, -0.6315382505587386 
1.219999999999882, -0.6313917807594505 
1.229999999999881, -0.6311964390794159 
1.2399999999998799, -0.6309770491673183 
1.2499999999998788, -0.6307617302461624 
1.2599999999998777, -0.6305699106848554 
1.2699999999998766, -0.6304030165688751 
1.2799999999998755, -0.6302431624243967 
1.2899999999998744, -0.6300607427634415 
1.2999999999998733, -0.629826670695296 
1.3099999999998722, -0.6295227022500077 
1.319999999999871, -0.6291458275924414 
1.32999999999987, -0.6287077885895972 
1.3399999999998689, -0.628233873376566 
1.3499999999998678, -0.6277648247643771 
1.3599999999998666, -0.6273639983529156 
1.3699999999998655, -0.6271307123514516 
1.3799999999998644, -0.6272202344926887 
1.3899999999998633, -0.6278703281571332 
1.3999999999998622, -0.6294328634304358 
1.4099999999998611, -0.632405451377241 
1.41999999999986, -0.637449652254246 
1.429999999999859, -0.6453637686582965 
1.4399999999998578, -0.656945529072968 
1.4499999999998567, -0.6726530211907656 
1.4599999999998556, -0.6920467540163141 
1.4699999999998545, -0.7133215688148834 
1.4799999999998534, -0.7336200376629798 
1.4899999999998523, -0.7503599288124825 
1.4999999999998512, -0.7624753139275539 
1.5099999999998501, -0.7704132135806327 
1.519999999999849, -0.775279877139331 
1.529999999999848, -0.7781325481914847 
1.5399999999998468, -0.7797282486593669 
1.5499999999998457, -0.7805382102288057 
1.5599999999998446, -0.780830246649715 
1.5699999999998435, -0.780737748370066 
1.5799999999998424, -0.7802991372875829 
1.5899999999998413, -0.7794698944089029 
1.5999999999998402, -0.7781087687172807 
1.6099999999998391, -0.7759343647944301 
1.619999999999838, -0.7724446703489958 
1.629999999999837, -0.7668028483965553 
1.6399999999998358, -0.7577521408585816 
1.6499999999998347, -0.7437771693371974 
1.6599999999998336, -0.72387251180027 
1.6699999999998325, -0.6988568595555953 
1.6799999999998314, -0.6719324118782438 
1.6899999999998303, -0.6471954170927239 
1.6999999999998292, -0.6273831703645107 
1.709999999999828, -0.6131095394556013 
1.719999999999827, -0.6035952503207815 
1.729999999999826, -0.5976184676760733 
1.7399999999998248, -0.5940521583911782 
1.7499999999998237, -0.5920353529646565 
1.7599999999998226, -0.5909694741253133 
1.7699999999998215, -0.5904608649356962 
1.7799999999998204, -0.5902599982566996 
1.7899999999998193, -0.5902125312392266 
1.7999999999998182, -0.5902240488596241 
1.809999999999817, -0.5902364744482008 
1.819999999999816, -0.5902136778324742 
1.8299999999998149, -0.5901343101157435 
1.8399999999998138, -0.5899901321085802 
1.8499999999998127, -0.5897873747270099 
1.8599999999998116, -0.5895472497876473 
1.8699999999998105, -0.5893015111850092 
1.8799999999998094, -0.5890819395593636 
1.8899999999998083, -0.5889075347665342 
1.8999999999998072, -0.5887758768205088 
1.909999999999806, -0.5886633788514015 
1.919999999999805, -0.5885345004649468 
1.9299999999998039, -0.5883550935916322 
1.9399999999998028, -0.5881030212206337 
1.9499999999998017, -0.5877720649063605 
1.9599999999998006, -0.5873704987957452 
1.9699999999997995, -0.5869188328780776 
1.9799999999997984, -0.5864508474190082 
1.9899999999997973, -0.5860204985595516 
1.9999999999997962, -0.5857166773134772 
2.0099999999998173, -0.5856884412587664 
2.0199999999998384, -0.5861844654255521 
2.0299999999998595, -0.5876107468302064 
2.0399999999998806, -0.5906070179611173 
2.0499999999999017, -0.5961269331028889 
2.059999999999923, -0.6054623718973902 
2.069999999999944, -0.6200574175689738 
2.079999999999965, -0.6408584345663281 
2.089999999999986, -0.66714045511892 
2.100000000000007, -0.6956665637953034 
2.1100000000000283, -0.7217742259044485 
2.1200000000000494, -0.742093537030184 
2.1300000000000705, -0.7560147620617746 
2.1400000000000916, -0.7647945703233715 
2.1500000000001127, -0.7700845507653507 
2.160000000000134, -0.773190677058785 
2.170000000000155, -0.7749645924174585 
2.180000000000176, -0.7759140966580567 
2.190000000000197, -0.7763249547614764 
2.2000000000002182, -0.7763430823684131 
2.2100000000002393, -0.776018697101566 
2.2200000000002604, -0.7753214213257277 
2.2300000000002815, -0.7741310756393258 
2.2400000000003026, -0.7722042670213791 
2.2500000000003237, -0.7691181735630853 
2.260000000000345, -0.7642127201749549 
2.270000000000366, -0.7566105757621995 
2.280000000000387, -0.7454747320418399 
2.290000000000408, -0.7305988458585524 
2.3000000000004293, -0.7129907221904432 
2.3100000000004504, -0.6947264252027525 
2.3200000000004715, -0.6779783647204318 
2.3300000000004926, -0.664111939998553 
2.3400000000005137, -0.6535068870241084 
2.3500000000005348, -0.6458830334210012 
2.360000000000556, -0.6406808872926983 
2.370000000000577, -0.6373034061662478 
2.380000000000598, -0.635226258197373 
2.390000000000619, -0.6340318495153925 
2.4000000000006403, -0.633407884797889 
2.4100000000006614, -0.6331317734357067 
2.4200000000006825, -0.6330508950783489 
2.4300000000007036, -0.6330635498913287 
2.4400000000007247, -0.6331030535540514 
2.450000000000746, -0.6331261984505361 
2.460000000000767, -0.6331065115787047 
2.470000000000788, -0.6330318961881314 
2.480000000000809, -0.6329048755557629 
2.49000000000083, -0.6327420328994209 
2.5000000000008513, -0.6325690288295315 
2.5100000000008724, -0.6324104226947865 
2.5200000000008935, -0.6322780915720089 
2.5300000000009146, -0.6321644052610903 
2.5400000000009357, -0.632044302039172 
2.550000000000957, -0.631885390323857 
2.560000000000978, -0.6316604658534515 
2.570000000000999, -0.6313560231993255 
2.58000000000102, -0.6309743680627151 
2.5900000000010412, -0.6305319853930612 
2.6000000000010624, -0.6300587234856195 
2.6100000000010835, -0.6296012005374665 
2.6200000000011046, -0.6292321402166432 
2.6300000000011257, -0.6290664731614366 
2.6400000000011468, -0.6292847024548704 
2.650000000001168, -0.6301633276618777 
2.660000000001189, -0.6321100429155881 
2.67000000000121, -0.6356962549983527 
2.680000000001231, -0.6416674268857575 
2.6900000000012523, -0.6508866516845616 
2.7000000000012734, -0.6641287782353994 
2.7100000000012945, -0.6816338259716421 
2.7200000000013156, -0.7024876894483344 
2.7300000000013367, -0.7243308080629818 
2.740000000001358, -0.7441075214456987 
2.750000000001379, -0.7596127623282068 
2.7600000000014, -0.770381699017791 
2.770000000001421, -0.7772371527494745 
2.780000000001442, -0.7813620593288437 
2.7900000000014633, -0.7837433983463271 
2.8000000000014844, -0.7850445998234292 
2.8100000000015055, -0.785664071209062 
2.8200000000015266, -0.7858204845476326 
2.8300000000015477, -0.7856134319849748 
2.840000000001569, -0.7850538291930961 
2.85000000000159, -0.7840675358388239 
2.860000000001611, -0.7824723206444892 
2.870000000001632, -0.7799225936469558 
2.8800000000016532, -0.7758151835440257 
2.8900000000016743, -0.7691708378940146 
2.9000000000016954, -0.7585933495241127 
2.9100000000017165, -0.7425899800172362 
2.9200000000017377, -0.7205841335799688 
2.9300000000017588, -0.6942087497926195 
2.94000000000178, -0.6672669731860175 
2.950000000001801, -0.6436924988117261 
2.960000000001822, -0.6255601293840246 
2.970000000001843, -0.6129094054504753 
2.9800000000018643, -0.6046977136288538 
2.9900000000018854, -0.5996643349418134 
3.0000000000019065, -0.5967385477927158 
3.0100000000019276, -0.5951361131227823 
3.0200000000019487, -0.5943263706245034 
3.03000000000197, -0.5939674793487466 
3.040000000001991, -0.5938464377327893 
3.050000000002012, -0.5938332049408916 
3.060000000002033, -0.5938487036772455 
3.070000000002054, -0.5938441083856907 
3.0800000000020753, -0.5937889178270318 
3.0900000000020964, -0.593665909702392 
3.1000000000021175, -0.5934710907777174 
3.1100000000021386, -0.593215659703867 
3.1200000000021597, -0.592925605193708 
3.130000000002181, -0.5926352549248927 
3.140000000002202, -0.5923752281273813 
3.150000000002223, -0.5921600926667038 
3.160000000002244, -0.5919822272646201 
3.1700000000022652, -0.591815171904323 
3.1800000000022863, -0.5916246407532375 
3.1900000000023074, -0.591381307975839 
3.2000000000023285, -0.5910692318090972 
3.2100000000023496, -0.5906878585350187 
3.2200000000023707, -0.5902503221010396 
3.230000000002392, -0.5897824956710334 
3.240000000002413, -0.5893262324219596 
3.250000000002434, -0.5889489108253161 
3.260000000002455, -0.5887611464528131 
3.2700000000024763, -0.5889451574290342 
3.2800000000024974, -0.5897968756842473 
3.2900000000025185, -0.5917839192653692 
3.3000000000025396, -0.5956152768539666 
3.3100000000025607, -0.6022978897550726 
3.3200000000025818, -0.61310317706818 
3.330000000002603, -0.6292747197345355 
3.340000000002624, -0.6512682086315303 
3.350000000002645, -0.6776630529684338 
3.360000000002666, -0.7048153666859999 
3.3700000000026873, -0.7284576492072293 
3.3800000000027084, -0.7461394477045468 
3.3900000000027295, -0.7579263466569512 
3.4000000000027506, -0.7652344105841242 
3.4100000000027717, -0.7695872119238762 
3.420000000002793, -0.7721119805008262 
3.430000000002814, -0.7735212063566049 
3.440000000002835, -0.7742311222398719 
3.450000000002856, -0.7744693573809828 
3.460000000002877, -0.7743425832239742 
3.4700000000028983, -0.7738693963954922 
3.4800000000029194, -0.7729859855116935 
3.4900000000029405, -0.7715270711232003 
3.5000000000029616, -0.7691807679659395 
3.5100000000029827, -0.7654211979235479 
3.520000000003004, -0.7594543441196918 
3.530000000003025, -0.7502918998064445 
3.540000000003046, -0.7371444739208294 
3.550000000003067, -0.7201493320983843 
3.5600000000030882, -0.7008608364636816 
3.5700000000031094, -0.6817427875278443 
3.5800000000031305, -0.6649583121987603 
3.5900000000031516, -0.6515905175716219 
3.6000000000031727, -0.6417080200802203 
3.6100000000031938, -0.6348161568948439 
3.620000000003215, -0.6302455142981565 
3.630000000003236, -0.6273609647131695 
3.640000000003257, -0.6256402350661538 
3.650000000003278, -0.6246864499369231 
3.6600000000032993, -0.6242137712295577 
3.6700000000033204, -0.6240247064410791 
3.6800000000033415, -0.6239871468987979 
3.6900000000033626, -0.6240145925252542 
3.7000000000033837, -0.6240510014328954 
3.710000000003405, -0.6240607455246086 
3.720000000003426, -0.6240235402125551 
3.730000000003447, -0.6239333452751833 
3.740000000003468, -0.6237987666144417 
3.750000000003489, -0.6236411913253508 
3.7600000000035103, -0.6234877164382044 
3.7700000000035314, -0.6233597261624155 
3.7800000000035525, -0.6232621732983773 
3.7900000000035736, -0.6231795181940726 
3.8000000000035947, -0.6230810197495598 
3.810000000003616, -0.6229327335996141 
3.820000000003637, -0.6227096416623896 
3.830000000003658, -0.6224021682350556 
3.840000000003679, -0.6220163968981468 
3.8500000000037002, -0.621571803456943 
3.8600000000037213, -0.6211010912897091 
3.8700000000037424, -0.6206551188682191 
3.8800000000037635, -0.6203145069647237 
3.8900000000037847, -0.6202091369967336 
3.9000000000038058, -0.6205467725464525 
3.910000000003827, -0.6216513830363732 
3.920000000003848, -0.6240089384889521 
3.930000000003869, -0.6283104386409939 
3.94000000000389, -0.6354622585054868 
3.9500000000039113, -0.6464935981074109 
3.9600000000039324, -0.6622379296055134 
3.9700000000039535, -0.6826906056086369 
3.9800000000039746, -0.7062695536010859 
3.9900000000039957, -0.7298086164133516 
4.000000000004016, -0.7499468364334219 
4.010000000003993, -0.7648985889618964 
4.02000000000397, -0.7748444193127385 
4.030000000003946, -0.7809959171147361 
4.040000000003923, -0.7846333675781859 
4.0500000000039, -0.7867067978394481 
4.0600000000038765, -0.7878178914447935 
4.070000000003853, -0.7883154967086259 
4.08000000000383, -0.788384136907495 
4.090000000003807, -0.7880988196622531 
4.100000000003783, -0.7874485653527961 
4.11000000000376, -0.7863330224395462 
4.120000000003737, -0.7845312121543399 
4.130000000003713, -0.7816364887881501 
4.14000000000369, -0.7769562564941583 
4.150000000003667, -0.7694138114231263 
4.1600000000036434, -0.7576062840481322 
4.17000000000362, -0.7403322382999701 
4.180000000003597, -0.7177224829814628 
4.1900000000035735, -0.6921266170973315 
4.20000000000355, -0.667329550085415 
4.210000000003527, -0.6464761726705422 
4.220000000003504, -0.630818657323505 
4.23000000000348, -0.6200212778470854 
4.240000000003457, -0.6130428727086626 
4.250000000003434, -0.6087726203931392 
4.26000000000341, -0.6062974275190238 
4.270000000003387, -0.6049520750683441 
4.280000000003364, -0.6042842994335444 
4.2900000000033405, -0.6040003710971762 
4.300000000003317, -0.6039155488965908 
4.310000000003294, -0.6039158183420413 
4.320000000003271, -0.6039308950056551 
4.330000000003247, -0.6039167542906788 
4.340000000003224, -0.6038459298649604 
4.350000000003201, -0.6037040602456227 
4.360000000003177, -0.6034906990289829 
4.370000000003154, -0.6032209658652757 
4.380000000003131, -0.6029235369775436 
4.390000000003107, -0.6026322260334726 
4.400000000003084, -0.6023732511694209 
4.410000000003061, -0.6021543924080457 
4.4200000000030375, -0.6019618962189965 
4.430000000003014, -0.6017667462368758 
4.440000000002991, -0.6015367991253524 
4.450000000002968, -0.6012483479607451 
4.460000000002944, -0.6008921763759048 
4.470000000002921, -0.6004739622511491 
4.480000000002898, -0.6000127120876333 
4.490000000002874, -0.5995413887013891 
4.500000000002851, -0.5991124875970196 
4.510000000002828, -0.5988102293942974 
4.520000000002804, -0.5987709283372471 
4.530000000002781, -0.5992134144156352 
4.540000000002758, -0.6004811092704283 
4.5500000000027345, -0.6030947120874425 
4.560000000002711, -0.6078052973256863 
4.570000000002688, -0.6156128386407206 
4.580000000002665, -0.6276620145544572 
4.590000000002641, -0.6448572060483888 
4.600000000002618, -0.6670818804106903 
4.610000000002595, -0.6923609025996287 
4.620000000002571, -0.717039454721043 
4.630000000002548, -0.7375822420274474 
4.640000000002525, -0.7524434001392339 
4.6500000000025015, -0.7621402272015815 
4.660000000002478, -0.7680730217129103 
4.670000000002455, -0.7715682527008412 
4.6800000000024315, -0.7735625687545872 
4.690000000002408, -0.774634538559972 
4.700000000002385, -0.7751154224072753 
4.710000000002362, -0.7751787038606499 
4.720000000002338, -0.7748926200923885 
4.730000000002315, -0.7742414752553005 
4.740000000002292, -0.7731207584137313 
4.750000000002268, -0.7713056996378936 
4.760000000002245, -0.7683901098333445 
4.770000000002222, -0.7637029608719559 
4.7800000000021985, -0.7562591925865846 
4.790000000002175, -0.7449108316321615 
4.800000000002152, -0.7289308360342143 
4.810000000002129, -0.7089186976355732 
4.820000000002105, -0.6871419014382936 
4.830000000002082, -0.6665562743773448 
4.840000000002059, -0.6493261857005104 
4.850000000002035, -0.6362122782330155 
4.860000000002012, -0.6269205143085339 
4.870000000001989, -0.6206965151653532 
4.880000000001965, -0.6167283652714299 
4.890000000001942, -0.6143231232968778 
4.900000000001919, -0.6129505399439845 
4.9100000000018955, -0.6122302088883588 
4.920000000001872, -0.6119012414365922 
