t, s[1].omega / s[0].omega 
0, -0.7699976641699429 
0.009999999999999995, -0.7697408225787867 
0.019999999999999934, -0.769434193979621 
0.029999999999999874, -0.7690693768923968 
0.04000000000000012, -0.7686396886990675 
0.050000000000000405, -0.7681462268754158 
0.06000000000000069, -0.7676011322791656 
0.07000000000000098, -0.7670285480303312 
0.08000000000000126, -0.7664651812427279 
0.09000000000000155, -0.7659615139371275 
0.10000000000000184, -0.7655829226413826 
0.11000000000000212, -0.765408748962281 
0.12000000000000241, -0.7655275197215403 
0.130000000000002, -0.7660281322966634 
0.1400000000000009, -0.766989048319089 
0.1499999999999998, -0.7684687231408402 
0.1599999999999987, -0.7704993781995882 
0.1699999999999976, -0.7730832174434829 
0.1799999999999965, -0.7761872844493161 
0.1899999999999954, -0.7797328014583924 
0.1999999999999943, -0.7835792638467284 
0.2099999999999932, -0.7875136415607511 
0.2199999999999921, -0.7912654035361981 
0.229999999999991, -0.7945625552960232 
0.2399999999999899, -0.797210897298158 
0.2499999999999888, -0.7991457876525943 
0.2599999999999877, -0.8004215262149648 
0.2699999999999866, -0.8011563445872513 
0.2799999999999855, -0.8014764807743345 
0.2899999999999844, -0.8014841750728954 
0.2999999999999833, -0.8012487271109432 
0.3099999999999822, -0.80081075770132 
0.3199999999999811, -0.8001932747344712 
0.32999999999998, -0.7994198048856749 
0.3399999999999789, -0.7985461213834947 
0.3499999999999778, -0.7977170047188367 
0.35999999999997667, -0.7972590474542052 
0.36999999999997557, -0.7978029654666965 
0.37999999999997447, -0.800375386629448 
0.38999999999997337, -0.8063074141303621 
0.39999999999997227, -0.8167524608174853 
0.40999999999997117, -0.8318055865332481 
0.41999999999997006, -0.8498089774694961 
0.42999999999996896, -0.8677940281797352 
0.43999999999996786, -0.8830453896498108 
0.44999999999996676, -0.8943471077452358 
0.45999999999996566, -0.9019285282795864 
0.46999999999996456, -0.9066801600752115 
0.47999999999996346, -0.9095172361088878 
0.48999999999996235, -0.9111297582922602 
0.49999999999996125, -0.9119669497249525 
0.5099999999999602, -0.9122953335657076 
0.519999999999959, -0.9122563531391569 
0.529999999999958, -0.9119037097862653 
0.5399999999999568, -0.9112198320568388 
0.5499999999999557, -0.9101143595297481 
0.5599999999999546, -0.9084071599948711 
0.5699999999999535, -0.9058007417898107 
0.5799999999999524, -0.9018584672044987 
0.5899999999999513, -0.8960329054410933 
0.5999999999999502, -0.8878274846914834 
0.6099999999999491, -0.877168324254449 
0.619999999999948, -0.8648884180997877 
0.6299999999999469, -0.8528713105676282 
0.6399999999999458, -0.8433406220508621 
0.6499999999999447, -0.8376073267330872 
0.6599999999999436, -0.835453584166595 
0.6699999999999425, -0.8356650851405035 
0.6799999999999414, -0.8369468542938854 
0.6899999999999403, -0.8384280597599811 
0.6999999999999392, -0.8396914312821353 
0.7099999999999381, -0.8406091393487142 
0.719999999999937, -0.8411858618799635 
0.7299999999999359, -0.8414640686349049 
0.7399999999999348, -0.8414785651769604 
0.7499999999999337, -0.8412362377190361 
0.7599999999999326, -0.8407038912581081 
0.7699999999999315, -0.8397949053131202 
0.7799999999999304, -0.8383517706158774 
0.7899999999999293, -0.8361299838797118 
0.7999999999999282, -0.8328037039804117 
0.8099999999999271, -0.8280308400665172 
0.819999999999926, -0.8216055304791732 
0.8299999999999249, -0.8136488582127038 
0.8399999999999238, -0.8046891453304571 
0.8499999999999227, -0.7955227252723123 
0.8599999999999216, -0.7869420685072044 
0.8699999999999205, -0.7795213437256036 
0.8799999999999194, -0.773547738681378 
0.8899999999999183, -0.769058468185572 
0.8999999999999172, -0.7659155812147628 
0.9099999999999161, -0.7638812194975257 
0.919999999999915, -0.7626816119973419 
0.9299999999999139, -0.7620555936617804 
0.9399999999999128, -0.7617844041290354 
0.9499999999999117, -0.7617024898328464 
0.9599999999999106, -0.761693595725999 
0.9699999999999095, -0.7616790531684997 
0.9799999999999084, -0.7616046796053353 
0.9899999999999073, -0.7614306058196827 
0.9999999999999062, -0.7611263185719246 
1.0099999999999052, -0.7606714730945064 
1.019999999999904, -0.7600607255697954 
1.029999999999903, -0.7593079825207212 
1.039999999999902, -0.7584446478651226 
1.0499999999999008, -0.7575104290344274 
1.0599999999998997, -0.7565415913058489 
1.0699999999998986, -0.7555637160569024 
1.0799999999998975, -0.7545920388793058 
1.0899999999998964, -0.753637099883177 
1.0999999999998953, -0.7527113997159086 
1.1099999999998942, -0.751834119548111 
1.119999999999893, -0.751033144938948 
1.129999999999892, -0.7503447176377879 
1.1399999999998909, -0.7498110310576991 
1.1499999999998898, -0.7494759797862087 
1.1599999999998887, -0.7493796958398806 
1.1699999999998876, -0.7495532170655124 
1.1799999999998865, -0.7500149346371912 
1.1899999999998854, -0.7507699010851989 
1.1999999999998843, -0.7518118312587532 
1.2099999999998832, -0.7531263016538474 
1.219999999999882, -0.7546927802510079 
1.229999999999881, -0.756482983072366 
1.2399999999998799, -0.7584540217443692 
1.2499999999998788, -0.7605376322210875 
1.2599999999998777, -0.7626317769527644 
1.2699999999998766, -0.7646053540048595 
1.2799999999998755, -0.7663233588815126 
1.2899999999998744, -0.7676843929831061 
1.2999999999998733, -0.7686473882235874 
1.3099999999998722, -0.7692303621945047 
1.319999999999871, -0.7694868975603855 
1.32999999999987, -0.7694793747778831 
1.3399999999998689, -0.769262273020864 
1.3499999999998678, -0.7688778725912 
1.3599999999998666, -0.7683619289372832 
1.3699999999998655, -0.7677582870381958 
1.3799999999998644, -0.7671449617796886 
1.3899999999998633, -0.7666768495717661 
1.3999999999998622, -0.7666488217685953 
1.4099999999998611, -0.7675722250904089 
1.41999999999986, -0.7702311452409705 
1.429999999999859, -0.7756413711653806 
1.4399999999998578, -0.7847979817318149 
1.4499999999998567, -0.7981426124402555 
1.4599999999998556, -0.8149261670401824 
1.4699999999998545, -0.8330287645532259 
1.4799999999998534, -0.849750293138327 
1.4899999999998523, -0.863133962226516 
1.4999999999998512, -0.8726518922283886 
1.5099999999998501, -0.8788557142400887 
1.519999999999849, -0.8826616343521196 
1.529999999999848, -0.8848869237941525 
1.5399999999998468, -0.886110092525896 
1.5499999999998457, -0.8866936400246683 
1.5599999999998446, -0.8868448629405064 
1.5699999999998435, -0.8866657005365909 
1.5799999999998424, -0.8861817783593698 
1.5899999999998413, -0.8853526203207072 
1.5999999999998402, -0.8840663502306013 
1.6099999999998391, -0.8821223410958563 
1.619999999999838, -0.8792095934194956 
1.629999999999837, -0.8749024009217221 
1.6399999999998358, -0.8687206554218246 
1.6499999999998347, -0.8603242519717152 
1.6599999999998336, -0.8498708296877538 
1.6699999999998325, -0.8383819698174106 
1.6799999999998314, -0.8276978372057033 
1.6899999999998303, -0.8196914335333835 
1.6999999999998292, -0.8152153014561143 
1.709999999999828, -0.813797733223699 
1.719999999999827, -0.8142678447897396 
1.729999999999826, -0.8155217716339435 
1.7399999999998248, -0.8168636859700646 
1.7499999999998237, -0.8179763196395479 
1.7599999999998226, -0.8187701061733845 
1.7699999999998215, -0.8192552547507829 
1.7799999999998204, -0.8194673208404847 
1.7899999999998193, -0.8194314166769923 
1.7999999999998182, -0.8191453352554252 
1.809999999999817, -0.8185683316554082 
1.819999999999816, -0.8176089756319496 
1.8299999999998149, -0.8161117734077097 
1.8399999999998138, -0.8138513267923445 
1.8499999999998127, -0.8105560041037307 
1.8599999999998116, -0.8059896136047733 
1.8699999999998105, -0.8000900415564619 
1.8799999999998094, -0.7930889853140192 
1.8899999999998083, -0.7854989655606037 
1.8999999999998072, -0.7779498714686085 
1.909999999999806, -0.77099354394013 
1.919999999999805, -0.7649944970635523 
1.9299999999998039, -0.760120590207013 
1.9399999999998028, -0.7563838319742936 
1.9499999999998017, -0.7536891285722991 
1.9599999999998006, -0.7518762837238641 
1.9699999999997995, -0.7507551374705936 
1.9799999999997984, -0.7501348574442095 
1.9899999999997973, -0.7498455547688114 
1.9999999999997962, -0.7497499152037612 
2.0099999999998173, -0.7497449922895051 
2.0199999999998384, -0.7497571508201247 
2.0299999999998595, -0.7497343535445624 
2.0399999999998806, -0.7496394749408697 
2.0499999999999017, -0.7494469379048782 
2.059999999999923, -0.7491431033741789 
2.069999999999944, -0.7487285008317907 
2.079999999999965, -0.7482180810468154 
2.089999999999986, -0.7476363959074057 
2.100000000000007, -0.747008679578645 
2.1100000000000283, -0.7463528123362475 
2.1200000000000494, -0.7456768656541509 
2.1300000000000705, -0.7449827830587968 
2.1400000000000916, -0.744272975031714 
2.1500000000001127, -0.7435561185413405 
2.160000000000134, -0.7428505415588289 
2.170000000000155, -0.7421856314705579 
2.180000000000176, -0.7416021277815704 
2.190000000000197, -0.741151363467777 
2.2000000000002182, -0.7408927919862969 
2.2100000000002393, -0.7408893082663962 
2.2200000000002604, -0.7412008942626954 
2.2300000000002815, -0.7418782312262864 
2.2400000000003026, -0.7429581651033763 
2.2500000000003237, -0.7444618519067425 
2.260000000000345, -0.7463944788747743 
2.270000000000366, -0.7487436244433988 
2.280000000000387, -0.7514726481135607 
2.290000000000408, -0.7545072610709247 
2.3000000000004293, -0.7577191775244723 
2.3100000000004504, -0.7609201069426528 
2.3200000000004715, -0.7638845255515544 
2.3300000000004926, -0.7664059279154493 
2.3400000000005137, -0.7683591436374251 
2.3500000000005348, -0.7697261573955163 
2.360000000000556, -0.7705719158588997 
2.370000000000577, -0.7709964451098454 
2.380000000000598, -0.7710954678592262 
2.390000000000619, -0.770941400642237 
2.4000000000006403, -0.7705803812688439 
2.4100000000006614, -0.770038232676328 
2.4200000000006825, -0.7693325926333576 
2.4300000000007036, -0.7684940840430821 
2.4400000000007247, -0.7676046320050313 
2.450000000000746, -0.766864307147945 
2.460000000000767, -0.7666931945368561 
2.470000000000788, -0.7678469374493923 
2.480000000000809, -0.771455165366081 
2.49000000000083, -0.7787959186633044 
2.5000000000008513, -0.7906333059282459 
2.5100000000008724, -0.8063323966195284 
2.5200000000008935, -0.8236108782323305 
2.5300000000009146, -0.8395932770563925 
2.5400000000009357, -0.8523419232660979 
2.550000000000957, -0.8614242035165507 
2.560000000000978, -0.8674064055870898 
2.570000000000999, -0.8711442553200209 
2.58000000000102, -0.8733848241805495 
2.5900000000010412, -0.8746591185642311 
2.6000000000010624, -0.8753053683950325 
2.6100000000010835, -0.8755209824146215 
2.6200000000011046, -0.8754046998643636 
2.6300000000011257, -0.8749803648956533 
2.6400000000011468, -0.8742022903343015 
2.650000000001168, -0.8729421610588803 
2.660000000001189, -0.8709555711442306 
2.67000000000121, -0.8678278313458524 
2.680000000001231, -0.8629135496032572 
2.6900000000012523, -0.8553309669687241 
2.7000000000012734, -0.8441558119058742 
2.7100000000012945, -0.82898098296816 
2.7200000000013156, -0.8106934278262896 
2.7300000000013367, -0.7916908647951539 
2.740000000001358, -0.7748769985928937 
2.750000000001379, -0.7621663777416616 
2.7600000000014, -0.7538728300056062 
2.770000000001421, -0.7491826115104578 
2.780000000001442, -0.7469282259498348 
2.7900000000014633, -0.746089222561014 
2.8000000000014844, -0.7459562968747747 
2.8100000000015055, -0.7461045091219968 
2.8200000000015266, -0.7463063855645682 
2.8300000000015477, -0.7464500217618532 
2.840000000001569, -0.7464810471315345 
2.85000000000159, -0.746366704301374 
2.860000000001611, -0.7460751644583856 
2.870000000001632, -0.745564753889134 
2.8800000000016532, -0.7447814508880359 
2.8900000000016743, -0.7436664506950729 
2.9000000000016954, -0.7421758221918747 
2.9100000000017165, -0.7403077001626848 
2.9200000000017377, -0.7381213061662888 
2.9300000000017588, -0.7357302109430239 
2.94000000000178, -0.7332700054464255 
2.950000000001801, -0.7308616736161909 
2.960000000001822, -0.7285917326941947 
2.970000000001843, -0.7265126316249282 
2.9800000000018643, -0.7246538155287959 
2.9900000000018854, -0.7230332199439303 
3.0000000000019065, -0.7216641817176539 
3.0100000000019276, -0.7205572748193338 
3.0200000000019487, -0.719718717628888 
3.03000000000197, -0.7191475192210869 
3.040000000001991, -0.7188332876267371 
3.050000000002012, -0.718755963923173 
3.060000000002033, -0.7188878274668088 
3.070000000002054, -0.7191972089010781 
3.0800000000020753, -0.7196527929535262 
3.0900000000020964, -0.7202273376730847 
3.1000000000021175, -0.7208998653195385 
3.1100000000021386, -0.7216555229063645 
3.1200000000021597, -0.7224823298184808 
3.130000000002181, -0.7233645335770121 
3.140000000002202, -0.7242741022545649 
3.150000000002223, -0.7251647523421827 
3.160000000002244, -0.7259744066170057 
3.1700000000022652, -0.7266385346580092 
3.1800000000022863, -0.7271085900122043 
3.1900000000023074, -0.7273642633914185 
3.2000000000023285, -0.7274128879182216 
3.2100000000023496, -0.7272795628448483 
3.2200000000023707, -0.7269966348315322 
3.230000000002392, -0.726598769445145 
3.240000000002413, -0.7261256995333885 
3.250000000002434, -0.7256329966221982 
3.260000000002455, -0.7252115529540327 
3.2700000000024763, -0.7250167366423642 
3.2800000000024974, -0.7253062323032398 
3.2900000000025185, -0.7264795274001414 
3.3000000000025396, -0.7291006255012576 
3.3100000000025607, -0.7338693951102547 
3.3200000000025818, -0.7414912238865881 
3.330000000002603, -0.7523988751431123 
3.340000000002624, -0.766353972644884 
3.350000000002645, -0.7821457823996353 
3.360000000002666, -0.7977782090500048 
3.3700000000026873, -0.8112793372604807 
3.3800000000027084, -0.8215684603750317 
3.3900000000027295, -0.8286517115880789 
3.4000000000027506, -0.8331769695669825 
3.4100000000027717, -0.8359131954686344 
3.420000000002793, -0.8374808660859638 
3.430000000002814, -0.8382992370164424 
3.440000000002835, -0.8386228254327792 
3.450000000002856, -0.8385898278812579 
3.460000000002877, -0.8382563853452171 
3.4700000000028983, -0.837612928254804 
3.4800000000029194, -0.8365840909453099 
3.4900000000029405, -0.8350131546991035 
3.5000000000029616, -0.8326314826516329 
3.5100000000029827, -0.829017610332859 
3.520000000003004, -0.8235673563703164 
3.530000000003025, -0.8155370003170942 
3.540000000003046, -0.8042815528894002 
3.550000000003067, -0.7897933793846088 
3.5600000000030882, -0.7733212828337639 
3.5700000000031094, -0.7573129411136512 
3.5800000000031305, -0.7442399573327627 
3.5900000000031516, -0.7352871473060398 
3.6000000000031727, -0.730148236013701 
3.6100000000031938, -0.7277436757798585 
3.620000000003215, -0.726954786227543 
3.630000000003236, -0.7269599509776257 
3.640000000003257, -0.7272636545123878 
3.650000000003278, -0.727607271972228 
3.6600000000032993, -0.7278717069938815 
3.6700000000033204, -0.7280071623468521 
3.6800000000033415, -0.7279904627583678 
3.6900000000033626, -0.7278010867702507 
3.7000000000033837, -0.7274081250105178 
3.710000000003405, -0.7267643263970148 
3.720000000003426, -0.725807724216199 
3.730000000003447, -0.7244744655348663 
3.740000000003468, -0.7227248772183513 
3.750000000003489, -0.720574797645982 
3.7600000000035103, -0.7181114822480064 
3.7700000000035314, -0.7154765023946694 
3.7800000000035525, -0.7128233416826318 
3.7900000000035736, -0.7102780084383535 
3.8000000000035947, -0.7079229669194967 
3.810000000003616, -0.7058027139126477 
3.820000000003637, -0.7039380970136315 
3.830000000003658, -0.7023389292198491 
3.840000000003679, -0.7010109532029904 
3.8500000000037002, -0.6999575933829835 
3.8600000000037213, -0.699178574872817 
3.8700000000037424, -0.6986676073936349 
3.8800000000037635, -0.6984108465245348 
3.8900000000037847, -0.6983871024038624 
3.9000000000038058, -0.698569924745181 
3.910000000003827, -0.6989309719057241 
3.920000000003848, -0.6994436893823244 
3.930000000003869, -0.7000862963112378 
3.94000000000389, -0.7008431691149642 
3.9500000000039113, -0.7017036760394005 
3.9600000000039324, -0.7026575292101382 
3.9700000000039535, -0.7036865410123015 
3.9800000000039746, -0.7047550554290349 
3.9900000000039957, -0.7058046472186428 
4.000000000004016, -0.706759761258137 
4.010000000003993, -0.7075457149251709 
4.02000000000397, -0.708110334178518 
4.030000000003946, -0.7084357020262815 
4.040000000003923, -0.708534266537092 
4.0500000000039, -0.7084355648958676 
4.0600000000038765, -0.7081737191633826 
4.070000000003853, -0.7077816626615012 
4.08000000000383, -0.7072933792098646 
4.090000000003807, -0.706754223968861 
4.100000000003783, -0.7062407391839456 
4.11000000000376, -0.7058930770400054 
4.120000000003737, -0.7059629690974462 
4.130000000003713, -0.7068750217347184 
4.14000000000369, -0.7092840323328089 
4.150000000003667, -0.7140803308841007 
4.1600000000036434, -0.7222510354062275 
4.17000000000362, -0.7344868473563327 
4.180000000003597, -0.7505511002695979 
4.1900000000035735, -0.7688093122532342 
4.20000000000355, -0.786608324113071 
4.210000000003527, -0.8015601714426822 
4.220000000003504, -0.8126206617621442 
4.23000000000348, -0.8200607234152182 
4.240000000003457, -0.8247551569197391 
4.250000000003434, -0.8275899382796383 
4.26000000000341, -0.8292302588662824 
4.270000000003387, -0.8301097578462485 
4.280000000003364, -0.8304877040298388 
4.2900000000033405, -0.83050437507022 
4.300000000003317, -0.8302166706701473 
4.310000000003294, -0.8296135444503783 
4.320000000003271, -0.8286130756577081 
4.330000000003247, -0.8270407734439521 
4.340000000003224, -0.8245871916769942 
4.350000000003201, -0.8207483777478188 
4.360000000003177, -0.8147788571036172 
4.370000000003154, -0.805752409875929 
4.380000000003131, -0.792903529220936 
4.390000000003107, -0.776320111585584 
4.400000000003084, -0.7575425135458081 
4.410000000003061, -0.7392192144465441 
4.4200000000030375, -0.7237951548422707 
4.430000000003014, -0.7124348376278677 
4.440000000002991, -0.7049885679408561 
4.450000000002968, -0.7005997402715537 
4.460000000002944, -0.6982826945961398 
4.470000000002921, -0.6972210168494067 
4.480000000002898, -0.6968429883868141 
4.490000000002874, -0.6967896240630548 
4.500000000002851, -0.6968525265717935 
4.510000000002828, -0.6969166568514156 
4.520000000002804, -0.6969182812470651 
4.530000000002781, -0.6968175954640278 
4.540000000002758, -0.6965826716003873 
4.5500000000027345, -0.6961821080589782 
4.560000000002711, -0.6955854586396963 
4.570000000002688, -0.694771093734803 
4.580000000002665, -0.6937387515955662 
4.590000000002641, -0.6925192458194325 
4.600000000002618, -0.6911721992594781 
4.610000000002595, -0.6897699656873894 
4.620000000002571, -0.6883771048499543 
4.630000000002548, -0.6870376199437854 
4.640000000002525, -0.685774476260069 
4.6500000000025015, -0.6845973729878145 
4.660000000002478, -0.6835122695417092 
4.670000000002455, -0.6825284737104297 
4.6800000000024315, -0.6816622113407791 
4.690000000002408, -0.6809373183678097 
4.700000000002385, -0.6803839886781775 
4.710000000002362, -0.6800362668659422 
4.720000000002338, -0.6799288790878344 
4.730000000002315, -0.6800941381048025 
4.740000000002292, -0.6805597500320315 
4.750000000002268, -0.6813480947282227 
4.760000000002245, -0.6824768737090439 
4.770000000002222, -0.6839600509818268 
4.7800000000021985, -0.6858069646437567 
4.790000000002175, -0.6880166776227069 
4.800000000002152, -0.69056486586568 
4.810000000002129, -0.6933835684372427 
4.820000000002105, -0.6963418655236643 
4.830000000002082, -0.6992455995913256 
4.840000000002059, -0.7018738247102186 
4.850000000002035, -0.7040446823351443 
4.860000000002012, -0.7056702320847978 
4.870000000001989, -0.7067628828806019 
4.880000000001965, -0.7073984514093328 
4.890000000001942, -0.7076699123811593 
4.900000000001919, -0.707656538928098 
4.9100000000018955, -0.7074114999491867 
4.920000000001872, -0.706960639022918 
