t, s[1].omega / s[0].omega 
0, -0.10999783401112133 
0.009999999999999995, -0.10995287376625318 
0.019999999999999934, -0.11022920310937892 
0.029999999999999874, -0.11076863180994652 
0.04000000000000012, -0.111472427739942 
0.050000000000000405, -0.11221545292150362 
0.06000000000000069, -0.1128766064857786 
0.07000000000000098, -0.1133677567737312 
0.08000000000000126, -0.1136423233236453 
0.09000000000000155, -0.11368264037419169 
0.10000000000000184, -0.11347849381678399 
0.11000000000000212, -0.11300737470817404 
0.12000000000000241, -0.11222010322335992 
0.130000000000002, -0.11103367302718414 
0.1400000000000009, -0.10933867780455801 
0.1499999999999998, -0.10703714323403968 
0.1599999999999987, -0.10412129661439355 
0.1699999999999976, -0.10075924857855774 
0.1799999999999965, -0.09729519488496545 
0.1899999999999954, -0.0941155484637577 
0.1999999999999943, -0.09148410429958122 
0.2099999999999932, -0.0894836924905076 
0.2199999999999921, -0.08806596956603235 
0.229999999999991, -0.0871247558853476 
0.2399999999999899, -0.08654149163115298 
0.2499999999999888, -0.08620259241554158 
0.2599999999999877, -0.08600507252627172 
0.2699999999999866, -0.08586073734967677 
0.2799999999999855, -0.0856994774380243 
0.2899999999999844, -0.08546805477124841 
0.2999999999999833, -0.08512250422513597 
0.3099999999999822, -0.0846147893880528 
0.3199999999999811, -0.08387401757971044 
0.32999999999998, -0.08278017207802141 
0.3399999999999789, -0.08112809164403138 
0.3499999999999778, -0.07859046627801002 
0.35999999999997667, -0.07472841356938384 
0.36999999999997557, -0.06916368060642622 
0.37999999999997447, -0.06197867355594853 
0.38999999999997337, -0.054025240790449104 
0.39999999999997227, -0.04657220171824636 
0.40999999999997117, -0.04052005944040244 
0.41999999999997006, -0.03607242460537301 
0.42999999999996896, -0.03298660397305193 
0.43999999999996786, -0.030903681383676808 
0.44999999999996676, -0.02951002154436439 
0.45999999999996566, -0.02857075238062031 
0.46999999999996456, -0.027916969537430492 
0.47999999999996346, -0.027427247530551258 
0.48999999999996235, -0.0270136427750109 
0.49999999999996125, -0.02661076536292256 
0.5099999999999602, -0.026164591288442663 
0.519999999999959, -0.025618287028391844 
0.529999999999958, -0.02489160441866394 
0.5399999999999568, -0.02384745551926802 
0.5499999999999557, -0.022236355486251698 
0.5599999999999546, -0.01961819797664601 
0.5699999999999535, -0.01531848310951823 
0.5799999999999524, -0.008623738830029861 
0.5899999999999513, 0.0005225651680443674 
0.5999999999999502, 0.010493117857446183 
0.6099999999999491, 0.0197003125373716 
0.619999999999948, 0.026816127406656974 
0.6299999999999469, 0.03168184276661519 
0.6399999999999458, 0.034765956768769354 
0.6499999999999447, 0.03661809419474506 
0.6599999999999436, 0.03766501644839524 
0.6699999999999425, 0.03819955382397912 
0.6799999999999414, 0.03841893709438846 
0.6899999999999403, 0.03845924196358698 
0.6999999999999392, 0.038417608585648536 
0.7099999999999381, 0.03836698367342676 
0.719999999999937, 0.038369157905162384 
0.7299999999999359, 0.03849019706609142 
0.7399999999999348, 0.03882174017952981 
0.7499999999999337, 0.03951202540904645 
0.7599999999999326, 0.04080706917384919 
0.7699999999999315, 0.043081209528646566 
0.7799999999999304, 0.046777791387768566 
0.7899999999999293, 0.05212982541343627 
0.7999999999999282, 0.05872375358144102 
0.8099999999999271, 0.06545012700971092 
0.819999999999926, 0.07117366396108375 
0.8299999999999249, 0.07538176716747781 
0.8399999999999238, 0.07815983666026514 
0.8499999999999227, 0.07983494281420193 
0.8599999999999216, 0.08073222910748654 
0.8699999999999205, 0.0811019593351592 
0.8799999999999194, 0.08112659839068972 
0.8899999999999183, 0.08094371187225236 
0.8999999999999172, 0.08066170999078899 
0.9099999999999161, 0.0803669225507063 
0.919999999999915, 0.08012798412864211 
0.9299999999999139, 0.08000287919043031 
0.9399999999999128, 0.08005019645842659 
0.9499999999999117, 0.08034304900593531 
0.9599999999999106, 0.0809815875089315 
0.9699999999999095, 0.08209450402829263 
0.9799999999999084, 0.08381001687161607 
0.9899999999999073, 0.08617601989736726 
0.9999999999999062, 0.08905259714238728 
1.0099999999999052, 0.09208310098966559 
1.019999999999904, 0.09483224233319472 
1.029999999999903, 0.09698975105128635 
1.039999999999902, 0.09845281924566651 
1.0499999999999008, 0.09926610359368404 
1.0599999999998997, 0.09952924808460675 
1.0699999999998986, 0.09934490809988866 
1.0799999999998975, 0.09881018078046551 
1.0899999999998964, 0.09802755250027524 
1.0999999999998953, 0.09711187586008144 
1.1099999999998942, 0.09618121099425084 
1.119999999999893, 0.0953368646066235 
1.129999999999892, 0.09464885235893175 
1.1399999999998909, 0.09415668250792875 
1.1499999999998898, 0.09388147653479388 
1.1599999999998887, 0.09383918536633508 
1.1699999999998876, 0.09404686026103878 
1.1799999999998865, 0.09451759969192067 
1.1899999999998854, 0.09524310373993913 
1.1999999999998843, 0.09616984332376519 
1.2099999999998832, 0.09718605265053573 
1.219999999999882, 0.0981382734447004 
1.229999999999881, 0.09887349520120027 
1.2399999999998799, 0.09927588255269398 
1.2499999999998788, 0.09927318015881177 
1.2599999999998777, 0.09881956564684496 
1.2699999999998766, 0.09788047118507247 
1.2799999999998755, 0.09644077073854766 
1.2899999999998744, 0.09454132050501825 
1.2999999999998733, 0.09232093118494708 
1.3099999999998722, 0.09001369378246167 
1.319999999999871, 0.08787397789670272 
1.32999999999987, 0.08607944021516103 
1.3399999999998689, 0.08469139565982328 
1.3499999999998678, 0.08368444413021672 
1.3599999999998666, 0.0829977320484282 
1.3699999999998655, 0.08256974314720512 
1.3799999999998644, 0.08235001575005278 
1.3899999999998633, 0.08229557100081834 
1.3999999999998622, 0.08236034850472475 
1.4099999999998611, 0.08248418276981259 
1.41999999999986, 0.0825869534052813 
1.429999999999859, 0.08257053554054199 
1.4399999999998578, 0.08232463303688436 
1.4499999999998567, 0.08172780641027402 
1.4599999999998556, 0.08063892031513062 
1.4699999999998545, 0.07888701302983159 
1.4799999999998534, 0.07628548942982716 
1.4899999999998523, 0.07271170247426473 
1.4999999999998512, 0.06826706699097182 
1.5099999999998501, 0.06340672963303398 
1.519999999999849, 0.05881629805223507 
1.529999999999848, 0.05504407958037579 
1.5399999999998468, 0.05225915612996942 
1.5499999999998457, 0.050330540299703394 
1.5599999999998446, 0.04902820537164457 
1.5699999999998435, 0.048148607102950255 
1.5799999999998424, 0.04754744197668238 
1.5899999999998413, 0.04712905296231046 
1.5999999999998402, 0.046825913658365206 
1.6099999999998391, 0.046579885980347145 
1.619999999999838, 0.04632764382195483 
1.629999999999837, 0.04599031568469501 
1.6399999999998358, 0.0454660112144015 
1.6499999999998347, 0.044621401629854854 
1.6599999999998336, 0.043277136774818106 
1.6699999999998325, 0.0411866889827787 
1.6799999999998314, 0.03802615537475519 
1.6899999999998303, 0.033450839999987436 
1.6999999999998292, 0.02730973986321883 
1.709999999999828, 0.020003862782398504 
1.719999999999827, 0.0126069937034882 
1.729999999999826, 0.006314099121616996 
1.7399999999998248, 0.0016953532631143638 
1.7499999999998237, -0.0011716623553809583 
1.7599999999998226, -0.002723723981399778 
1.7699999999998215, -0.0035792323617472198 
1.7799999999998204, -0.004011421996891445 
1.7899999999998193, -0.004185974751654073 
1.7999999999998182, -0.004202195602123488 
1.809999999999817, -0.004125993242336654 
1.819999999999816, -0.004012654386347182 
1.8299999999998149, -0.003922630830329363 
1.8399999999998138, -0.003932762630430764 
1.8499999999998127, -0.004144923913832481 
1.8599999999998116, -0.0046952965526940275 
1.8699999999998105, -0.005767967058475834 
1.8799999999998094, -0.007610936448404289 
1.8899999999998083, -0.010533821506046353 
1.8999999999998072, -0.014831339171360713 
1.909999999999806, -0.020561028611887796 
1.919999999999805, -0.02723855007171778 
1.9299999999998039, -0.033825713006594024 
1.9399999999998028, -0.039287145087705054 
1.9499999999998017, -0.043186266434516715 
1.9599999999998006, -0.04568430736575001 
1.9699999999997995, -0.04717188886109422 
1.9799999999997984, -0.04800253548276058 
1.9899999999997973, -0.04841849500540685 
1.9999999999997962, -0.04856788620727333 
2.0099999999998173, -0.048539366436800804 
2.0199999999998384, -0.04839094827987688 
2.0299999999998595, -0.04817094505659622 
2.0399999999998806, -0.04793295668214614 
2.0499999999999017, -0.04774555192771965 
2.059999999999923, -0.047696650383782985 
2.069999999999944, -0.04789436030111917 
2.079999999999965, -0.048467813452203246 
2.089999999999986, -0.04956829640557088 
2.100000000000007, -0.051359952144091635 
2.1100000000000283, -0.05397500138693281 
2.1200000000000494, -0.057411422582502036 
2.1300000000000705, -0.06141164040447437 
2.1400000000000916, -0.06546249363584936 
2.1500000000001127, -0.06901291634290588 
2.160000000000134, -0.07174154061487076 
2.170000000000155, -0.07362286487090931 
2.180000000000176, -0.07480393928503552 
2.190000000000197, -0.07546535085647882 
2.2000000000002182, -0.07575232446734532 
2.2100000000002393, -0.0757617375835061 
2.2200000000002604, -0.07555264287000975 
2.2300000000002815, -0.07516297559044785 
2.2400000000003026, -0.07462707515665536 
2.2500000000003237, -0.07399167683592378 
2.260000000000345, -0.07332605548354079 
2.270000000000366, -0.07272122096845487 
2.280000000000387, -0.072278345884265 
2.290000000000408, -0.07209444240980628 
2.3000000000004293, -0.07225341759576304 
2.3100000000004504, -0.07282071605376586 
2.3200000000004715, -0.07383038502040147 
2.3300000000004926, -0.07525661387472493 
2.3400000000005137, -0.07698237309221342 
2.3500000000005348, -0.0788020166919191 
2.360000000000556, -0.08048260733825352 
2.370000000000577, -0.08184914191139102 
2.380000000000598, -0.0828272662369374 
2.390000000000619, -0.08342418491778021 
2.4000000000006403, -0.08368298260443371 
2.4100000000006614, -0.08364592517027966 
2.4200000000006825, -0.08333686488692318 
2.4300000000007036, -0.08275883251108167 
2.4400000000007247, -0.08190292609944957 
2.450000000000746, -0.08076790762784955 
2.460000000000767, -0.07938776943985522 
2.470000000000788, -0.07785407269065865 
2.480000000000809, -0.07631164609686239 
2.49000000000083, -0.07492054151690337 
2.5000000000008513, -0.07380864571402643 
2.5100000000008724, -0.07304755057927796 
2.5200000000008935, -0.07265701466551971 
2.5300000000009146, -0.07261872706888584 
2.5400000000009357, -0.07288263532657581 
2.550000000000957, -0.07336616095038401 
2.560000000000978, -0.07395888796352051 
2.570000000000999, -0.07454196379824914 
2.58000000000102, -0.07501497857878926 
2.5900000000010412, -0.07531250814689186 
2.6000000000010624, -0.07540113080694663 
2.6100000000010835, -0.07526294311624374 
2.6200000000011046, -0.07487638164059274 
2.6300000000011257, -0.07420079900454282 
2.6400000000011468, -0.07316786435060821 
2.650000000001168, -0.07168561239737714 
2.660000000001189, -0.06966754925604618 
2.67000000000121, -0.06709687816168797 
2.680000000001231, -0.06410299927442065 
2.6900000000012523, -0.0609760623687942 
2.7000000000012734, -0.05806555519419947 
2.7100000000012945, -0.05563242911892315 
2.7200000000013156, -0.05377966911381782 
2.7300000000013367, -0.052484088311686626 
2.740000000001358, -0.051660627202001874 
2.750000000001379, -0.05120562683658477 
2.7600000000014, -0.05101309200164439 
2.770000000001421, -0.05097921136712889 
2.780000000001442, -0.05100761019371501 
2.7900000000014633, -0.05101692865577111 
2.8000000000014844, -0.050945053061667335 
2.8100000000015055, -0.05074537475324072 
2.8200000000015266, -0.050375480678843364 
2.8300000000015477, -0.0497811487120238 
2.840000000001569, -0.04887768922185293 
2.85000000000159, -0.04753099163290001 
2.860000000001611, -0.04554826602666642 
2.870000000001632, -0.04270777111694212 
2.8800000000016532, -0.03887249166057956 
2.8900000000016743, -0.03417913088876901 
2.9000000000016954, -0.029133547503226248 
2.9100000000017165, -0.02441277540536716 
2.9200000000017377, -0.020510048639725158 
2.9300000000017588, -0.017575422399470804 
2.94000000000178, -0.015512489416574574 
2.950000000001801, -0.01413513549162718 
2.960000000001822, -0.01325901173936643 
2.970000000001843, -0.012728489151912084 
2.9800000000018643, -0.012415660627007549 
2.9900000000018854, -0.012215368876119126 
3.0000000000019065, -0.012043021398374158 
3.0100000000019276, -0.011832526548129427 
3.0200000000019487, -0.011530366896021433 
3.03000000000197, -0.011084392734387952 
3.040000000001991, -0.010427642381758324 
3.050000000002012, -0.009457389744821887 
3.060000000002033, -0.00801115818327874 
3.070000000002054, -0.005851890612652956 
3.0800000000020753, -0.00270142934306464 
3.0900000000020964, 0.0014650177078953364 
3.1000000000021175, 0.006331804218049708 
3.1100000000021386, 0.011547090469487872 
3.1200000000021597, 0.01629708288158129 
3.130000000002181, 0.02004379452399205 
3.140000000002202, 0.0226755628283796 
3.150000000002223, 0.024347813452006338 
3.160000000002244, 0.025289998469017493 
3.1700000000022652, 0.025710041413644198 
3.1800000000022863, 0.0257744797441375 
3.1900000000023074, 0.025616271386122835 
3.2000000000023285, 0.02534378471638583 
3.2100000000023496, 0.0250445890357354 
3.2200000000023707, 0.024787673922517524 
3.230000000002392, 0.0246290101873446 
3.240000000002413, 0.024622274790053855 
3.250000000002434, 0.024833965774926255 
3.260000000002455, 0.025361129097862468 
3.2700000000024763, 0.026346985523797956 
3.2800000000024974, 0.027979174509311273 
3.2900000000025185, 0.030437067433853743 
3.3000000000025396, 0.03375798612743176 
3.3100000000025607, 0.03768165298546217 
3.3200000000025818, 0.041662448533131564 
3.330000000002603, 0.045132467388694524 
3.340000000002624, 0.047772528667448785 
3.350000000002645, 0.04954925264934511 
3.360000000002666, 0.05058769616141993 
3.3700000000026873, 0.05105106131597831 
3.3800000000027084, 0.0510882199208574 
3.3900000000027295, 0.05082738344792813 
3.4000000000027506, 0.050383448174542475 
3.4100000000027717, 0.0498608500302568 
3.420000000002793, 0.04934926622220477 
3.430000000002814, 0.048918976399157564 
3.440000000002835, 0.04862273360841612 
3.450000000002856, 0.048505057258647954 
3.460000000002877, 0.04861516018949048 
3.4700000000028983, 0.049018369483310065 
3.4800000000029194, 0.04979933857303042 
3.4900000000029405, 0.05104592214832426 
3.5000000000029616, 0.052801242939936065 
3.5100000000029827, 0.05499181283801775 
3.520000000003004, 0.057387686768331156 
3.530000000003025, 0.05966371090853649 
3.540000000003046, 0.061536968909041034 
3.550000000003067, 0.0628617606182448 
3.5600000000030882, 0.06362182956425852 
3.5700000000031094, 0.06386992279258392 
3.5800000000031305, 0.06368005823976444 
3.5900000000031516, 0.06313285303961663 
3.6000000000031727, 0.062321727320501244 
3.6100000000031938, 0.06135879638373122 
3.620000000003215, 0.060365524935474056 
3.630000000003236, 0.05945040775016316 
3.640000000003257, 0.05869031243067996 
3.650000000003278, 0.05812835729336231 
3.6600000000032993, 0.057786032744271035 
3.6700000000033204, 0.057678785342004824 
3.6800000000033415, 0.05782606784322284 
3.6900000000033626, 0.0582508278296978 
3.7000000000033837, 0.05896547029966186 
3.710000000003405, 0.059945516694289755 
3.720000000003426, 0.06110385003589701 
3.730000000003447, 0.062290244157260886 
3.740000000003468, 0.06332944854005189 
3.750000000003489, 0.06407443715907243 
3.7600000000035103, 0.06443480270968689 
3.7700000000035314, 0.064368987569312 
3.7800000000035525, 0.06386286814859947 
3.7900000000035736, 0.06292114155585657 
3.8000000000035947, 0.06158156725006987 
3.810000000003616, 0.0599406037521936 
3.820000000003637, 0.0581604095616751 
3.830000000003658, 0.05643276205631126 
3.840000000003679, 0.054916584991781425 
3.8500000000037002, 0.05369708465695244 
3.8600000000037213, 0.05279033522351384 
3.8700000000037424, 0.05217431253819119 
3.8800000000037635, 0.05181793387287219 
3.8900000000037847, 0.05169545059941242 
3.9000000000038058, 0.05178654050062624 
3.910000000003827, 0.05206619689257186 
3.920000000003848, 0.05248978814695837 
3.930000000003869, 0.052981738521467335 
3.94000000000389, 0.05343738957352273 
3.9500000000039113, 0.05373967203357684 
3.9600000000039324, 0.0537788141610188 
3.9700000000039535, 0.05346038060149775 
3.9800000000039746, 0.05270019940169537 
3.9900000000039957, 0.05142075319622398 
4.000000000004016, 0.049569718635163657 
4.010000000003993, 0.04717144564609674 
4.02000000000397, 0.044386877053653434 
4.030000000003946, 0.041512816956591994 
4.040000000003923, 0.03887640314925892 
4.0500000000039, 0.036697266297402 
4.0600000000038765, 0.03503572004409766 
4.070000000003853, 0.03384024148324567 
4.08000000000383, 0.03302031073448693 
4.090000000003807, 0.03249212088708755 
4.100000000003783, 0.0321926949187477 
4.11000000000376, 0.032075603675607633 
4.120000000003737, 0.032098952294710686 
4.130000000003713, 0.032211928625961915 
4.14000000000369, 0.03234514196811504 
4.150000000003667, 0.03240909422334605 
4.1600000000036434, 0.032300381899713196 
4.17000000000362, 0.03190868800153259 
4.180000000003597, 0.031117215984092162 
4.1900000000035735, 0.029798598751273286 
4.20000000000355, 0.027822457260290222 
4.210000000003527, 0.025100627830890086 
4.220000000003504, 0.021682168941651956 
4.23000000000348, 0.017844230111220622 
4.240000000003457, 0.014052161461948159 
4.250000000003434, 0.010750095201984066 
4.26000000000341, 0.008161953432746349 
4.270000000003387, 0.006276520084881711 
4.280000000003364, 0.004961439266878296 
4.2900000000033405, 0.004068811038084609 
4.300000000003317, 0.003481892019668556 
4.310000000003294, 0.003120387736954431 
4.320000000003271, 0.0029289716343894735 
4.330000000003247, 0.0028617177409329298 
4.340000000003224, 0.002867485878613241 
4.350000000003201, 0.002879593599253706 
4.360000000003177, 0.0028125721221563347 
4.370000000003154, 0.002565428705337991 
4.380000000003131, 0.0020259669698932535 
4.390000000003107, 0.0010707291417007935 
4.400000000003084, -0.0003272279499643721 
4.410000000003061, -0.002083894411288112 
4.4200000000030375, -0.004602600935735572 
4.430000000003014, -0.007799372618734634 
4.440000000002991, -0.011350586653685091 
4.450000000002968, -0.014766140418419027 
4.460000000002944, -0.017618950726985348 
4.470000000002921, -0.01972410662089865 
4.480000000002898, -0.021123059665432015 
4.490000000002874, -0.021960020279268296 
4.500000000002851, -0.022382721333380772 
4.510000000002828, -0.022503175047815203 
4.520000000002804, -0.02239608673009334 
4.530000000002781, -0.02211154072908595 
4.540000000002758, -0.02169106370840664 
4.5500000000027345, -0.021182824396020844 
4.560000000002711, -0.020652394245243937 
4.570000000002688, -0.02018533198473004 
4.580000000002665, -0.019881442293651408 
4.590000000002641, -0.01984654386483283 
4.600000000002618, -0.02018843197598604 
4.610000000002595, -0.021015332712478914 
4.620000000002571, -0.02242300627741243 
4.630000000002548, -0.024452002596306324 
4.640000000002525, -0.027015979698530635 
4.6500000000025015, -0.0298543788211378 
4.660000000002478, -0.032592668218991525 
4.670000000002455, -0.034903316762941734 
4.6800000000024315, -0.036630850703094686 
4.690000000002408, -0.03778670855799817 
4.700000000002385, -0.03846598999982224 
4.710000000002362, -0.03877395833134292 
4.720000000002338, -0.03879242725624595 
4.730000000002315, -0.038575136449677624 
4.740000000002292, -0.03815689367115836 
4.750000000002268, -0.03756844681312639 
4.760000000002245, -0.03685281675431512 
4.770000000002222, -0.03607748037143931 
4.7800000000021985, -0.035335384997126545 
4.790000000002175, -0.034732886880162725 
4.800000000002152, -0.034372817819819886 
4.810000000002129, -0.03434404470231833 
4.820000000002105, -0.03471907720170681 
