t, s[1].omega / s[0].omega 
0, -0.19985284246853735 
0.009999999999999995, -0.1840579916640074 
0.019999999999999934, -0.16943418243127192 
0.029999999999999874, -0.158479762316749 
0.04000000000000012, -0.15108905886448334 
0.050000000000000405, -0.14628869860710422 
0.06000000000000069, -0.1431823708539158 
0.07000000000000098, -0.1411540837933984 
0.08000000000000126, -0.13982166470298035 
0.09000000000000155, -0.13895897149313857 
0.10000000000000184, -0.13843904058251563 
0.11000000000000212, -0.13820045237289236 
0.12000000000000241, -0.13823084277907816 
0.130000000000002, -0.1385631566600426 
0.1400000000000009, -0.13928340719245655 
0.1499999999999998, -0.1405518529904799 
0.1599999999999987, -0.14264222838369617 
0.1699999999999976, -0.1460032324884808 
0.1799999999999965, -0.15133066659016747 
0.1899999999999954, -0.1595700853320733 
0.1999999999999943, -0.17159202204441418 
0.2099999999999932, -0.18714778248254324 
0.2199999999999921, -0.203565776002407 
0.229999999999991, -0.2166519267755617 
0.2399999999999899, -0.22424312567799914 
0.2499999999999888, -0.22743617199751495 
0.2599999999999877, -0.2283451582735762 
0.2699999999999866, -0.22839594405839647 
0.2799999999999855, -0.22822475233132788 
0.2899999999999844, -0.22804751014959063 
0.2999999999999833, -0.22791663995604622 
0.3099999999999822, -0.22783419159962498 
0.3199999999999811, -0.22779236696914884 
0.32999999999998, -0.2277862261653049 
0.3399999999999789, -0.22781756317389484 
0.3499999999999778, -0.22789686690755487 
0.35999999999997667, -0.2280455911219852 
0.36999999999997557, -0.22829908663674964 
0.37999999999997447, -0.2287095658212282 
0.38999999999997337, -0.22934770028036677 
0.39999999999997227, -0.2303004587264331 
0.40999999999997117, -0.23166087649197697 
0.41999999999997006, -0.23350284556886236 
0.42999999999996896, -0.23583567205045192 
0.43999999999996786, -0.238550157235508 
0.44999999999996676, -0.24140048156592284 
0.45999999999996566, -0.24407073169906054 
0.46999999999996456, -0.24630256717669147 
0.47999999999996346, -0.24798337982416246 
0.48999999999996235, -0.24913603115987368 
0.49999999999996125, -0.24985149050340535 
0.5099999999999602, -0.2502286967025414 
0.519999999999959, -0.2503448320177854 
0.529999999999958, -0.25024802088414966 
0.5399999999999568, -0.2499599515025505 
0.5499999999999557, -0.24948187495054164 
0.5599999999999546, -0.24880305531798105 
0.5699999999999535, -0.24791345568848247 
0.5799999999999524, -0.24682130975173416 
0.5899999999999513, -0.24557037367212042 
0.5999999999999502, -0.24424478267335062 
0.6099999999999491, -0.24295211588037188 
0.619999999999948, -0.24179149805275585 
0.6299999999999469, -0.24082665860915994 
0.6399999999999458, -0.24007723632107747 
0.6499999999999447, -0.2395256001323452 
0.6599999999999436, -0.23912981192891686 
0.6699999999999425, -0.2388367864960904 
0.6799999999999414, -0.2385936139636032 
0.6899999999999403, -0.23835560092016142 
0.6999999999999392, -0.23808952257940952 
0.7099999999999381, -0.2377719447530576 
0.719999999999937, -0.23738404657405562 
0.7299999999999359, -0.2369044090192216 
0.7399999999999348, -0.2362996942485282 
0.7499999999999337, -0.2355108147028965 
0.7599999999999326, -0.23442948601492333 
0.7699999999999315, -0.2328580159893395 
0.7799999999999304, -0.23045042046515624 
0.7899999999999293, -0.22666747907500037 
0.7999999999999282, -0.22087079278943628 
0.8099999999999271, -0.21274276570133804 
0.819999999999926, -0.20288546232055835 
0.8299999999999249, -0.19280816776607484 
0.8399999999999238, -0.18399729417818192 
0.8499999999999227, -0.17712562572070675 
0.8599999999999216, -0.17211180088591824 
0.8699999999999205, -0.16855566779409184 
0.8799999999999194, -0.1660412542967205 
0.8899999999999183, -0.1642436935171697 
0.8999999999999172, -0.1629371270949283 
0.9099999999999161, -0.1619739706717291 
0.919999999999915, -0.161263288106603 
0.9299999999999139, -0.16075541177089075 
0.9399999999999128, -0.1604334404742181 
0.9499999999999117, -0.1603111982097157 
0.9599999999999106, -0.1604378569999782 
0.9699999999999095, -0.16091034532290946 
0.9799999999999084, -0.16189455864141816 
0.9899999999999073, -0.16365089025179527 
0.9999999999999062, -0.16653397586484028 
1.0099999999999052, -0.17085382651448983 
1.019999999999904, -0.17632200836263512 
1.029999999999903, -0.18089296325773485 
1.039999999999902, -0.1803606872316987 
1.0499999999999008, -0.17184882049927958 
1.0599999999998997, -0.1581571437775134 
1.0699999999998986, -0.144777118589698 
1.0799999999998975, -0.13461698384097917 
1.0899999999998964, -0.1277602908545579 
1.0999999999998953, -0.12332354846000075 
1.1099999999998942, -0.12046660517040822 
1.119999999999893, -0.11861205226548821 
1.129999999999892, -0.11740405269903972 
1.1399999999998909, -0.11663441046476568 
1.1499999999998898, -0.11618887135238179 
1.1599999999998887, -0.11601598769360566 
1.1699999999998876, -0.11611277486869545 
1.1799999999998865, -0.1165232297972644 
1.1899999999998854, -0.11734912398445593 
1.1999999999998843, -0.11877587618859808 
1.2099999999998832, -0.12111909089556924 
1.219999999999882, -0.12489523343492011 
1.229999999999881, -0.13089476688843146 
1.2399999999998799, -0.1401363564180005 
1.2499999999998788, -0.1533541325574611 
1.2599999999998777, -0.16965529368406024 
1.2699999999998766, -0.18545035640440033 
1.2799999999998755, -0.19656235263175578 
1.2899999999998744, -0.20198631690117744 
1.2999999999998733, -0.20366079251508812 
1.3099999999998722, -0.2037198156029448 
1.319999999999871, -0.20332742566590856 
1.32999999999987, -0.20291902712198012 
1.3399999999998689, -0.20260659309333864 
1.3499999999998678, -0.2023954642190081 
1.3599999999998666, -0.20226732502687134 
1.3699999999998655, -0.20220617911713176 
1.3799999999998644, -0.20220505468427502 
1.3899999999998633, -0.20226770933754512 
1.3999999999998622, -0.2024100939109165 
1.4099999999998611, -0.20266292908226133 
1.41999999999986, -0.2030754436014793 
1.429999999999859, -0.20371955184792262 
1.4399999999998578, -0.20469275940641357 
1.4499999999998567, -0.20611591819352126 
1.4599999999998556, -0.20811742828898136 
1.4699999999998545, -0.21079024310806743 
1.4799999999998534, -0.21411396326195628 
1.4899999999998523, -0.21787306699194425 
1.4999999999998512, -0.2216605099027872 
1.5099999999998501, -0.22502916286211364 
1.519999999999849, -0.22769247534905132 
1.529999999999848, -0.22959896965124268 
1.5399999999998468, -0.23085678350692612 
1.5499999999998457, -0.2316219731143319 
1.5599999999998446, -0.2320309420035945 
1.5699999999998435, -0.23217987192254946 
1.5799999999998424, -0.23212745016562422 
1.5899999999998413, -0.23190422073208888 
1.5999999999998402, -0.2315225972792601 
1.6099999999998391, -0.23098728986573241 
1.619999999999838, -0.23030721115743913 
1.629999999999837, -0.22950790177152305 
1.6399999999998358, -0.22863953376339569 
1.6499999999998347, -0.2277738368471894 
1.6599999999998336, -0.22698858118789578 
1.6699999999998325, -0.22634745116679583 
1.6799999999998314, -0.22588585608793027 
1.6899999999998303, -0.22560670406880495 
1.6999999999998292, -0.225483561340327 
1.709999999999828, -0.2254682442238755 
1.719999999999827, -0.22550190271136458 
1.729999999999826, -0.22552773018537114 
1.7399999999998248, -0.22550082868080296 
1.7499999999998237, -0.22539122098853742 
1.7599999999998226, -0.2251798630988918 
1.7699999999998215, -0.2248505038100761 
1.7799999999998204, -0.22437990103417085 
1.7899999999998193, -0.22372662276132865 
1.7999999999998182, -0.2228166662065172 
1.809999999999817, -0.22152405463914837 
1.819999999999816, -0.21964943108241458 
1.8299999999998149, -0.2169161399661133 
1.8399999999998138, -0.21303384663305472 
1.8499999999998127, -0.20788450063250058 
1.8599999999998116, -0.2017610413476565 
1.8699999999998105, -0.19538374628962932 
1.8799999999998094, -0.18954886672789428 
1.8899999999998083, -0.18473662728640872 
1.8999999999998072, -0.1810310805618146 
1.909999999999806, -0.17827835013243665 
1.919999999999805, -0.1762553200851213 
1.9299999999998039, -0.17475837457321214 
1.9399999999998028, -0.17363024496019136 
1.9499999999998017, -0.17275931772679676 
1.9599999999998006, -0.17207116999457633 
1.9699999999997995, -0.1715200588920627 
1.9799999999997984, -0.1710827088514651 
1.9899999999997973, -0.17075496131232365 
1.9999999999997962, -0.1705513114409069 
2.0099999999998173, -0.1705067971498908 
2.0199999999998384, -0.17067866632460144 
2.0299999999998595, -0.17113798282936019 
2.0399999999998806, -0.17191923080294774 
2.0499999999999017, -0.1728435273601769 
2.059999999999923, -0.1730751368490444 
2.069999999999944, -0.1705069938562362 
2.079999999999965, -0.16220635375052259 
2.089999999999986, -0.14751029005675442 
2.100000000000007, -0.1302667825248281 
2.1100000000000283, -0.1152758674784337 
2.1200000000000494, -0.10442616244997711 
2.1300000000000705, -0.09722790881128633 
2.1400000000000916, -0.09257435406799634 
2.1500000000001127, -0.08955005729521653 
2.160000000000134, -0.08755191473328575 
2.170000000000155, -0.08621375896194342 
2.180000000000176, -0.0853220273461233 
2.190000000000197, -0.08475914565381543 
2.2000000000002182, -0.08447177385363139 
2.2100000000002393, -0.08445678857786586 
2.2200000000002604, -0.08476101644196027 
2.2300000000002815, -0.08549466620639655 
2.2400000000003026, -0.08686207983916318 
2.2500000000003237, -0.08921508102401762 
2.260000000000345, -0.09312373983795617 
2.270000000000366, -0.09939747439372623 
2.280000000000387, -0.10877947729416138 
2.290000000000408, -0.12070994103604918 
2.3000000000004293, -0.1313557061969486 
2.3100000000004504, -0.13485266301322124 
2.3200000000004715, -0.1298891142556309 
2.3300000000004926, -0.12115440840113119 
2.3400000000005137, -0.11313492144093987 
2.3500000000005348, -0.10729171440286292 
2.360000000000556, -0.10339757316217027 
2.370000000000577, -0.1008708847916218 
2.380000000000598, -0.09923641134132564 
2.390000000000619, -0.09818302346667239 
2.4000000000006403, -0.0975246631137025 
2.4100000000006614, -0.09715900450572679 
2.4200000000006825, -0.09704100032494753 
2.4300000000007036, -0.09717035698424716 
2.4400000000007247, -0.09759050317672263 
2.450000000000746, -0.09839878841168329 
2.460000000000767, -0.09977047894503184 
2.470000000000788, -0.10200149100061742 
2.480000000000809, -0.10557259755730868 
2.49000000000083, -0.11121460025105674 
2.5000000000008513, -0.11986448084891747 
2.5100000000008724, -0.1322059863329813 
2.5200000000008935, -0.14748958211300503 
2.5300000000009146, -0.16259184812532548 
2.5400000000009357, -0.17377349272252357 
2.550000000000957, -0.17990228522199764 
2.560000000000978, -0.1824425828320476 
2.570000000000999, -0.18321601714753627 
2.58000000000102, -0.18331836174866062 
2.5900000000010412, -0.18322567425903852 
2.6000000000010624, -0.18310688528198177 
2.6100000000010835, -0.1830115515518696 
2.6200000000011046, -0.1829506344925904 
2.6300000000011257, -0.18292665637340924 
2.6400000000011468, -0.18294458794195348 
2.650000000001168, -0.18301659549561267 
2.660000000001189, -0.18316556463707648 
2.67000000000121, -0.18342902311656556 
2.680000000001231, -0.18386364935178728 
2.6900000000012523, -0.1845496538435966 
2.7000000000012734, -0.18559311508004026 
2.7100000000012945, -0.18712158009031424 
2.7200000000013156, -0.18926279359440343 
2.7300000000013367, -0.19209184942160595 
2.740000000001358, -0.19554467175203913 
2.750000000001379, -0.19934616757908744 
2.7600000000014, -0.20305268142901367 
2.770000000001421, -0.20623829958417703 
2.780000000001442, -0.20867953420841895 
2.7900000000014633, -0.2103819490102165 
2.8000000000014844, -0.211479381940121 
2.8100000000015055, -0.2121285648397218 
2.8200000000015266, -0.21245634357036228 
2.8300000000015477, -0.2125484961935437 
2.840000000001569, -0.2124560523077693 
2.85000000000159, -0.21220559345560913 
2.860000000001611, -0.21180964107671335 
2.870000000001632, -0.21127741198068634 
2.8800000000016532, -0.2106263337760294 
2.8900000000016743, -0.20989209894919503 
2.9000000000016954, -0.20913203681784745 
2.9100000000017165, -0.20841752223178003 
2.9200000000017377, -0.20781773292891356 
2.9300000000017588, -0.2073832041621626 
2.94000000000178, -0.20713609688628587 
2.950000000001801, -0.20706776513389163 
2.960000000001822, -0.20714139578217164 
2.970000000001843, -0.2072994163503481 
2.9800000000018643, -0.2074760794483252 
2.9900000000018854, -0.20761199530296137 
3.0000000000019065, -0.2076640377875069 
3.0100000000019276, -0.20760634774837655 
3.0200000000019487, -0.20742375398168225 
3.03000000000197, -0.20710176512550765 
3.040000000001991, -0.20661593408701115 
3.050000000002012, -0.20592077745906004 
3.060000000002033, -0.20493730548521077 
3.070000000002054, -0.20354040169212118 
3.0800000000020753, -0.2015554380573168 
3.0900000000020964, -0.19878896459357068 
3.1000000000021175, -0.19512597948998228 
3.1100000000021386, -0.19067836305483582 
3.1200000000021597, -0.1858546813765492 
3.130000000002181, -0.1812132438897933 
3.140000000002202, -0.1771937769277685 
3.150000000002223, -0.17397371536208592 
3.160000000002244, -0.17151442190424984 
3.1700000000022652, -0.16967636399698058 
3.1800000000022863, -0.1683037356232076 
3.1900000000023074, -0.16726235573594667 
3.2000000000023285, -0.16644926553819955 
3.2100000000023496, -0.16579072439342563 
3.2200000000023707, -0.16523685851959816 
3.230000000002392, -0.16475608937484695 
3.240000000002413, -0.16433035319287564 
3.250000000002434, -0.16395112828010572 
3.260000000002455, -0.16361517715815244 
3.2700000000024763, -0.16331653671552523 
3.2800000000024974, -0.1630253058107835 
3.2900000000025185, -0.16262953519858453 
3.3000000000025396, -0.16179128067027446 
3.3100000000025607, -0.15966677335191412 
3.3200000000025818, -0.15464799485426808 
3.330000000002603, -0.14492757944490747 
3.340000000002624, -0.13058620506364976 
3.350000000002645, -0.11477840071930023 
3.360000000002666, -0.10116147915083262 
3.3700000000026873, -0.09119242399406555 
3.3800000000027084, -0.08446572611108387 
3.3900000000027295, -0.08004171699968629 
3.4000000000027506, -0.0771168424046251 
3.4100000000027717, -0.07514678874885033 
3.420000000002793, -0.07379305538391814 
3.430000000002814, -0.07285327043357726 
3.440000000002835, -0.07221184006668059 
3.450000000002856, -0.0718109491547353 
3.460000000002877, -0.07163642503700834 
3.4700000000028983, -0.07171475489340293 
3.4800000000029194, -0.07212005768301508 
3.4900000000029405, -0.07299116815423876 
3.5000000000029616, -0.07455576263931069 
3.5100000000029827, -0.07713765463022923 
3.520000000003004, -0.08104628735464643 
3.530000000003025, -0.08606059505266432 
3.540000000003046, -0.09017518610476029 
3.550000000003067, -0.08883142535403779 
3.5600000000030882, -0.07864488452293769 
3.5700000000031094, -0.06294961034183243 
3.5800000000031305, -0.048215263203798917 
3.5900000000031516, -0.03748047962628693 
3.6000000000031727, -0.030477696755928686 
3.6100000000031938, -0.02604732845070673 
3.620000000003215, -0.02322591098663871 
3.630000000003236, -0.02139606110200818 
3.640000000003257, -0.02019458843816885 
3.650000000003278, -0.019416785142723793 
3.6600000000032993, -0.01895563930649489 
3.6700000000033204, -0.018769802729719526 
3.6800000000033415, -0.018871477392272677 
3.6900000000033626, -0.019330037407972227 
3.7000000000033837, -0.020291940860142348 
3.710000000003405, -0.02202042782340515 
3.720000000003426, -0.02495267656887063 
3.730000000003447, -0.029726673843156713 
3.740000000003468, -0.036952402161559025 
3.750000000003489, -0.046126362741239144 
3.7600000000035103, -0.0535064954831024 
3.7700000000035314, -0.052775887986011405 
3.7800000000035525, -0.04261649507883127 
3.7900000000035736, -0.029225669656828525 
3.8000000000035947, -0.01811938455468625 
3.810000000003616, -0.010534010321811995 
3.820000000003637, -0.005692037856973546 
3.830000000003658, -0.0026284053833542857 
3.840000000003679, -0.0006652295390096843 
3.8500000000037002, 0.00037520422390755804 
3.8600000000037213, 0.0007531182949283835 
3.8700000000037424, 0.0007955958262014036 
3.8800000000037635, 0.0005531650314417595 
3.8900000000037847, 0.00001935346153563433 
3.9000000000038058, -0.00044756448047242206 
3.910000000003827, -0.0014027090205003764 
3.920000000003848, -0.003122666884407884 
3.930000000003869, -0.006059549870321657 
3.94000000000389, -0.010915583231965325 
3.9500000000039113, -0.01851206507725083 
3.9600000000039324, -0.028862119779066407 
3.9700000000039535, -0.038879563772381644 
3.9800000000039746, -0.041865784115551335 
3.9900000000039957, -0.034688796271460674 
4.000000000004016, -0.02265450061864043 
4.010000000003993, -0.011907714823275194 
4.02000000000397, -0.0043553969282801655 
4.030000000003946, 0.00045790088496496515 
4.040000000003923, 0.003108816971185547 
4.0500000000039, 0.004647981079186515 
4.0600000000038765, 0.005488143099159406 
4.070000000003853, 0.005865276795919525 
4.08000000000383, 0.0059044310054307495 
4.090000000003807, 0.00565737841893134 
4.100000000003783, 0.005118324371149166 
4.11000000000376, 0.004222179755454781 
4.120000000003737, 0.0028248764753793956 
4.130000000003713, 0.0006604113007280698 
4.14000000000369, -0.002398424324404823 
4.150000000003667, -0.007308147063351335 
4.1600000000036434, -0.015078887910200641 
4.17000000000362, -0.025947187173400044 
4.180000000003597, -0.037180835657522594 
4.1900000000035735, -0.04208434881087612 
4.20000000000355, -0.036725424356259924 
4.210000000003527, -0.025742374870620456 
4.220000000003504, -0.015416673655685243 
4.23000000000348, -0.008001473997740979 
4.240000000003457, -0.003174185254756766 
4.250000000003434, -0.00010185769277581307 
4.26000000000341, 0.0014493486004379709 
4.270000000003387, 0.0022835097477517134 
4.280000000003364, 0.0026549900916210114 
4.2900000000033405, 0.002688755113459308 
4.300000000003317, 0.0024368806873537974 
4.310000000003294, 0.0018941766886789852 
4.320000000003271, 0.000996615193840395 
4.330000000003247, -0.00029275289286891007 
4.340000000003224, -0.00201238676886546 
4.350000000003201, -0.0049521121994701035 
4.360000000003177, -0.009855772946557652 
4.370000000003154, -0.01771281660100253 
4.380000000003131, -0.029050113937918277 
4.390000000003107, -0.041742471236764486 
4.400000000003084, -0.04940183798469095 
4.410000000003061, -0.047020735593109084 
4.4200000000030375, -0.03791701895846894 
4.430000000003014, -0.028369701578355177 
4.440000000002991, -0.021194207514539824 
4.450000000002968, -0.016423308432548744 
4.460000000002944, -0.013358562706594444 
4.470000000002921, -0.011389571257041002 
4.480000000002898, -0.010118343883641112 
4.490000000002874, -0.009310823469677182 
4.500000000002851, -0.008840379597859568 
4.510000000002828, -0.008652270987204865 
4.520000000002804, -0.008747728704712925 
4.530000000002781, -0.009184363129791599 
4.540000000002758, -0.010093520095483973 
4.5500000000027345, -0.011720318392474902 
4.560000000002711, -0.014495830755180766 
4.570000000002688, -0.019139771148291008 
4.580000000002665, -0.026707851771676033 
4.590000000002641, -0.038187122851002356 
4.600000000002618, -0.05277736013719934 
4.610000000002595, -0.06548266752258462 
4.620000000002571, -0.0698379301953507 
4.630000000002548, -0.06579347564371706 
4.640000000002525, -0.058718418012260465 
4.6500000000025015, -0.052475743649652073 
4.660000000002478, -0.04801977413847066 
4.670000000002455, -0.04506377000477517 
4.6800000000024315, -0.04313950681776 
4.690000000002408, -0.041891652879529645 
4.700000000002385, -0.04109626535516433 
4.710000000002362, -0.04062589517839756 
4.720000000002338, -0.04041973750129159 
4.730000000002315, -0.040467615424690365 
4.740000000002292, -0.040807018879691744 
4.750000000002268, -0.04153327463438187 
4.760000000002245, -0.04282637110244017 
4.770000000002222, -0.04500203626058925 
4.7800000000021985, -0.04859504797695294 
4.790000000002175, -0.05445865344336176 
