t, s[1].omega / s[0].omega 
0, -0.4199493396586475 
0.009999999999999995, -0.4152505965199865 
0.019999999999999934, -0.4113489940872415 
0.029999999999999874, -0.408223932676825 
0.04000000000000012, -0.40576576555789695 
0.050000000000000405, -0.40384549233997735 
0.06000000000000069, -0.40234945232264485 
0.07000000000000098, -0.4011908730503343 
0.08000000000000126, -0.40031056613323984 
0.09000000000000155, -0.3996741747487878 
0.10000000000000184, -0.39926956894883847 
0.11000000000000212, -0.3991059698488957 
0.12000000000000241, -0.39921556914193085 
0.130000000000002, -0.3996582459070597 
0.1400000000000009, -0.40053008409585306 
0.1499999999999998, -0.40197636174147455 
0.1599999999999987, -0.40420873744299934 
0.1699999999999976, -0.40752264055876103 
0.1799999999999965, -0.41230045567902557 
0.1899999999999954, -0.4189638584978418 
0.1999999999999943, -0.42781051994297226 
0.2099999999999932, -0.43869239648912106 
0.2199999999999921, -0.45068599213890914 
0.229999999999991, -0.4622008270801521 
0.2399999999999899, -0.4717501218836378 
0.2499999999999888, -0.47871623792773377 
0.2599999999999877, -0.48335318203132155 
0.2699999999999866, -0.4862782641500846 
0.2799999999999855, -0.48806985129481867 
0.2899999999999844, -0.48913722946692006 
0.2999999999999833, -0.48973575316417967 
0.3099999999999822, -0.4900141552663128 
0.3199999999999811, -0.49005271471774964 
0.32999999999998, -0.4898868270073297 
0.3399999999999789, -0.4895201921371804 
0.3499999999999778, -0.488933009021828 
0.35999999999997667, -0.4880906362067979 
0.36999999999997557, -0.4869581211264755 
0.37999999999997447, -0.4855231587016825 
0.38999999999997337, -0.4838211294901985 
0.39999999999997227, -0.4819449840323773 
0.40999999999997117, -0.48002537839402554 
0.41999999999997006, -0.47818920372082285 
0.42999999999996896, -0.4765237388199983 
0.43999999999996786, -0.47506539605885373 
0.44999999999996676, -0.4738101284808479 
0.45999999999996566, -0.47273201472242976 
0.46999999999996456, -0.47179973098723293 
0.47999999999996346, -0.4709871978764599 
0.48999999999996235, -0.4702789219207313 
0.49999999999996125, -0.4696722055076218 
0.5099999999999602, -0.46917852730565335 
0.519999999999959, -0.468825877251994 
0.529999999999958, -0.468663305733578 
0.5399999999999568, -0.46876874222430026 
0.5499999999999557, -0.46926125335697455 
0.5599999999999546, -0.4703190587614506 
0.5699999999999535, -0.47220404981089975 
0.5799999999999524, -0.47529031840235103 
0.5899999999999513, -0.4800837648155084 
0.5999999999999502, -0.4871944288583297 
0.6099999999999491, -0.4971807508823403 
0.619999999999948, -0.5101716033250419 
0.6299999999999469, -0.5253436060796156 
0.6399999999999458, -0.540769711857144 
0.6499999999999447, -0.554221041586129 
0.6599999999999436, -0.5644032435508701 
0.6699999999999425, -0.5713388623604874 
0.6799999999999414, -0.5757769408838578 
0.6899999999999403, -0.5785341259335295 
0.6999999999999392, -0.5802201905784463 
0.7099999999999381, -0.5812256836871585 
0.719999999999937, -0.5817842895017828 
0.7299999999999359, -0.5820296187031531 
0.7399999999999348, -0.5820314841449018 
0.7499999999999337, -0.5818157615380695 
0.7599999999999326, -0.5813739592361808 
0.7699999999999315, -0.580667793075628 
0.7799999999999304, -0.5796345124747485 
0.7899999999999293, -0.5782005212912738 
0.7999999999999282, -0.576310403109278 
0.8099999999999271, -0.5739686609051453 
0.819999999999926, -0.5712713882651745 
0.8299999999999249, -0.5683960702464945 
0.8399999999999238, -0.5655455722446968 
0.8499999999999227, -0.5628840995652837 
0.8599999999999216, -0.5605053806610922 
0.8699999999999205, -0.5584387028468724 
0.8799999999999194, -0.5566732110026942 
0.8899999999999183, -0.5551817641220709 
0.8999999999999172, -0.5539367074889571 
0.9099999999999161, -0.552917697607309 
0.919999999999915, -0.5521143372702426 
0.9299999999999139, -0.5515262445294519 
0.9399999999999128, -0.5511622787164554 
0.9499999999999117, -0.5510398660568994 
0.9599999999999106, -0.5511849058933204 
0.9699999999999095, -0.5516324940524463 
0.9799999999999084, -0.5524284840580453 
0.9899999999999073, -0.5536315099442445 
0.9999999999999062, -0.5553142612737895 
1.0099999999999052, -0.5575612200084515 
1.019999999999904, -0.560457585254589 
1.029999999999903, -0.5640616393501803 
1.039999999999902, -0.5683544997679788 
1.0499999999999008, -0.5731760739600289 
1.0599999999998997, -0.578188908087075 
1.0699999999998986, -0.5829336172579198 
1.0799999999998975, -0.5869867111550178 
1.0899999999998964, -0.5901183178218866 
1.0999999999998953, -0.5923281783442704 
1.1099999999998942, -0.5937624111309481 
1.119999999999893, -0.5946063125134465 
1.129999999999892, -0.5950182731416083 
1.1399999999998909, -0.5951073922256085 
1.1499999999998898, -0.5949330625466515 
1.1599999999998887, -0.5945089438960894 
1.1699999999998876, -0.5938023981885899 
1.1799999999998865, -0.5927252338199791 
1.1899999999998854, -0.5911137430230823 
1.1999999999998843, -0.5887002640195107 
1.2099999999998832, -0.5850931302817487 
1.219999999999882, -0.5798153202160782 
1.229999999999881, -0.572483781063044 
1.2399999999998799, -0.5631410432631093 
1.2499999999998788, -0.5525026674029312 
1.2599999999998777, -0.5417659025962666 
1.2699999999998766, -0.532049710214215 
1.2799999999998755, -0.5239770329698482 
1.2899999999998744, -0.517660416533836 
1.2999999999998733, -0.5129101714569241 
1.3099999999998722, -0.5094325275148414 
1.319999999999871, -0.506940113736875 
1.32999999999987, -0.5051932584751664 
1.3399999999998689, -0.5040061593976146 
1.3499999999998678, -0.5032400404567781 
1.3599999999998666, -0.5027936199639255 
1.3699999999998655, -0.5025946698186414 
1.3799999999998644, -0.5025936124522721 
1.3899999999998633, -0.5027591104311735 
1.3999999999998622, -0.5030753403878774 
1.4099999999998611, -0.5035405327256931 
1.41999999999986, -0.5041660901481155 
1.429999999999859, -0.5049750250871986 
1.4399999999998578, -0.505997667035817 
1.4499999999998567, -0.5072620613651205 
1.4599999999998556, -0.5087772431950494 
1.4699999999998545, -0.5105112957489156 
1.4799999999998534, -0.5123738644815977 
1.4899999999998523, -0.5142201551504477 
1.4999999999998512, -0.5158871519548496 
1.5099999999998501, -0.5172468663405752 
1.519999999999849, -0.5182411798250713 
1.529999999999848, -0.518878196085528 
1.5399999999998468, -0.5192029345705966 
1.5499999999998457, -0.5192666478621522 
1.5599999999998446, -0.5191070691872719 
1.5699999999998435, -0.5187384056060526 
1.5799999999998424, -0.5181448514248617 
1.5899999999998413, -0.5172714994066794 
1.5999999999998402, -0.5160072363848502 
1.6099999999998391, -0.5141545189394878 
1.619999999999838, -0.5113844992893423 
1.629999999999837, -0.5071948408632324 
1.6399999999998358, -0.5009416117459897 
1.6499999999998347, -0.49208660791592773 
1.6599999999998336, -0.4807088646583929 
1.6699999999998325, -0.46788394685038515 
1.6799999999998314, -0.4553125544060048 
1.6899999999998303, -0.4444074664050966 
1.6999999999998292, -0.4357633117463616 
1.709999999999828, -0.4292946581490962 
1.719999999999827, -0.42460984285953723 
1.729999999999826, -0.42127599240249314 
1.7399999999998248, -0.41892970137735636 
1.7499999999998237, -0.4172988436600723 
1.7599999999998226, -0.41619080616952464 
1.7699999999998215, -0.41547380083974544 
1.7799999999998204, -0.41506060889915525 
1.7899999999998193, -0.41489682828736674 
1.7999999999998182, -0.41495332656142364 
1.809999999999817, -0.4152221161902549 
1.819999999999816, -0.41571492140751864 
1.8299999999998149, -0.41646372092844286 
1.8399999999998138, -0.4175222000379154 
1.8499999999998127, -0.4189660160256783 
1.8599999999998116, -0.4208877455615257 
1.8699999999998105, -0.42337940022827275 
1.8799999999998094, -0.4264936194045653 
1.8899999999998083, -0.43018168352861946 
1.8999999999998072, -0.4342335286356647 
1.909999999999806, -0.43828168496180436 
1.919999999999805, -0.4419155575442031 
1.9299999999998039, -0.4448467474466251 
1.9399999999998028, -0.44699323093666726 
1.9499999999998017, -0.44843604051378705 
1.9599999999998006, -0.44932230404221685 
1.9699999999997995, -0.4497924648640027 
1.9799999999997984, -0.44994945771813233 
1.9899999999997973, -0.44985350327559964 
1.9999999999997962, -0.4495251707422169 
2.0099999999998173, -0.44894783049099496 
2.0199999999998384, -0.4480673595976209 
2.0299999999998595, -0.4467920409220606 
2.0399999999998806, -0.44500162734836896 
2.0499999999999017, -0.4425805106142041 
2.059999999999923, -0.43948457342297154 
2.069999999999944, -0.4358177019418423 
2.079999999999965, -0.4318500401179076 
2.089999999999986, -0.4279317423574406 
2.100000000000007, -0.42435752166961527 
2.1100000000000283, -0.4212856218598353 
2.1200000000000494, -0.4187443414687128 
2.1300000000000705, -0.4166834366306156 
2.1400000000000916, -0.41502373339376436 
2.1500000000001127, -0.41368772203251003 
2.160000000000134, -0.4126134132363218 
2.170000000000155, -0.41175848870951864 
2.180000000000176, -0.41110037181291476 
2.190000000000197, -0.41063562098074663 
2.2000000000002182, -0.41038051194390723 
2.2100000000002393, -0.41037391295370806 
2.2200000000002604, -0.4106833720585331 
2.2300000000002815, -0.41141548847722265 
2.2400000000003026, -0.4127317918381824 
2.2500000000003237, -0.41487074690758086 
2.260000000000345, -0.4181731671395877 
2.270000000000366, -0.42309762178945254 
2.280000000000387, -0.4301865714068165 
2.290000000000408, -0.43990260356227157 
2.3000000000004293, -0.4522510333545647 
2.3100000000004504, -0.4663036390360353 
2.3200000000004715, -0.48016900252782013 
2.3300000000004926, -0.4918777017916011 
2.3400000000005137, -0.5004809188895438 
2.3500000000005348, -0.506203591195723 
2.360000000000556, -0.5098048615441148 
2.370000000000577, -0.5120169547651734 
2.380000000000598, -0.5133565606848431 
2.390000000000619, -0.5141433603100556 
2.4000000000006403, -0.5145637326046244 
2.4100000000006614, -0.5147213821079439 
2.4200000000006825, -0.5146680916565066 
2.4300000000007036, -0.5144204998144304 
2.4400000000007247, -0.5139693018000081 
2.450000000000746, -0.5132863542934022 
2.460000000000767, -0.5123350076802472 
2.470000000000788, -0.5110880244469431 
2.480000000000809, -0.5095520759543037 
2.49000000000083, -0.5077871957146848 
2.5000000000008513, -0.5059034892964489 
2.5100000000008724, -0.5040300346766655 
2.5200000000008935, -0.5022746626929651 
2.5300000000009146, -0.5006998165534449 
2.5400000000009357, -0.4993226140716822 
2.550000000000957, -0.49812983200694044 
2.560000000000978, -0.49709545408301165 
2.570000000000999, -0.49619393010367324 
2.58000000000102, -0.49540779530133994 
2.5900000000010412, -0.49473114920323413 
2.6000000000010624, -0.4941712485945004 
2.6100000000010835, -0.49375012537605983 
2.6200000000011046, -0.49350750285889566 
2.6300000000011257, -0.49350583470935366 
2.6400000000011468, -0.493838144760788 
2.650000000001168, -0.4946393396481533 
2.660000000001189, -0.49610137469787674 
2.67000000000121, -0.4984911299096181 
2.680000000001231, -0.5021650039992605 
2.6900000000012523, -0.5075622223799855 
2.7000000000012734, -0.5151362923373389 
2.7100000000012945, -0.5251622627138472 
2.7200000000013156, -0.5373975653392122 
2.7300000000013367, -0.5507784347367565 
2.740000000001358, -0.5635876606496104 
2.750000000001379, -0.5742543240801667 
2.7600000000014, -0.5821116017231105 
2.770000000001421, -0.5874015451897907 
2.780000000001442, -0.590768468381285 
2.7900000000014633, -0.59283878524446 
2.8000000000014844, -0.5940697986278671 
2.8100000000015055, -0.5947542246777544 
2.8200000000015266, -0.5950656233154661 
2.8300000000015477, -0.5950979077888767 
2.840000000001569, -0.5948899234580748 
2.85000000000159, -0.5944375194796869 
2.860000000001611, -0.5936974246072128 
2.870000000001632, -0.592588186359861 
2.8800000000016532, -0.5909965972497612 
2.8900000000016743, -0.5888025206238968 
2.9000000000016954, -0.5859325889298054 
2.9100000000017165, -0.5824300318042596 
2.9200000000017377, -0.5784907552019829 
2.9300000000017588, -0.5744170942522222 
2.94000000000178, -0.5705102458328756 
2.950000000001801, -0.5669805296801893 
2.960000000001822, -0.5639242255993231 
2.970000000001843, -0.5613512527574078 
2.9800000000018643, -0.5592258062351393 
2.9900000000018854, -0.5574973843311888 
3.0000000000019065, -0.5561178529165964 
3.0100000000019276, -0.5550482451486366 
3.0200000000019487, -0.5542599752312379 
3.03000000000197, -0.553733780253568 
3.040000000001991, -0.5534582520809924 
3.050000000002012, -0.5534288526351834 
3.060000000002033, -0.5536477603458967 
3.070000000002054, -0.5541245804472876 
3.0800000000020753, -0.5548776860111999 
3.0900000000020964, -0.5559355660531742 
3.1000000000021175, -0.5573368529201851 
3.1100000000021386, -0.559126551747361 
3.1200000000021597, -0.5613446308454003 
3.130000000002181, -0.5640028698806887 
3.140000000002202, -0.5670500642476731 
3.150000000002223, -0.5703385414291454 
3.160000000002244, -0.5736223675978813 
3.1700000000022652, -0.5766149215437785 
3.1800000000022863, -0.5790874807461394 
3.1900000000023074, -0.5809406492545289 
3.2000000000023285, -0.5822009879301393 
3.2100000000023496, -0.58296487455588 
3.2200000000023707, -0.5833405705042909 
3.230000000002392, -0.5834145556810035 
3.240000000002413, -0.5832392945849899 
3.250000000002434, -0.5828304427802496 
3.260000000002455, -0.5821639066616319 
3.2700000000024763, -0.5811666825170836 
3.2800000000024974, -0.5796968405089078 
3.2900000000025185, -0.5775090534586884 
3.3000000000025396, -0.5742090319289467 
3.3100000000025607, -0.5692276253119108 
3.3200000000025818, -0.5619070122392287 
3.330000000002603, -0.5518326550518006 
3.340000000002624, -0.5393569545493151 
3.350000000002645, -0.5258085678517238 
3.360000000002666, -0.5129267627423925 
3.3700000000026873, -0.5019857272663464 
3.3800000000027084, -0.49343247958881253 
3.3900000000027295, -0.48710285185749636 
3.4000000000027506, -0.48257805689137234 
3.4100000000027717, -0.479417203895019 
3.420000000002793, -0.4772512984252205 
3.430000000002814, -0.47580062387941435 
3.440000000002835, -0.47486315967362785 
3.450000000002856, -0.4742968442132015 
3.460000000002877, -0.4740038321353398 
3.4700000000028983, -0.4739186344233005 
3.4800000000029194, -0.47399992736480395 
3.4900000000029405, -0.47422534019462576 
3.5000000000029616, -0.47458851436469257 
3.5100000000029827, -0.4750976532985874 
3.520000000003004, -0.47577441345330335 
3.530000000003025, -0.4766512974327469 
3.540000000003046, -0.4777649635936546 
3.550000000003067, -0.4791427570722447 
3.5600000000030882, -0.4807816688363379 
3.5700000000031094, -0.4826248498573572 
3.5800000000031305, -0.4845504026434992 
3.5900000000031516, -0.486390867840497 
3.6000000000031727, -0.4879843524862409 
3.6100000000031938, -0.489227263879202 
3.620000000003215, -0.49009287628624554 
3.630000000003236, -0.4906114556508361 
3.640000000003257, -0.490835868546802 
3.650000000003278, -0.490814244698763 
3.6600000000032993, -0.4905748803458776 
3.6700000000033204, -0.49011844509199953 
3.6800000000033415, -0.489410765784225 
3.6900000000033626, -0.4883706478555291 
3.7000000000033837, -0.48684859247535106 
3.710000000003405, -0.4845958159491464 
3.720000000003426, -0.48123650204108637 
3.730000000003447, -0.47629169990966747 
3.740000000003468, -0.4693479652869317 
3.750000000003489, -0.4604095169697109 
3.7600000000035103, -0.4501928797479186 
3.7700000000035314, -0.4399359008190372 
3.7800000000035525, -0.43077146129224053 
3.7900000000035736, -0.42327474304809154 
3.8000000000035947, -0.4174842776685215 
3.810000000003616, -0.41315487443730703 
3.820000000003637, -0.4099706853776535 
3.830000000003658, -0.40764924669496017 
3.840000000003679, -0.4059715698372067 
3.8500000000037002, -0.40477979831996913 
3.8600000000037213, -0.40396555866990697 
3.8700000000037424, -0.4034583944455961 
3.8800000000037635, -0.4032171193600099 
3.8900000000037847, -0.4032244817064468 
3.9000000000038058, -0.4034848636271736 
3.910000000003827, -0.4040246809352209 
3.920000000003848, -0.40489514564280826 
3.930000000003869, -0.4061767133307881 
3.94000000000389, -0.40798334042852025 
3.9500000000039113, -0.41046176970212767 
3.9600000000039324, -0.4137754996146211 
3.9700000000039535, -0.4180561037324447 
3.9800000000039746, -0.4233065994963156 
3.9900000000039957, -0.42927846105666656 
4.000000000004016, -0.4354244024325385 
4.010000000003993, -0.4410534261853347 
4.02000000000397, -0.44563657230429987 
4.030000000003946, -0.44900275114435867 
4.040000000003923, -0.45128212302886633 
4.0500000000039, -0.4527273977046719 
4.0600000000038765, -0.4535794164916436 
4.070000000003853, -0.4540160687211502 
4.08000000000383, -0.4541499682338192 
4.090000000003807, -0.4540407932274938 
4.100000000003783, -0.4537067461931737 
4.11000000000376, -0.45313158074151916 
4.120000000003737, -0.45226922667290526 
4.130000000003713, -0.45105162308084806 
4.14000000000369, -0.44940824727214757 
4.150000000003667, -0.4473036208393949 
4.1600000000036434, -0.4447836443283674 
4.17000000000362, -0.4419976037724461 
4.180000000003597, -0.4391635390743688 
4.1900000000035735, -0.4364912465679588 
4.20000000000355, -0.4341183797638616 
4.210000000003527, -0.4320953682615566 
4.220000000003504, -0.4304082547818779 
4.23000000000348, -0.4290112611034232 
4.240000000003457, -0.4278519291396897 
4.250000000003434, -0.42688540385138163 
4.26000000000341, -0.4260806392421144 
4.270000000003387, -0.42542232125580376 
4.280000000003364, -0.42491153173845453 
4.2900000000033405, -0.4245671955582611 
4.300000000003317, -0.42442968671634684 
4.310000000003294, -0.4245677592521793 
4.320000000003271, -0.4250901536104169 
4.330000000003247, -0.4261635571071444 
4.340000000003224, -0.4280383902301127 
4.350000000003201, -0.43108124352241495 
4.360000000003177, -0.4358028140883641 
4.370000000003154, -0.4428432387199033 
4.380000000003131, -0.4528257914137246 
4.390000000003107, -0.4659579507104762 
4.400000000003084, -0.4814301378457141 
4.410000000003061, -0.4971892249570754 
4.4200000000030375, -0.5108212272049344 
4.430000000003014, -0.5209720922018953 
4.440000000002991, -0.5277532588182701 
4.450000000002968, -0.5320243956101159 
4.460000000002944, -0.5346583276788619 
4.470000000002921, -0.5362742599184818 
4.480000000002898, -0.5372531844520094 
4.490000000002874, -0.537817013175431 
4.500000000002851, -0.5380914281171519 
4.510000000002828, -0.5381435283219127 
4.520000000002804, -0.538002071289153 
4.530000000002781, -0.5376679765062623 
4.540000000002758, -0.5371207538383991 
4.5500000000027345, -0.536325843458118 
4.560000000002711, -0.5352477423452819 
4.570000000002688, -0.5338712807200143 
4.580000000002665, -0.5322253477530335 
4.590000000002641, -0.5303933141575284 
4.600000000002618, -0.528496269062195 
4.610000000002595, -0.5266554259629775 
4.620000000002571, -0.5249580941179925 
4.630000000002548, -0.5234454870311404 
4.640000000002525, -0.5221210055181107 
4.6500000000025015, -0.5209670362676972 
4.660000000002478, -0.5199603782610069 
4.670000000002455, -0.5190824040259738 
4.6800000000024315, -0.518324268177235 
4.690000000002408, -0.5176891417094598 
4.700000000002385, -0.5171934861518545 
4.710000000002362, -0.5168687607766567 
4.720000000002338, -0.5167643449421762 
4.730000000002315, -0.5169521199795065 
4.740000000002292, -0.5175330330959563 
4.750000000002268, -0.5186457953213222 
4.760000000002245, -0.5204771382808945 
4.770000000002222, -0.5232707702857321 
4.7800000000021985, -0.5273265191008523 
4.790000000002175, -0.5329699983812697 
4.800000000002152, -0.5404586272979439 
4.810000000002129, -0.5497928773871199 
4.820000000002105, -0.5604759315066341 
4.830000000002082, -0.5714312738468793 
4.840000000002059, -0.5813350452917013 
4.850000000002035, -0.5892350677441615 
4.860000000002012, -0.5949028175325518 
4.870000000001989, -0.5986649310972905 
4.880000000001965, -0.6010320160610684 
4.890000000001942, -0.6024554042932155 
