t, s[1].omega / s[0].omega 
0, -1.459997252048523 
0.009999999999999995, -1.4595623924294887 
0.019999999999999934, -1.4588129345929715 
0.029999999999999874, -1.457758271566402 
0.04000000000000012, -1.4564231304030035 
0.050000000000000405, -1.4548636616663937 
0.06000000000000069, -1.4531915714480856 
0.07000000000000098, -1.451595603575045 
0.08000000000000126, -1.450317493197338 
0.09000000000000155, -1.4495326198838545 
0.10000000000000184, -1.449211980435263 
0.11000000000000212, -1.449145021578008 
0.12000000000000241, -1.4490963802243446 
0.130000000000002, -1.4488974538847805 
0.1400000000000009, -1.4484198502555585 
0.1499999999999998, -1.4474981311077235 
0.1599999999999987, -1.4458369208818689 
0.1699999999999976, -1.4428988986963187 
0.1799999999999965, -1.4378107238879954 
0.1899999999999954, -1.4295192731510853 
0.1999999999999943, -1.4177825873184842 
0.2099999999999932, -1.4051690299785506 
0.2199999999999921, -1.397193093911665 
0.229999999999991, -1.397085020668026 
0.2399999999999899, -1.402016122532027 
0.2499999999999888, -1.4074410185996693 
0.2599999999999877, -1.411287747337323 
0.2699999999999866, -1.413504543140206 
0.2799999999999855, -1.414594593461711 
0.2899999999999844, -1.4149843481092121 
0.2999999999999833, -1.4149275017926215 
0.3099999999999822, -1.4145555636964964 
0.3199999999999811, -1.4139518317730058 
0.32999999999998, -1.413247999911155 
0.3399999999999789, -1.412745948309756 
0.3499999999999778, -1.412949786079189 
0.35999999999997667, -1.4142987529156803 
0.36999999999997557, -1.4167491204248897 
0.37999999999997447, -1.4197682963227651 
0.38999999999997337, -1.4227492409534643 
0.39999999999997227, -1.4253056156776966 
0.40999999999997117, -1.4272839869310692 
0.41999999999997006, -1.4286708969410054 
0.42999999999996896, -1.4295173961692986 
0.43999999999996786, -1.42989832575438 
0.44999999999996676, -1.4298926192020196 
0.45999999999996566, -1.4295747658708984 
0.46999999999996456, -1.4290148332837902 
0.47999999999996346, -1.4282857979108967 
0.48999999999996235, -1.4274722808779559 
0.49999999999996125, -1.4266709185565112 
0.5099999999999602, -1.4259790204566483 
0.519999999999959, -1.4254759788863303 
0.529999999999958, -1.4251956426326058 
0.5399999999999568, -1.4250982758965343 
0.5499999999999557, -1.4250777817938505 
0.5599999999999546, -1.4250064062670846 
0.5699999999999535, -1.4247665329233326 
0.5799999999999524, -1.424241710420151 
0.5899999999999513, -1.4232825122719848 
0.5999999999999502, -1.4216689747557292 
0.6099999999999491, -1.4190856474561975 
0.619999999999948, -1.415134141447644 
0.6299999999999469, -1.4094332333102575 
0.6399999999999458, -1.401883801341594 
0.6499999999999447, -1.393123684382128 
0.6599999999999436, -1.3848468721324387 
0.6699999999999425, -1.3791422115457967 
0.6799999999999414, -1.3768273106331672 
0.6899999999999403, -1.376869999681055 
0.6999999999999392, -1.3777311804256387 
0.7099999999999381, -1.3785087441206367 
0.719999999999937, -1.3789314631259029 
0.7299999999999359, -1.3789906874514275 
0.7399999999999348, -1.378714888378587 
0.7499999999999337, -1.3780885596234547 
0.7599999999999326, -1.3770375026401986 
0.7699999999999315, -1.375474638240337 
0.7799999999999304, -1.3734990519747134 
0.7899999999999293, -1.3718732655728776 
0.7999999999999282, -1.3724574917300785 
0.8099999999999271, -1.377317106570343 
0.819999999999926, -1.3863837052537746 
0.8299999999999249, -1.3970020203357676 
0.8399999999999238, -1.4063578621308228 
0.8499999999999227, -1.413209091323829 
0.8599999999999216, -1.417636153345367 
0.8699999999999205, -1.4202290554560084 
0.8799999999999194, -1.4215886472612476 
0.8899999999999183, -1.4221616423627839 
0.8999999999999172, -1.4222375703403292 
0.9099999999999161, -1.4219971202563144 
0.919999999999915, -1.4215685406758423 
0.9299999999999139, -1.421077295897938 
0.9399999999999128, -1.420669175186299 
0.9499999999999117, -1.4204799835659776 
0.9599999999999106, -1.4205692726579024 
0.9699999999999095, -1.4208938132867244 
0.9799999999999084, -1.4213479693033226 
0.9899999999999073, -1.4218151129455632 
0.9999999999999062, -1.4221932727746749 
1.0099999999999052, -1.42240227765177 
1.019999999999904, -1.4223813004264554 
1.029999999999903, -1.4220813267861572 
1.039999999999902, -1.4214585964465773 
1.0499999999999008, -1.420472751257034 
1.0599999999998997, -1.4190900189798712 
1.0699999999998986, -1.4172921701498538 
1.0799999999998975, -1.4150956567209412 
1.0899999999998964, -1.41258802779459 
1.0999999999998953, -1.4099796314329538 
1.1099999999998942, -1.4076258665020007 
1.119999999999893, -1.405917488531102 
1.129999999999892, -1.4050273007901006 
1.1399999999998909, -1.404774630577376 
1.1499999999998898, -1.404801936920491 
1.1599999999998887, -1.404818018894403 
1.1699999999998876, -1.4046586160210726 
1.1799999999998865, -1.4042168081936954 
1.1899999999998854, -1.403353099807586 
1.1999999999998843, -1.4018091636620664 
1.2099999999998832, -1.3991135085494437 
1.219999999999882, -1.3945204694235573 
1.229999999999881, -1.387224176678726 
1.2399999999998799, -1.3773957374746697 
1.2499999999998788, -1.3679884899510077 
1.2599999999998777, -1.3642470410964274 
1.2699999999998766, -1.368323072891982 
1.2799999999998755, -1.3764919963910518 
1.2899999999998744, -1.384052428819201 
1.2999999999998733, -1.3891778238141796 
1.3099999999998722, -1.3921197179827842 
1.319999999999871, -1.3936152084483933 
1.32999999999987, -1.3942404115921758 
1.3399999999998689, -1.39433716159226 
1.3499999999998678, -1.3940868862018208 
1.3599999999998666, -1.3935938652994637 
1.3699999999998655, -1.3929705609539094 
1.3799999999998644, -1.3924354445255813 
1.3899999999998633, -1.3923644293806323 
1.3999999999998622, -1.3931489487422855 
1.4099999999998611, -1.3948825376231617 
1.41999999999986, -1.3972474116600204 
1.429999999999859, -1.399760969364253 
1.4399999999998578, -1.4020487016059977 
1.4499999999998567, -1.403916579781873 
1.4599999999998556, -1.40530155486462 
1.4699999999998545, -1.4062111084032973 
1.4799999999998534, -1.4066856371569154 
1.4899999999998523, -1.4067791280204294 
1.4999999999998512, -1.4065495170215743 
1.5099999999998501, -1.4060552609880692 
1.519999999999849, -1.4053581060280436 
1.529999999999848, -1.4045303081883798 
1.5399999999998468, -1.4036595702122387 
1.5499999999998457, -1.4028446087472886 
1.5599999999998446, -1.4021810730567528 
1.5699999999998435, -1.4017374960265694 
1.5799999999998424, -1.4015209642574433 
1.5899999999998413, -1.401459389097571 
1.5999999999998402, -1.401430464050767 
1.6099999999998391, -1.4013088945054053 
1.619999999999838, -1.4009821941628824 
1.629999999999837, -1.4003294236721096 
1.6399999999998358, -1.399185146690563 
1.6499999999998347, -1.3973068813964118 
1.6599999999998336, -1.394362276255201 
1.6699999999998325, -1.389965047505862 
1.6799999999998314, -1.3838108898262822 
1.6899999999998303, -1.3759734143590157 
1.6999999999998292, -1.3673191114984544 
1.709999999999828, -1.3596234384147594 
1.719999999999827, -1.3546865264420966 
1.729999999999826, -1.3528841328207333 
1.7399999999998248, -1.3530623542867277 
1.7499999999998237, -1.3538565263955158 
1.7599999999998226, -1.3545287814807732 
1.7699999999998215, -1.354867055054461 
1.7799999999998204, -1.354864565928923 
1.7899999999998193, -1.354535505469289 
1.7999999999998182, -1.3538463530671947 
1.809999999999817, -1.352699242559769 
1.819999999999816, -1.350969536264312 
1.8299999999998149, -1.3486963188212413 
1.8399999999998138, -1.3465819016028304 
1.8499999999998127, -1.346561935016671 
1.8599999999998116, -1.3511062711840143 
1.8699999999998105, -1.3606279234319878 
1.8799999999998094, -1.3723849010261597 
1.8899999999998083, -1.3829952311793634 
1.8999999999998072, -1.3908023535028977 
1.909999999999806, -1.3958193855930687 
1.919999999999805, -1.3987379098291766 
1.9299999999998039, -1.4002719345146095 
1.9399999999998028, -1.4009429813572347 
1.9499999999998017, -1.4010799054474423 
1.9599999999998006, -1.4008801038126286 
1.9699999999997995, -1.4004757402792323 
1.9799999999997984, -1.3999923095514712 
1.9899999999997973, -1.3995850828642828 
1.9999999999997962, -1.399419890617744 
2.0099999999998173, -1.399593596096876 
2.0199999999998384, -1.4000751328260754 
2.0299999999998595, -1.4007384162744607 
2.0399999999998806, -1.4014378840943142 
2.0499999999999017, -1.4020535183383398 
2.059999999999923, -1.4025000112467212 
2.069999999999944, -1.402720981119335 
2.079999999999965, -1.4026795479654361 
2.089999999999986, -1.4023503509383652 
2.100000000000007, -1.4017154046386255 
2.1100000000000283, -1.4007638763847867 
2.1200000000000494, -1.3994957254560387 
2.1300000000000705, -1.3979307338459135 
2.1400000000000916, -1.396125513158382 
2.1500000000001127, -1.3941988193860415 
2.160000000000134, -1.3923527079094047 
2.170000000000155, -1.3908467675349956 
2.180000000000176, -1.3898795823116799 
2.190000000000197, -1.3894463142846212 
2.2000000000002182, -1.3893441779882603 
2.2100000000002393, -1.3893244031508005 
2.2200000000002604, -1.3892034487593736 
2.2300000000002815, -1.3888570312167479 
2.2400000000003026, -1.3881556039940157 
2.2500000000003237, -1.3868871096037083 
2.260000000000345, -1.3846677912706904 
2.270000000000366, -1.3808443849709104 
2.280000000000387, -1.374474778455942 
2.290000000000408, -1.3646851995092317 
2.3000000000004293, -1.351850680865964 
2.3100000000004504, -1.3390995677846231 
2.3200000000004715, -1.331273288701339 
2.3300000000004926, -1.3303457026578036 
2.3400000000005137, -1.333666525046544 
2.3500000000005348, -1.3376644413172127 
2.360000000000556, -1.3406447586081103 
2.370000000000577, -1.3424291928854684 
2.380000000000598, -1.3433242468974973 
2.390000000000619, -1.3436294487050995 
2.4000000000006403, -1.3435307676580837 
2.4100000000006614, -1.34311854304333 
2.4200000000006825, -1.3424344748436363 
2.4300000000007036, -1.341549578734578 
2.4400000000007247, -1.3407062954333089 
2.450000000000746, -1.3404855982691835 
2.460000000000767, -1.3417320493584388 
2.470000000000788, -1.3449717073985317 
2.480000000000809, -1.3498281318209213 
2.49000000000083, -1.3552607875131586 
2.5000000000008513, -1.360290194326143 
2.5100000000008724, -1.3643798688181887 
2.5200000000008935, -1.3673904927898275 
2.5300000000009146, -1.3694087665813188 
2.5400000000009357, -1.3706131970973723 
2.550000000000957, -1.3711956500754074 
2.560000000000978, -1.3713229498446442 
2.570000000000999, -1.3711263259748203 
2.58000000000102, -1.3707102671242095 
2.5900000000010412, -1.3701717575975545 
2.6000000000010624, -1.3696160963512325 
2.6100000000010835, -1.3691516734737053 
2.6200000000011046, -1.3688605210892737 
2.6300000000011257, -1.3687707624974048 
2.6400000000011468, -1.3688549180539034 
2.650000000001168, -1.3690450992199241 
2.660000000001189, -1.36925128457722 
2.67000000000121, -1.3693806527937586 
2.680000000001231, -1.369350731231756 
2.6900000000012523, -1.369089553942617 
2.7000000000012734, -1.3685283476320704 
2.7100000000012945, -1.367596686853275 
2.7200000000013156, -1.36622494400185 
2.7300000000013367, -1.3643538769508585 
2.740000000001358, -1.3619514309111689 
2.750000000001379, -1.359041739363314 
2.7600000000014, -1.3557541512692952 
2.770000000001421, -1.3523836232976705 
2.780000000001442, -1.3493965385750124 
2.7900000000014633, -1.347266268258997 
2.8000000000014844, -1.346169423478196 
2.8100000000015055, -1.345864421082458 
2.8200000000015266, -1.3459227911054943 
2.8300000000015477, -1.346007245103362 
2.840000000001569, -1.3459379360805421 
2.85000000000159, -1.3456183871743745 
2.860000000001611, -1.3449456076985975 
2.870000000001632, -1.3437341838209693 
2.8800000000016532, -1.341638078374149 
2.8900000000016743, -1.3380741425267881 
2.9000000000016954, -1.3322553541075064 
2.9100000000017165, -1.323671020442229 
2.9200000000017377, -1.3133941909920037 
2.9300000000017588, -1.3052247543341937 
2.94000000000178, -1.303507519260668 
2.950000000001801, -1.308390502082784 
2.960000000001822, -1.3158467299871925 
2.970000000001843, -1.3222773806831638 
2.9800000000018643, -1.3265612185603737 
2.9900000000018854, -1.3290249739324682 
3.0000000000019065, -1.330279558939593 
3.0100000000019276, -1.3307883704816061 
3.0200000000019487, -1.3308260793657118 
3.03000000000197, -1.3305361910796338 
3.040000000001991, -1.3299961695401064 
3.050000000002012, -1.3292911760488486 
3.060000000002033, -1.32861803155275 
3.070000000002054, -1.328388833328548 
3.0800000000020753, -1.3291719999047804 
3.0900000000020964, -1.331332881905946 
3.1000000000021175, -1.3346760564175437 
3.1100000000021386, -1.33856113318068 
3.1200000000021597, -1.3423282126361789 
3.130000000002181, -1.3455577627084359 
3.140000000002202, -1.3480770959049668 
3.150000000002223, -1.349873767461487 
3.160000000002244, -1.3510193243951854 
3.1700000000022652, -1.3516206635997068 
3.1800000000022863, -1.3517904117292885 
3.1900000000023074, -1.351631005358079 
3.2000000000023285, -1.3512317582962592 
3.2100000000023496, -1.3506770069587917 
3.2200000000023707, -1.3500577354335566 
3.230000000002392, -1.349473135375163 
3.240000000002413, -1.3490132879211139 
3.250000000002434, -1.3487339744331 
3.260000000002455, -1.3486432517098168 
3.2700000000024763, -1.3487021260100054 
3.2800000000024974, -1.3488341139340998 
3.2900000000025185, -1.3489447489973228 
3.3000000000025396, -1.3489424737772302 
3.3100000000025607, -1.348746180551973 
3.3200000000025818, -1.3482790577463069 
3.330000000002603, -1.3474601694457689 
3.340000000002624, -1.3462030869597483 
3.350000000002645, -1.344424193340823 
3.360000000002666, -1.3420597387158923 
3.3700000000026873, -1.3390928647508162 
3.3800000000027084, -1.3355973521238491 
3.3900000000027295, -1.3318012798585799 
3.4000000000027506, -1.3281360231230142 
3.4100000000027717, -1.3251630702797237 
3.420000000002793, -1.323295169322643 
3.430000000002814, -1.3225087216859583 
3.440000000002835, -1.3224026060217595 
3.450000000002856, -1.322528324765156 
3.460000000002877, -1.322599702479256 
3.4700000000028983, -1.3224795825827043 
3.4800000000029194, -1.3220856888712316 
3.4900000000029405, -1.3213072397066161 
3.5000000000029616, -1.319934875687408 
3.5100000000029827, -1.3175854571165586 
3.520000000003004, -1.3136392603406635 
3.530000000003025, -1.3073276024332157 
3.540000000003046, -1.298326411848513 
3.550000000003067, -1.2880922748076729 
3.5600000000030882, -1.2805990160888234 
3.5700000000031094, -1.2796556822625509 
3.5800000000031305, -1.2847480078219173 
3.5900000000031516, -1.2919027797079436 
3.6000000000031727, -1.297931017749724 
3.6100000000031938, -1.3019259204674338 
3.620000000003215, -1.3042265738906758 
3.630000000003236, -1.3053987219510101 
3.640000000003257, -1.305867422829299 
3.650000000003278, -1.3058843701001237 
3.6600000000032993, -1.3055795817388387 
3.6700000000033204, -1.3050199154227857 
3.6800000000033415, -1.3042775724729714 
3.6900000000033626, -1.3035340419927726 
3.7000000000033837, -1.3032032756062348 
3.710000000003405, -1.3039203218523814 
3.720000000003426, -1.3061958646321472 
3.730000000003447, -1.3099511875117078 
3.740000000003468, -1.314511539279502 
3.750000000003489, -1.3190654336889507 
3.7600000000035103, -1.3230426446282517 
3.7700000000035314, -1.326184113001162 
3.7800000000035525, -1.32845373698787 
3.7900000000035736, -1.3299383360530048 
3.8000000000035947, -1.3307766621635995 
3.810000000003616, -1.33111445426518 
3.820000000003637, -1.3310802423355357 
3.830000000003658, -1.3307796065564619 
3.840000000003679, -1.3303042403628316 
3.8500000000037002, -1.3297478097618802 
3.8600000000037213, -1.329214394690307 
3.8700000000037424, -1.3288050274538263 
3.8800000000037635, -1.3285867968945708 
3.8900000000037847, -1.3285715649413794 
3.9000000000038058, -1.3287196151129967 
3.910000000003827, -1.3289566324757232 
3.920000000003848, -1.3291929300558227 
3.930000000003869, -1.329341405790898 
3.94000000000389, -1.3293275200793477 
3.9500000000039113, -1.329088528694196 
3.9600000000039324, -1.3285683409645304 
3.9700000000039535, -1.3277153605496332 
3.9800000000039746, -1.3264855272706773 
3.9900000000039957, -1.3248492341113078 
4.000000000004016, -1.3228017861797627 
4.010000000003993, -1.3203806121601747 
4.02000000000397, -1.3176934418634978 
4.030000000003946, -1.3149520505879944 
4.040000000003923, -1.3124767023843682 
4.0500000000039, -1.3106069197450823 
4.0600000000038765, -1.3095157709288814 
4.070000000003853, -1.3090912286760452 
4.08000000000383, -1.3090360287035354 
4.090000000003807, -1.3090639559814836 
4.100000000003783, -1.3089910733821042 
4.11000000000376, -1.3087069703018441 
4.120000000003737, -1.3081067109407083 
4.130000000003713, -1.3070229053877822 
4.14000000000369, -1.305153488112577 
4.150000000003667, -1.3019793619242075 
4.1600000000036434, -1.2967146756769663 
4.17000000000362, -1.2884598821314122 
4.180000000003597, -1.2768805180171487 
4.1900000000035735, -1.2634447544466272 
4.20000000000355, -1.2518670301321317 
4.210000000003527, -1.2457633532096137 
4.220000000003504, -1.2453932939498065 
4.23000000000348, -1.2480692527096926 
4.240000000003457, -1.251155033352692 
4.250000000003434, -1.2534819485619502 
4.26000000000341, -1.2549084218935653 
4.270000000003387, -1.2556329179682781 
4.280000000003364, -1.2558626954866614 
4.2900000000033405, -1.2557277880305582 
4.300000000003317, -1.2552813306032988 
4.310000000003294, -1.2545218923351975 
4.320000000003271, -1.2534383114811756 
4.330000000003247, -1.2521199553213556 
4.340000000003224, -1.2509854634076394 
4.350000000003201, -1.2510416640868907 
4.360000000003177, -1.2537139023034907 
4.370000000003154, -1.2598344346211061 
4.380000000003131, -1.2686363635025668 
4.390000000003107, -1.2781560828581056 
4.400000000003084, -1.2865764409212073 
4.410000000003061, -1.2930101162079184 
4.4200000000030375, -1.297408174416376 
4.430000000003014, -1.3001455588104371 
4.440000000002991, -1.3016877325576066 
4.450000000002968, -1.3024270876934136 
4.460000000002944, -1.3026414591170443 
4.470000000002921, -1.3025118929010595 
4.480000000002898, -1.3021608863507372 
4.490000000002874, -1.301695279509153 
4.500000000002851, -1.3012436419059996 
4.510000000002828, -1.300965587007293 
4.520000000002804, -1.301007372672647 
4.530000000002781, -1.3014259384192939 
4.540000000002758, -1.3021578224619037 
4.5500000000027345, -1.3030642658286806 
4.560000000002711, -1.3039981740480224 
4.570000000002688, -1.3048419941668026 
4.580000000002665, -1.3055153771852952 
4.590000000002641, -1.3059691951315684 
4.600000000002618, -1.306176658538814 
4.610000000002595, -1.3061261546801826 
4.620000000002571, -1.3058171176440472 
4.630000000002548, -1.305258588193464 
4.640000000002525, -1.3044699897207352 
4.6500000000025015, -1.3034842223564485 
4.660000000002478, -1.3023529423005435 
4.670000000002455, -1.3011520217858425 
4.6800000000024315, -1.2999828894292054 
4.690000000002408, -1.2989634675618051 
4.700000000002385, -1.2982001210564822 
4.710000000002362, -1.2977408427107486 
4.720000000002338, -1.2975411663479544 
4.730000000002315, -1.2974826625858904 
4.740000000002292, -1.2974286381543947 
4.750000000002268, -1.297261530427917 
4.760000000002245, -1.2968792078211053 
4.770000000002222, -1.2961672033951002 
4.7800000000021985, -1.2949676840621935 
4.790000000002175, -1.293058045951185 
4.800000000002152, -1.2901532092541204 
4.810000000002129, -1.2859529220367185 
4.820000000002105, -1.2802571576407908 
4.830000000002082, -1.2731577163014962 
4.840000000002059, -1.2652589710313074 
4.850000000002035, -1.2577450512191586 
4.860000000002012, -1.2519923520922631 
4.870000000001989, -1.2487538965505993 
4.880000000001965, -1.2476897744721716 
4.890000000001942, -1.247826432596408 
4.900000000001919, -1.2483132133372716 
4.9100000000018955, -1.2487087430801944 
4.920000000001872, -1.2488643681906928 
4.930000000001849, -1.2487458995861893 
4.940000000001826, -1.2483242708536193 
