t, s[1].omega / s[0].omega 
0, -1.2999966574840744 
0.009999999999999995, -1.2994779044662896 
0.019999999999999934, -1.2985950015363128 
0.029999999999999874, -1.2973521091647464 
0.04000000000000012, -1.2957585254623505 
0.050000000000000405, -1.2938317971949085 
0.06000000000000069, -1.2916009511502045 
0.07000000000000098, -1.2891091970043909 
0.08000000000000126, -1.2864162179871939 
0.09000000000000155, -1.2836019042606368 
0.10000000000000184, -1.280774072305362 
0.11000000000000212, -1.2780777571824469 
0.12000000000000241, -1.2756924093502877 
0.130000000000002, -1.2737978095715918 
0.1400000000000009, -1.2725082691809841 
0.1499999999999998, -1.2718126143670436 
0.1599999999999987, -1.271569302045735 
0.1699999999999976, -1.271561954633086 
0.1799999999999965, -1.2715683042682766 
0.1899999999999954, -1.271396106792167 
0.1999999999999943, -1.2708774218385712 
0.2099999999999932, -1.2698378890966424 
0.2199999999999921, -1.268058093888535 
0.229999999999991, -1.2652367543177785 
0.2399999999999899, -1.2609632387218943 
0.2499999999999888, -1.254710895310015 
0.2599999999999877, -1.2458667047055558 
0.2699999999999866, -1.2338080127030042 
0.2799999999999855, -1.218019732391778 
0.2899999999999844, -1.198226108590934 
0.2999999999999833, -1.1745093337057169 
0.3099999999999822, -1.1474046127503543 
0.3199999999999811, -1.117968869345105 
0.32999999999998, -1.0877903118796146 
0.3399999999999789, -1.0588582798133577 
0.3499999999999778, -1.0332212585812615 
0.35999999999997667, -1.0124849215589078 
0.36999999999997557, -0.9973728885365815 
0.37999999999997447, -0.9876040195919498 
0.38999999999997337, -0.9821494114021904 
0.39999999999997227, -0.9796879823248822 
0.40999999999997117, -0.9790049942421746 
0.41999999999997006, -0.9791934939530365 
0.42999999999996896, -0.9796730056909986 
0.43999999999996786, -0.9801124088609918 
0.44999999999996676, -0.9803330656251972 
0.45999999999996566, -0.9802286690304408 
0.46999999999996456, -0.9797081865471687 
0.47999999999996346, -0.9786553115216483 
0.48999999999996235, -0.9768960749058594 
0.49999999999996125, -0.9741699534203634 
0.5099999999999602, -0.970107034008694 
0.519999999999959, -0.9642246988386567 
0.529999999999958, -0.9559692413849172 
0.5399999999999568, -0.9448289160464848 
0.5499999999999557, -0.9305150754821485 
0.5599999999999546, -0.9131446288685224 
0.5699999999999535, -0.8933109733127885 
0.5799999999999524, -0.8719754707870301 
0.5899999999999513, -0.8502323741465713 
0.5999999999999502, -0.8290773560952294 
0.6099999999999491, -0.8092743195529499 
0.619999999999948, -0.7913287091010197 
0.6299999999999469, -0.7755234471021771 
0.6399999999999458, -0.7619721681206223 
0.6499999999999447, -0.7506650648739505 
0.6599999999999436, -0.7415012348213376 
0.6699999999999425, -0.7343109216027002 
0.6799999999999414, -0.728873362004916 
0.6899999999999403, -0.724934430693798 
0.6999999999999392, -0.7222254219737535 
0.7099999999999381, -0.7204817519802641 
0.719999999999937, -0.7194590636633582 
0.7299999999999359, -0.7189444186541035 
0.7399999999999348, -0.7187615310196026 
0.7499999999999337, -0.7187705428829185 
0.7599999999999326, -0.7188639749020639 
0.7699999999999315, -0.7189609274986057 
0.7799999999999304, -0.7190014605733642 
0.7899999999999293, -0.7189425735309433 
0.7999999999999282, -0.7187564871312981 
0.8099999999999271, -0.71843100991495 
0.819999999999926, -0.7179707271040715 
0.8299999999999249, -0.7173969611451703 
0.8399999999999238, -0.7167445727635444 
0.8499999999999227, -0.7160550407507031 
0.8599999999999216, -0.7153672636279613 
0.8699999999999205, -0.7147088704152393 
0.8799999999999194, -0.7140907079073361 
0.8899999999999183, -0.7135059356069194 
0.8999999999999172, -0.7129336686732737 
0.9099999999999161, -0.7123458795482476 
0.919999999999915, -0.7117154760734616 
0.9299999999999139, -0.7110233614349777 
0.9399999999999128, -0.7102630412257619 
0.9499999999999117, -0.709442657561958 
0.9599999999999106, -0.7085854380164879 
0.9699999999999095, -0.7077298780589957 
0.9799999999999084, -0.7069305535617365 
0.9899999999999073, -0.706259696344143 
0.9999999999999062, -0.7058089594722811 
1.0099999999999052, -0.7056903700861717 
1.019999999999904, -0.7060354119375307 
1.029999999999903, -0.706991532875068 
1.039999999999902, -0.7087160781734669 
1.0499999999999008, -0.7113684961383234 
1.0599999999998997, -0.7151022938655497 
1.0699999999998986, -0.7200582851360238 
1.0799999999998975, -0.7263600009768522 
1.0899999999998964, -0.7341108243600459 
1.0999999999998953, -0.7433907483958994 
1.1099999999998942, -0.754248985629809 
1.119999999999893, -0.7666874161070162 
1.129999999999892, -0.7806299663199611 
1.1399999999998909, -0.7958764500955601 
1.1499999999998898, -0.8120492142151614 
1.1599999999998887, -0.8285582672642642 
1.1699999999998876, -0.8446269200668945 
1.1799999999998865, -0.8594115734345862 
1.1899999999998854, -0.8721958231599056 
1.1999999999998843, -0.8825688152822689 
1.2099999999998832, -0.8904876809972346 
1.219999999999882, -0.8962024188539888 
1.229999999999881, -0.9001106370147834 
1.2399999999998799, -0.9026263241715552 
1.2499999999998788, -0.904103248282921 
1.2599999999998777, -0.904809160643092 
1.2699999999998766, -0.9049301733742524 
1.2799999999998755, -0.9045879769964832 
1.2899999999998744, -0.903861661295057 
1.2999999999998733, -0.902813890886819 
1.3099999999998722, -0.9015272573751943 
1.319999999999871, -0.9001616260167774 
1.32999999999987, -0.8990466114581148 
1.3399999999998689, -0.8988206506747499 
1.3499999999998678, -0.9006101859701949 
1.3599999999998666, -0.9061977365980405 
1.3699999999998655, -0.9180542553447261 
1.3799999999998644, -0.9390383417170057 
1.3899999999998633, -0.9715768886438427 
1.3999999999998622, -1.016379290135175 
1.4099999999998611, -1.0712669279833131 
1.41999999999986, -1.1311368446712122 
1.429999999999859, -1.1895662486158354 
1.4399999999998578, -1.2411327432725903 
1.4499999999998567, -1.282878140648838 
1.4599999999998556, -1.3143313729845065 
1.4699999999998545, -1.3366691590671984 
1.4799999999998534, -1.3517746104761472 
1.4899999999998523, -1.3615696670635509 
1.4999999999998512, -1.3676723092311875 
1.5099999999998501, -1.371294926497243 
1.519999999999849, -1.3732774133368726 
1.529999999999848, -1.3741726441959299 
1.5399999999998468, -1.3743381991019024 
1.5499999999998457, -1.3740175233409722 
1.5599999999998446, -1.3734086998152841 
1.5699999999998435, -1.3727185379527018 
1.5799999999998424, -1.372186817589129 
1.5899999999998413, -1.3720567516205684 
1.5999999999998402, -1.3724938403159284 
1.6099999999998391, -1.3735127885869853 
1.619999999999838, -1.3749834559355447 
1.629999999999837, -1.376710408471486 
1.6399999999998358, -1.3785131043693375 
1.6499999999998347, -1.3802570667265532 
1.6599999999998336, -1.3818456200857394 
1.6699999999998325, -1.3832035008901393 
1.6799999999998314, -1.3842686526042252 
1.6899999999998303, -1.3849907680877802 
1.6999999999998292, -1.3853308334883836 
1.709999999999828, -1.3852594693439668 
1.719999999999827, -1.3847545983126794 
1.729999999999826, -1.38379910583124 
1.7399999999998248, -1.3823786787753305 
1.7499999999998237, -1.3804800908522734 
1.7599999999998226, -1.3780905521406697 
1.7699999999998215, -1.3751988171875384 
1.7799999999998204, -1.3717986505504167 
1.7899999999998193, -1.3678957685421507 
1.7999999999998182, -1.3635214264227231 
1.809999999999817, -1.3587585349198916 
1.819999999999816, -1.3537834545122562 
1.8299999999998149, -1.3489076021128643 
1.8399999999998138, -1.3445683360388219 
1.8499999999998127, -1.3412098490954447 
1.8599999999998116, -1.3390776434628668 
1.8699999999998105, -1.3380811382374351 
1.8799999999998094, -1.3378585923386244 
1.8899999999998083, -1.33797474557407 
1.8999999999998072, -1.338072606915422 
1.909999999999806, -1.3379022731589112 
1.919999999999805, -1.3372670643355387 
1.9299999999998039, -1.3359409070805395 
1.9399999999998028, -1.33357248088615 
1.9499999999998017, -1.329559531256781 
1.9599999999998006, -1.322861425790467 
1.9699999999997995, -1.3117192530473019 
1.9799999999997984, -1.2932930856614286 
1.9899999999997973, -1.2633693292158832 
1.9999999999997962, -1.2166180267351014 
2.0099999999998173, -1.148272185176221 
2.0199999999998384, -1.0577171182027032 
2.0299999999998595, -0.9520339589938129 
2.0399999999998806, -0.844933846730252 
2.0499999999999017, -0.7500248125213234 
2.059999999999923, -0.6746337221599911 
2.069999999999944, -0.619244855056971 
2.079999999999965, -0.5805533336265125 
2.089999999999986, -0.5543486589782894 
2.100000000000007, -0.5369421912767863 
2.1100000000000283, -0.5255420935001871 
2.1200000000000494, -0.5181748911510377 
2.1300000000000705, -0.5134904770099743 
2.1400000000000916, -0.5105789792625042 
2.1500000000001127, -0.5088310158660757 
2.160000000000134, -0.5078392633573435 
2.170000000000155, -0.5073314482405356 
2.180000000000176, -0.5071253783552971 
2.190000000000197, -0.5070989874108867 
2.2000000000002182, -0.507170584366197 
2.2100000000002393, -0.5072861579222507 
2.2200000000002604, -0.5074117028098063 
2.2300000000002815, -0.507529191552874 
2.2400000000003026, -0.5076350736787693 
2.2500000000003237, -0.5077401218602122 
2.260000000000345, -0.5078692444176426 
2.270000000000366, -0.5080598597570444 
2.280000000000387, -0.5083578617027406 
2.290000000000408, -0.5088110499033346 
2.3000000000004293, -0.5094607175878234 
2.3100000000004504, -0.5103324736939266 
2.3200000000004715, -0.5114274879022674 
2.3300000000004926, -0.5127157926189297 
2.3400000000005137, -0.5141342118431657 
2.3500000000005348, -0.5155918413025691 
2.360000000000556, -0.5169840810973362 
2.370000000000577, -0.5182118999649609 
2.380000000000598, -0.5191992270260535 
2.390000000000619, -0.5199018148874209 
2.4000000000006403, -0.5203056684590095 
2.4100000000006614, -0.5204182354266256 
2.4200000000006825, -0.5202574674260463 
2.4300000000007036, -0.5198425792262531 
2.4400000000007247, -0.5191880291221074 
2.450000000000746, -0.5183006337531448 
2.460000000000767, -0.5171792100731689 
2.470000000000788, -0.5158163543982689 
2.480000000000809, -0.5142024533815501 
2.49000000000083, -0.5123322805239131 
2.5000000000008513, -0.5102135166956514 
2.5100000000008724, -0.5078710070966884 
2.5200000000008935, -0.5053205583349826 
2.5300000000009146, -0.502423084627399 
2.5400000000009357, -0.4983525776120429 
2.550000000000957, -0.48999145563883517 
2.560000000000978, -0.4679319501961913 
2.570000000000999, -0.4095061943036345 
2.58000000000102, -0.27801312085886265 
2.5900000000010412, -0.06279064591640157 
2.6000000000010624, 0.15707112577414617 
2.6100000000010835, 0.29909687427717735 
2.6200000000011046, 0.37054282290120516 
2.6300000000011257, 0.40474409510668363 
2.6400000000011468, 0.42176449986727 
2.650000000001168, 0.43072247915089557 
2.660000000001189, 0.4356574020064372 
2.67000000000121, 0.43844594835409767 
2.680000000001231, 0.4400203534493702 
2.6900000000012523, 0.4408784741422114 
2.7000000000012734, 0.4413083071399229 
2.7100000000012945, 0.4414938514686721 
2.7200000000013156, 0.44156995044418723 
2.7300000000013367, 0.4416552378495052 
2.740000000001358, 0.4418765425102958 
2.750000000001379, 0.44239037438576184 
2.7600000000014, 0.44340067249995196 
2.770000000001421, 0.44516274773006503 
2.780000000001442, 0.44795093801437674 
2.7900000000014633, 0.45196337714690055 
2.8000000000014844, 0.45717073337891667 
2.8100000000015055, 0.463199460053294 
2.8200000000015266, 0.4693885194446182 
2.8300000000015477, 0.4750377787259945 
2.840000000001569, 0.47966629021577906 
2.85000000000159, 0.4830970885653809 
2.860000000001611, 0.48537361062614226 
2.870000000001632, 0.48662587499005666 
2.8800000000016532, 0.4869685184501373 
2.8900000000016743, 0.4864437301416062 
2.9000000000016954, 0.4849917679509428 
2.9100000000017165, 0.4824346105231746 
2.9200000000017377, 0.47847660785197516 
2.9300000000017588, 0.4727543365612189 
2.94000000000178, 0.46499576911340834 
2.950000000001801, 0.45532015189667974 
2.960000000001822, 0.44453041259345855 
2.970000000001843, 0.4340228001971595 
2.9800000000018643, 0.4251540231972282 
2.9900000000018854, 0.4185835613402084 
3.0000000000019065, 0.4141883584900395 
3.0100000000019276, 0.41143582752848074 
3.0200000000019487, 0.4097538302863255 
3.03000000000197, 0.4086967541602482 
3.040000000001991, 0.4079619846041471 
3.050000000002012, 0.4073509576471431 
3.060000000002033, 0.4067244654972691 
3.070000000002054, 0.4059656698905669 
3.0800000000020753, 0.4049484718830825 
3.0900000000020964, 0.4035028601209209 
3.1000000000021175, 0.4013634213900617 
3.1100000000021386, 0.39807500326417516 
3.1200000000021597, 0.39279854691072413 
3.130000000002181, 0.3838806263428175 
3.140000000002202, 0.3678467144578283 
3.150000000002223, 0.3370070784289147 
3.160000000002244, 0.2743418487101369 
3.1700000000022652, 0.14830937896810598 
3.1800000000022863, -0.06454859308897432 
3.1900000000023074, -0.30976389432357854 
3.2000000000023285, -0.4935022977002901 
3.2100000000023496, -0.5981755333841999 
3.2200000000023707, -0.6537707074441124 
3.230000000002392, -0.6853705102143682 
3.240000000002413, -0.7053700841333724 
3.250000000002434, -0.7190333164433941 
3.260000000002455, -0.7286886819639128 
3.2700000000024763, -0.7355623682596798 
3.2800000000024974, -0.7404294100908311 
3.2900000000025185, -0.7438294946147458 
3.3000000000025396, -0.7461466933346005 
3.3100000000025607, -0.7476493370927165 
3.3200000000025818, -0.7485159391434281 
3.330000000002603, -0.7488528989037286 
3.340000000002624, -0.748704978390703 
3.350000000002645, -0.7480586914104709 
3.360000000002666, -0.7468387435922971 
3.3700000000026873, -0.7448982890125787 
3.3800000000027084, -0.7420059280623297 
3.3900000000027295, -0.737837564985141 
3.4000000000027506, -0.7319903131572115 
3.4100000000027717, -0.7240447333302373 
3.420000000002793, -0.7136961401772184 
3.430000000002814, -0.7009339515446616 
3.440000000002835, -0.6861765367153084 
3.450000000002856, -0.6702418012810243 
3.460000000002877, -0.654128732963455 
3.4700000000028983, -0.6387350153210135 
3.4800000000029194, -0.6246719760685039 
3.4900000000029405, -0.612233875405633 
3.5000000000029616, -0.6014700615392031 
3.5100000000029827, -0.5922839429556078 
3.520000000003004, -0.584513649937178 
3.530000000003025, -0.577982873896507 
3.540000000003046, -0.572527035434938 
3.550000000003067, -0.568003587510344 
3.5600000000030882, -0.5642936297853525 
3.5700000000031094, -0.561299474609011 
3.5800000000031305, -0.5589408219937574 
3.5900000000031516, -0.5571509338206654 
3.6000000000031727, -0.5558734592847393 
3.6100000000031938, -0.5550601553604788 
3.620000000003215, -0.5546695299635347 
3.630000000003236, -0.5546663292006957 
3.640000000003257, -0.5550217477963 
3.650000000003278, -0.5557142365136172 
3.6600000000032993, -0.5567307902825054 
3.6700000000033204, -0.5580685997912604 
3.6800000000033415, -0.5597369044142904 
3.6900000000033626, -0.5617587602928069 
3.7000000000033837, -0.5641722079506991 
3.710000000003405, -0.5670299808626639 
3.720000000003426, -0.5703964485860035 
3.730000000003447, -0.5743399728236834 
3.740000000003468, -0.578918453268326 
3.750000000003489, -0.5841561940834389 
3.7600000000035103, -0.5900127744141003 
3.7700000000035314, -0.5963510545065195 
3.7800000000035525, -0.6029208730507357 
3.7900000000035736, -0.6093795880952908 
3.8000000000035947, -0.6153579293724687 
3.810000000003616, -0.6205492176803873 
3.820000000003637, -0.6247771441458168 
3.830000000003658, -0.6280095053310331 
3.840000000003679, -0.6303225708524486 
3.8500000000037002, -0.6318461861022314 
3.8600000000037213, -0.6327168272377197 
3.8700000000037424, -0.6330489885137311 
3.8800000000037635, -0.6329222845935303 
3.8900000000037847, -0.6323772981685336 
3.9000000000038058, -0.6314139665524008 
3.910000000003827, -0.6299881748571023 
3.920000000003848, -0.6280032262854116 
3.930000000003869, -0.6252922309364417 
3.94000000000389, -0.6215842636997849 
3.9500000000039113, -0.6164387593325 
3.9600000000039324, -0.6091120742629971 
3.9700000000039535, -0.5982711922401769 
3.9800000000039746, -0.581362900141507 
3.9900000000039957, -0.5532765825954458 
4.000000000004016, -0.5040042007414108 
4.010000000003993, -0.41701099556748217 
4.02000000000397, -0.27766983948759827 
4.030000000003946, -0.10247637105046996 
4.040000000003923, 0.05338488985754065 
4.0500000000039, 0.1552929341415903 
4.0600000000038765, 0.21200652693183494 
4.070000000003853, 0.24234420829731623 
4.08000000000383, 0.25890822699420474 
4.090000000003807, 0.2682953284183227 
4.100000000003783, 0.27379969710779756 
4.11000000000376, 0.2771005442043528 
4.120000000003737, 0.27909205275128157 
4.130000000003713, 0.28027531604820155 
4.14000000000369, 0.2809468281912394 
4.150000000003667, 0.28129301893418496 
4.1600000000036434, 0.2814408558155321 
4.17000000000362, 0.2814882640311441 
4.180000000003597, 0.2815268131360512 
4.1900000000035735, 0.2816646704129558 
4.20000000000355, 0.2820565985261501 
4.210000000003527, 0.28294717953250975 
4.220000000003504, 0.2847286012923926 
4.23000000000348, 0.2879938318412591 
4.240000000003457, 0.2935132728266608 
4.250000000003434, 0.3019935954494741 
4.26000000000341, 0.31353659756260926 
4.270000000003387, 0.32711735267714603 
4.280000000003364, 0.34078706766603056 
4.2900000000033405, 0.3526875103324634 
4.300000000003317, 0.3618940238818349 
4.310000000003294, 0.36841537187430545 
4.320000000003271, 0.37272418582333117 
4.330000000003247, 0.3753607400921389 
4.340000000003224, 0.37675730615981495 
4.350000000003201, 0.37720529071392794 
4.360000000003177, 0.37687849930807044 
4.370000000003154, 0.37587056996185536 
4.380000000003131, 0.37423455256333027 
4.390000000003107, 0.3720230450931719 
4.400000000003084, 0.36932533619421176 
4.410000000003061, 0.36629064795329447 
4.4200000000030375, 0.36312347507813775 
4.430000000003014, 0.36004749145133397 
4.440000000002991, 0.35725479377224323 
4.450000000002968, 0.354868030575258 
4.460000000002944, 0.35293182795027217 
4.470000000002921, 0.3514289260233218 
4.480000000002898, 0.3503052334013437 
4.490000000002874, 0.34949082769628315 
4.500000000002851, 0.34891206275097447 
4.510000000002828, 0.3484957662300797 
4.520000000002804, 0.3481684563446248 
4.530000000002781, 0.3478530494751989 
4.540000000002758, 0.34746412449897174 
4.5500000000027345, 0.34690108511740453 
4.560000000002711, 0.3460365804377535 
4.570000000002688, 0.34469495420943874 
4.580000000002665, 0.34261124190364717 
4.590000000002641, 0.3393529394410385 
4.600000000002618, 0.33417008469325526 
4.610000000002595, 0.3257093310799514 
4.620000000002571, 0.3114964588749423 
4.630000000002548, 0.2871813673967207 
4.640000000002525, 0.2462992889757923 
4.6500000000025015, 0.18368871539923062 
4.660000000002478, 0.10574329087657072 
4.670000000002455, 0.03435931957040833 
4.6800000000024315, -0.012724703859662128 
4.690000000002408, -0.036289099649031126 
4.700000000002385, -0.0460388986322493 
4.710000000002362, -0.049364572389941144 
4.720000000002338, -0.05012123650117553 
4.730000000002315, -0.04998106727201396 
4.740000000002292, -0.04959998874167103 
4.750000000002268, -0.049214912459256424 
4.760000000002245, -0.04890200375301274 
4.770000000002222, -0.04868095040804394 
4.7800000000021985, -0.048555949427469866 
4.790000000002175, -0.04853199313517666 
4.800000000002152, -0.04862209515858626 
4.810000000002129, -0.04885178498789158 
4.820000000002105, -0.04926358396838395 
4.830000000002082, -0.049922912299048834 
4.840000000002059, -0.05092669074207632 
4.850000000002035, -0.05241637444102058 
4.860000000002012, -0.05459818365152827 
4.870000000001989, -0.05777475157833904 
4.880000000001965, -0.06239368402696993 
4.890000000001942, -0.06911734495237912 
4.900000000001919, -0.07890752344891129 
4.9100000000018955, -0.0930809025768867 
4.920000000001872, -0.11319783053601729 
4.930000000001849, -0.1405104274147323 
