t, s[1].omega / s[0].omega 
0, -0.519997754541021 
0.009999999999999995, -0.5198181243540299 
0.019999999999999934, -0.5197129637870621 
0.029999999999999874, -0.5196444180360222 
0.04000000000000012, -0.5195648290284252 
0.050000000000000405, -0.5194321702786573 
0.06000000000000069, -0.5192201730826491 
0.07000000000000098, -0.5189201722498827 
0.08000000000000126, -0.518537510024611 
0.09000000000000155, -0.5180877399075897 
0.10000000000000184, -0.5175967376136479 
0.11000000000000212, -0.517107320578092 
0.12000000000000241, -0.5166952270767701 
0.130000000000002, -0.5164995856115067 
0.1400000000000009, -0.516776727991176 
0.1499999999999998, -0.5179892106837581 
0.1599999999999987, -0.5209351843874821 
0.1699999999999976, -0.5268764747696844 
0.1799999999999965, -0.537468347167189 
0.1899999999999954, -0.5540085758266338 
0.1999999999999943, -0.575636827880565 
0.2099999999999932, -0.5979844229242832 
0.2199999999999921, -0.6156250333445723 
0.229999999999991, -0.6266650305085926 
0.2399999999999899, -0.6329488654129098 
0.2499999999999888, -0.6368335829961863 
0.2599999999999877, -0.639586786436939 
0.2699999999999866, -0.6416606165114169 
0.2799999999999855, -0.6432080325324485 
0.2899999999999844, -0.6443161575850571 
0.2999999999999833, -0.6450606982842924 
0.3099999999999822, -0.6455056414380527 
0.3199999999999811, -0.645695845380878 
0.32999999999998, -0.6456522127950626 
0.3399999999999789, -0.6453689477754486 
0.3499999999999778, -0.6448121748169016 
0.35999999999997667, -0.6439220443155657 
0.36999999999997557, -0.6426242056803292 
0.37999999999997447, -0.640857689962105 
0.38999999999997337, -0.6386175027204395 
0.39999999999997227, -0.6359895418377022 
0.40999999999997117, -0.633144167268813 
0.41999999999997006, -0.6302818030886087 
0.42999999999996896, -0.6275680707282081 
0.43999999999996786, -0.6251005259274647 
0.44999999999996676, -0.6229139448280877 
0.45999999999996566, -0.6210046471919759 
0.46999999999996456, -0.6193546622395727 
0.47999999999996346, -0.6179475598559289 
0.48999999999996235, -0.616775765719591 
0.49999999999996125, -0.6158420703064948 
0.5099999999999602, -0.6151580647901046 
0.519999999999959, -0.6147414041663052 
0.529999999999958, -0.6146130924668511 
0.5399999999999568, -0.614795599400818 
0.5499999999999557, -0.6153123710739992 
0.5599999999999546, -0.6161889750672184 
0.5699999999999535, -0.6174556020729784 
0.5799999999999524, -0.619149850353389 
0.5899999999999513, -0.6213175083330357 
0.5999999999999502, -0.6240073136054152 
0.6099999999999491, -0.6272538452516871 
0.619999999999948, -0.6310430895254069 
0.6299999999999469, -0.635263494826867 
0.6399999999999458, -0.6396673238649444 
0.6499999999999447, -0.6438908120114432 
0.6599999999999436, -0.6475616333516855 
0.6699999999999425, -0.6504382608393894 
0.6799999999999414, -0.6524738656594975 
0.6899999999999403, -0.6537696935945839 
0.6999999999999392, -0.6544824226213586 
0.7099999999999381, -0.654754476075267 
0.719999999999937, -0.6546838082799459 
0.7299999999999359, -0.6543176156786453 
0.7399999999999348, -0.653652210548151 
0.7499999999999337, -0.6526279767700061 
0.7599999999999326, -0.6511118645949463 
0.7699999999999315, -0.6488576928624361 
0.7799999999999304, -0.6454259240498179 
0.7899999999999293, -0.6400310307034601 
0.7999999999999282, -0.6312917890158853 
0.8099999999999271, -0.6170112720775747 
0.819999999999926, -0.5946394462128848 
0.8299999999999249, -0.5634652437953348 
0.8399999999999238, -0.5273559034991506 
0.8499999999999227, -0.4934068099734277 
0.8599999999999216, -0.46675214025201245 
0.8699999999999205, -0.44827113166520655 
0.8799999999999194, -0.4363409921484934 
0.8899999999999183, -0.4289108271035678 
0.8999999999999172, -0.42436305472627084 
0.9099999999999161, -0.42161182698746025 
0.919999999999915, -0.41997376866197245 
0.9299999999999139, -0.419029089019758 
0.9399999999999128, -0.41852192276291367 
0.9499999999999117, -0.4182970925647177 
0.9599999999999106, -0.4182619374386863 
0.9699999999999095, -0.4183640251959241 
0.9799999999999084, -0.41857884231701037 
0.9899999999999073, -0.4189038368845027 
0.9999999999999062, -0.41935628060930197 
1.0099999999999052, -0.4199725111845639 
1.019999999999904, -0.42080561791414794 
1.029999999999903, -0.42191806964177686 
1.039999999999902, -0.42336558971984034 
1.0499999999999008, -0.42516979689826445 
1.0599999999998997, -0.42728331481909 
1.0699999999998986, -0.4295656690598707 
1.0799999999998975, -0.43180047010173295 
1.0899999999998964, -0.4337645995351617 
1.0999999999998953, -0.435308520550412 
1.1099999999998942, -0.4363885921059164 
1.119999999999893, -0.4370403366176501 
1.129999999999892, -0.4373292681408639 
1.1399999999998909, -0.43731241741462756 
1.1499999999998898, -0.4370173056572243 
1.1599999999998887, -0.436429909929133 
1.1699999999998876, -0.43548110812530955 
1.1799999999998865, -0.43402334209706395 
1.1899999999998854, -0.43179338567083725 
1.1999999999998843, -0.42837119444130084 
1.2099999999998832, -0.42318728674037065 
1.219999999999882, -0.4157012850396863 
1.229999999999881, -0.4058436847474072 
1.2399999999998799, -0.39444658812060535 
1.2499999999998788, -0.3830353339100739 
1.2599999999998777, -0.3729833124037533 
1.2699999999998766, -0.36491650247340734 
1.2799999999998755, -0.35879277480394484 
1.2899999999998744, -0.35426278876905865 
1.2999999999998733, -0.3509348306507731 
1.3099999999998722, -0.34848410498292764 
1.319999999999871, -0.34667339676256 
1.32999999999987, -0.3453417507937856 
1.3399999999998689, -0.3443874921503799 
1.3499999999998678, -0.34375453013953206 
1.3599999999998666, -0.34342410865708456 
1.3699999999998655, -0.3434122924223117 
1.3799999999998644, -0.34377353289880713 
1.3899999999998633, -0.34461154653324166 
1.3999999999998622, -0.3461001458313902 
1.4099999999998611, -0.3485183491774372 
1.41999999999986, -0.3523048942293291 
1.429999999999859, -0.35813234843208164 
1.4399999999998578, -0.3669747112242 
1.4499999999998567, -0.38005854068009653 
1.4599999999998556, -0.3984210643916022 
1.4699999999998545, -0.4217708841103559 
1.4799999999998534, -0.44723903995417 
1.4899999999998523, -0.47015390488356185 
1.4999999999998512, -0.48721737438973695 
1.5099999999998501, -0.49824518619554503 
1.519999999999849, -0.5048465449821687 
1.529999999999848, -0.5087022598966335 
1.5399999999998468, -0.5109544714059012 
1.5499999999998457, -0.5122644935779966 
1.5599999999998446, -0.5129939277830482 
1.5699999999998435, -0.5133353754625659 
1.5799999999998424, -0.5133851644116323 
1.5899999999998413, -0.5131801094529338 
1.5999999999998402, -0.5127157128537971 
1.6099999999998391, -0.5119574062931683 
1.619999999999838, -0.5108543633582168 
1.629999999999837, -0.5093641153106158 
1.6399999999998358, -0.507488905273578 
1.6499999999998347, -0.5053074443955213 
1.6599999999998336, -0.5029728334385719 
1.6699999999998325, -0.5006659716943191 
1.6799999999998314, -0.4985344061089464 
1.6899999999998303, -0.49665776190290184 
1.6999999999998292, -0.49505078640917083 
1.709999999999828, -0.4936870740556268 
1.719999999999827, -0.49252445110336873 
1.729999999999826, -0.4915231471818392 
1.7399999999998248, -0.4906557784096421 
1.7499999999998237, -0.4899115466884002 
1.7599999999998226, -0.4892978580385363 
1.7699999999998215, -0.48884211782329795 
1.7799999999998204, -0.4885956226071163 
1.7899999999998193, -0.4886408942967731 
1.7999999999998182, -0.4891037773317488 
1.809999999999817, -0.4901720709414311 
1.819999999999816, -0.49212303050440165 
1.8299999999998149, -0.49536173678862 
1.8399999999998138, -0.5004681718256876 
1.8499999999998127, -0.5082351831484102 
1.8599999999998116, -0.5196369454530961 
1.8699999999998105, -0.5355867285700111 
1.8799999999998094, -0.5562956184263822 
1.8899999999998083, -0.5803385695552497 
1.8999999999998072, -0.604396629941513 
1.909999999999806, -0.6247823357249418 
1.919999999999805, -0.6396218931158694 
1.9299999999998039, -0.6492819604597174 
1.9399999999998028, -0.6551672832410449 
1.9499999999998017, -0.6586332761526622 
1.9599999999998006, -0.6606248529674963 
1.9699999999997995, -0.6617150020301913 
1.9799999999997984, -0.6622268745450687 
1.9899999999997973, -0.6623283976573136 
1.9999999999997962, -0.6620864022482464 
2.0099999999998173, -0.661489724530146 
2.0199999999998384, -0.6604500306574064 
2.0299999999998595, -0.6587868266919289 
2.0399999999998806, -0.656208188895065 
2.0499999999999017, -0.6523183761186451 
2.059999999999923, -0.6467131138131407 
2.069999999999944, -0.6392100020131862 
2.079999999999965, -0.6301168616659735 
2.089999999999986, -0.6202613251280575 
2.100000000000007, -0.6106523581844671 
2.1100000000000283, -0.6020583189450013 
2.1200000000000494, -0.594836776415167 
2.1300000000000705, -0.5890178667576069 
2.1400000000000916, -0.5844613247429882 
2.1500000000001127, -0.5809729288977212 
2.160000000000134, -0.5783630469498698 
2.170000000000155, -0.5764672073863266 
2.180000000000176, -0.5751488154906677 
2.190000000000197, -0.5742958402352543 
2.2000000000002182, -0.5738167966010025 
2.2100000000002393, -0.5736377803066863 
2.2200000000002604, -0.5737007333643973 
2.2300000000002815, -0.5739626324221769 
2.2400000000003026, -0.5743952929673141 
2.2500000000003237, -0.5749855318786457 
2.260000000000345, -0.5757351817467922 
2.270000000000366, -0.5766597294230915 
2.280000000000387, -0.5777833825194347 
2.290000000000408, -0.5791279432165302 
2.3000000000004293, -0.5806942562838089 
2.3100000000004504, -0.5824396580129725 
2.3200000000004715, -0.5842629935032493 
2.3300000000004926, -0.5860144582417457 
2.3400000000005137, -0.5875371634869985 
2.3500000000005348, -0.5887194041149459 
2.360000000000556, -0.5895216824904871 
2.370000000000577, -0.5899649202804044 
2.380000000000598, -0.590098164587966 
2.390000000000619, -0.5899695016983721 
2.4000000000006403, -0.5896093131255851 
2.4100000000006614, -0.589022924935509 
2.4200000000006825, -0.5881865666858569 
2.4300000000007036, -0.5870414487461241 
2.4400000000007247, -0.585480606647421 
2.450000000000746, -0.5833180144705263 
2.460000000000767, -0.5802129215864062 
2.470000000000788, -0.5754865307142907 
2.480000000000809, -0.567743062753842 
2.49000000000083, -0.5544216383180887 
2.5000000000008513, -0.5323323752264922 
2.5100000000008724, -0.50081868652914 
2.5200000000008935, -0.4650788106683401 
2.5300000000009146, -0.4331107016356667 
2.5400000000009357, -0.40936019429850584 
2.550000000000957, -0.39363128065209774 
2.560000000000978, -0.38380157327003495 
2.570000000000999, -0.3778028484271395 
2.58000000000102, -0.3741717568397247 
2.5900000000010412, -0.3719858697531333 
2.6000000000010624, -0.3706879992119042 
2.6100000000010835, -0.369945944232728 
2.6200000000011046, -0.3695625272966528 
2.6300000000011257, -0.3694221575909008 
2.6400000000011468, -0.3694602629457138 
2.650000000001168, -0.3696465813248632 
2.660000000001189, -0.3699769958752934 
2.67000000000121, -0.3704707138174327 
2.680000000001231, -0.3711703976792874 
2.6900000000012523, -0.3721426749381728 
2.7000000000012734, -0.3734754852473268 
2.7100000000012945, -0.37526691424527014 
2.7200000000013156, -0.3775978613260888 
2.7300000000013367, -0.38048221346705924 
2.740000000001358, -0.38380431917457736 
2.750000000001379, -0.3872892099496824 
2.7600000000014, -0.3905661340764487 
2.770000000001421, -0.3933150787747925 
2.780000000001442, -0.3953840725867633 
2.7900000000014633, -0.39679045890370723 
2.8000000000014844, -0.397641910099212 
2.8100000000015055, -0.39805823606022905 
2.8200000000015266, -0.39812919506107997 
2.8300000000015477, -0.39790017174009695 
2.840000000001569, -0.39736831651917504 
2.85000000000159, -0.3964782357370022 
2.860000000001611, -0.39511465284175223 
2.870000000001632, -0.3930993177015736 
2.8800000000016532, -0.390214655539294 
2.8900000000016743, -0.3862893926372554 
2.9000000000016954, -0.3813518442878278 
2.9100000000017165, -0.37575022304790723 
2.9200000000017377, -0.3700746134512261 
2.9300000000017588, -0.364890279850195 
2.94000000000178, -0.3605190131085664 
2.950000000001801, -0.3570194750510958 
2.960000000001822, -0.3542912955668718 
2.970000000001843, -0.3521803669123841 
2.9800000000018643, -0.35053925200528996 
2.9900000000018854, -0.3492507102705303 
3.0000000000019065, -0.34823225368366295 
3.0100000000019276, -0.3474337087177435 
3.0200000000019487, -0.3468339331328737 
3.03000000000197, -0.346439817828584 
3.040000000001991, -0.346289608553127 
3.050000000002012, -0.3464627326724023 
3.060000000002033, -0.3470996020016165 
3.070000000002054, -0.34843748613526604 
3.0800000000020753, -0.35087266617414026 
3.0900000000020964, -0.3550633133749499 
3.1000000000021175, -0.36208299488743134 
3.1100000000021386, -0.37358595300913283 
3.1200000000021597, -0.3917553903301264 
3.130000000002181, -0.41838582447209555 
3.140000000002202, -0.45242637523874657 
3.150000000002223, -0.48784439158351844 
3.160000000002244, -0.5167477639061693 
3.1700000000022652, -0.5357843975314082 
3.1800000000022863, -0.5468260337363771 
3.1900000000023074, -0.5530549254802424 
3.2000000000023285, -0.5566943446792812 
3.2100000000023496, -0.5589249022264582 
3.2200000000023707, -0.5603315904428243 
3.230000000002392, -0.5612136330491296 
3.240000000002413, -0.5617329098797476 
3.250000000002434, -0.561978288549873 
3.260000000002455, -0.5619935126656872 
3.2700000000024763, -0.5617897525167039 
3.2800000000024974, -0.5613522473615846 
3.2900000000025185, -0.5606470483973296 
3.3000000000025396, -0.5596336338502217 
3.3100000000025607, -0.5582875414665163 
3.3200000000025818, -0.556629128247033 
3.330000000002603, -0.5547413183713281 
3.340000000002624, -0.552756496159071 
3.350000000002645, -0.5508144391575998 
3.360000000002666, -0.5490193005645232 
3.3700000000026873, -0.5474212320172775 
3.3800000000027084, -0.5460241241917358 
3.3900000000027295, -0.5448055214324571 
3.4000000000027506, -0.5437360054502685 
3.4100000000027717, -0.542792449200268 
3.420000000002793, -0.5419649063392794 
3.430000000002814, -0.5412594092254097 
3.440000000002835, -0.5406993541040691 
3.450000000002856, -0.5403274144031474 
3.460000000002877, -0.5402089980065349 
3.4700000000028983, -0.5404377223641961 
3.4800000000029194, -0.5411432920601771 
3.4900000000029405, -0.5425022787796465 
3.5000000000029616, -0.5447521224393505 
3.5100000000029827, -0.5482071730171278 
3.520000000003004, -0.553270596730926 
3.530000000003025, -0.5604234605997894 
3.540000000003046, -0.5701482473512132 
3.550000000003067, -0.5827182647127618 
3.5600000000030882, -0.5978194506660595 
3.5700000000031094, -0.6141893234043428 
3.5800000000031305, -0.6297750014082326 
3.5900000000031516, -0.6426647566068515 
3.6000000000031727, -0.6520392819259342 
3.6100000000031938, -0.6582167017644553 
3.620000000003215, -0.6620247502336922 
3.630000000003236, -0.6642612228364453 
3.640000000003257, -0.6654985259546917 
3.650000000003278, -0.6660913272526957 
3.6600000000032993, -0.6662361705223033 
3.6700000000033204, -0.6660202984374373 
3.6800000000033415, -0.6654464128576528 
3.6900000000033626, -0.6644337373762685 
3.7000000000033837, -0.6627959315190327 
3.710000000003405, -0.6601967254874498 
3.720000000003426, -0.6560976524044427 
3.730000000003447, -0.6497588436372258 
3.740000000003468, -0.6404317138280489 
3.750000000003489, -0.6278594394534043 
3.7600000000035103, -0.6128307180150908 
3.7700000000035314, -0.5971066999398504 
3.7800000000035525, -0.5825533938290597 
3.7900000000035736, -0.5703176608364406 
3.8000000000035947, -0.5606935571581326 
3.810000000003616, -0.5534443015536109 
3.820000000003637, -0.5481395448150759 
3.830000000003658, -0.5443452994814532 
3.840000000003679, -0.5416946233487666 
3.8500000000037002, -0.5398990571433572 
3.8600000000037213, -0.5387389197932226 
3.8700000000037424, -0.5380494561828155 
3.8800000000037635, -0.5377086170809127 
3.8900000000037847, -0.537627661191444 
3.9000000000038058, -0.5377443409137681 
3.910000000003827, -0.5380182326902756 
3.920000000003848, -0.5384278622873494 
3.930000000003869, -0.538969175057108 
3.94000000000389, -0.539654361107224 
3.9500000000039113, -0.5405091094585177 
3.9600000000039324, -0.541565545562688 
3.9700000000039535, -0.5428483257223691 
3.9800000000039746, -0.5443537401515355 
3.9900000000039957, -0.5460274408415554 
4.000000000004016, -0.5477548151769664 
4.010000000003993, -0.5493804689415651 
4.02000000000397, -0.5507563767325656 
4.030000000003946, -0.5517899382441149 
4.040000000003923, -0.5524592694960224 
4.0500000000039, -0.5527930842469899 
4.0600000000038765, -0.5528380101339444 
4.070000000003853, -0.5526329961221234 
4.08000000000383, -0.5521949553240115 
4.090000000003807, -0.5515104427765808 
4.100000000003783, -0.5505261319197141 
4.11000000000376, -0.5491301270406147 
4.120000000003737, -0.5471116921713504 
4.130000000003713, -0.5440746398663798 
4.14000000000369, -0.5392589334786437 
4.150000000003667, -0.5312303344578243 
4.1600000000036434, -0.5176019286146218 
4.17000000000362, -0.4956492268385104 
4.180000000003597, -0.4650113835704611 
4.1900000000035735, -0.4304154638647134 
4.20000000000355, -0.39910177349097 
4.210000000003527, -0.3752913614550174 
4.220000000003504, -0.3590201368594373 
4.23000000000348, -0.34845259032371373 
4.240000000003457, -0.34170252312914895 
4.250000000003434, -0.337392963408548 
4.26000000000341, -0.33463295653251285 
4.270000000003387, -0.332871106295724 
4.280000000003364, -0.3317712409320744 
4.2900000000033405, -0.33113034580900846 
4.300000000003317, -0.3308290137752009 
4.310000000003294, -0.33080300795603695 
4.320000000003271, -0.33102813883349036 
4.330000000003247, -0.3315139223507779 
4.340000000003224, -0.33230360026985833 
4.350000000003201, -0.3334791614961678 
4.360000000003177, -0.33516993092455294 
4.370000000003154, -0.3375613211763822 
4.380000000003131, -0.3408943488712307 
4.390000000003107, -0.3454334646641383 
4.400000000003084, -0.35136382764723695 
4.410000000003061, -0.35859347274955333 
4.4200000000030375, -0.3665517654601128 
4.430000000003014, -0.37424847899760316 
4.440000000002991, -0.38072882199241187 
4.450000000002968, -0.3855459984351244 
4.460000000002944, -0.3887994642335802 
4.470000000002921, -0.3908494958420396 
4.480000000002898, -0.39206211458222856 
4.490000000002874, -0.39270760644137626 
4.500000000002851, -0.3929546669767826 
4.510000000002828, -0.39289279568768 
4.520000000002804, -0.39255338131421463 
4.530000000002781, -0.3919238406301101 
4.540000000002758, -0.39095898172825627 
4.5500000000027345, -0.3895982541537676 
4.560000000002711, -0.3877981832726179 
4.570000000002688, -0.38557923515107434 
4.580000000002665, -0.38306202334890516 
4.590000000002641, -0.38045322138967197 
4.600000000002618, -0.37797489848774435 
4.610000000002595, -0.37578724919399364 
4.620000000002571, -0.3739568784291721 
4.630000000002548, -0.37247275439193617 
4.640000000002525, -0.3712803549325001 
4.6500000000025015, -0.3703113922576897 
4.660000000002478, -0.36950271042226 
4.670000000002455, -0.36880584742554545 
4.6800000000024315, -0.3681903359513122 
4.690000000002408, -0.36764389325280716 
4.700000000002385, -0.3671725460250241 
4.710000000002362, -0.3668034388045074 
4.720000000002338, -0.3665930188989863 
4.730000000002315, -0.36664416473305134 
4.740000000002292, -0.36713810697059956 
4.750000000002268, -0.36839059009530983 
4.760000000002245, -0.37094398903567605 
4.770000000002222, -0.3756943539757822 
4.7800000000021985, -0.38397450822394147 
4.790000000002175, -0.3972526128118346 
4.800000000002152, -0.41566882436055363 
4.810000000002129, -0.43529394357511153 
4.820000000002105, -0.4481319044552633 
4.830000000002082, -0.4493894191084995 
4.840000000002059, -0.44271308117066066 
4.850000000002035, -0.4345710781847426 
4.860000000002012, -0.42834466572994423 
4.870000000001989, -0.42446040991439055 
4.880000000001965, -0.4222964446376813 
4.890000000001942, -0.42118764219952104 
4.900000000001919, -0.420670813558936 
