t, s[1].omega / s[0].omega 
0, -0.32002719319263745 
0.009999999999999995, -0.32299300280032056 
0.019999999999999934, -0.3263039960404149 
0.029999999999999874, -0.3296445472682482 
0.04000000000000012, -0.3326588384391723 
0.050000000000000405, -0.33509613586945053 
0.06000000000000069, -0.3368820462276668 
0.07000000000000098, -0.3380798045199144 
0.08000000000000126, -0.33880801461432586 
0.09000000000000155, -0.3391799761386777 
0.10000000000000184, -0.33927813331846496 
0.11000000000000212, -0.33914984281704164 
0.12000000000000241, -0.338810677986053 
0.130000000000002, -0.3382490460496872 
0.1400000000000009, -0.3374320484476928 
0.1499999999999998, -0.33631653101085013 
0.1599999999999987, -0.3348705202574139 
0.1699999999999976, -0.3331047884033338 
0.1799999999999965, -0.33109971386354864 
0.1899999999999954, -0.32900151852288223 
0.1999999999999943, -0.3269783501145057 
0.2099999999999932, -0.325163466059454 
0.2199999999999921, -0.3236236281628139 
0.229999999999991, -0.3223628442764966 
0.2399999999999899, -0.321344943445846 
0.2499999999999888, -0.32051697475514696 
0.2599999999999877, -0.31982575285539483 
0.2699999999999866, -0.3192270374181277 
0.2799999999999855, -0.31868910599623157 
0.2899999999999844, -0.31819288714304295 
0.2999999999999833, -0.31773079223346706 
0.3099999999999822, -0.31730602480493325 
0.3199999999999811, -0.3169335970425114 
0.32999999999998, -0.3166437711793563 
0.3399999999999789, -0.3164879317375023 
0.3499999999999778, -0.31654458034600286 
0.35999999999997667, -0.316915098521983 
0.36999999999997557, -0.3176754956688804 
0.37999999999997447, -0.31870009367498914 
0.38999999999997337, -0.31923823822974284 
0.39999999999997227, -0.3173868089895565 
0.40999999999997117, -0.31054054938371356 
0.41999999999997006, -0.2979305363276779 
0.42999999999996896, -0.28248276612336176 
0.43999999999996786, -0.2683258506140763 
0.44999999999996676, -0.25755979879082513 
0.45999999999996566, -0.25016210905757796 
0.46999999999996456, -0.245300310248813 
0.47999999999996346, -0.24214670701333246 
0.48999999999996235, -0.2401012871756593 
0.49999999999996125, -0.23877592304094558 
0.5099999999999602, -0.2379317670185896 
0.519999999999959, -0.2374270330516451 
0.529999999999958, -0.2371829999320058 
0.5399999999999568, -0.23716448550550484 
0.5499999999999557, -0.23737048255458806 
0.5599999999999546, -0.2378322386610578 
0.5699999999999535, -0.23861754951310093 
0.5799999999999524, -0.2398408881322709 
0.5899999999999513, -0.24167859220835147 
0.5999999999999502, -0.24438474351283582 
0.6099999999999491, -0.24829195476238444 
0.619999999999948, -0.2537561614266333 
0.6299999999999469, -0.26097712219377084 
0.6399999999999458, -0.2696766712515319 
0.6499999999999447, -0.27886821431656583 
0.6599999999999436, -0.28716966386793696 
0.6699999999999425, -0.29359526141033643 
0.6799999999999414, -0.29799292561171087 
0.6899999999999403, -0.3007740859978227 
0.6999999999999392, -0.30246091255720287 
0.7099999999999381, -0.30345869030348976 
0.719999999999937, -0.30402664196274565 
0.7299999999999359, -0.3043165697703559 
0.7399999999999348, -0.3044133046032132 
0.7499999999999337, -0.304362197975513 
0.7599999999999326, -0.3041861271309422 
0.7699999999999315, -0.3038969760522 
0.7799999999999304, -0.3035052270541088 
0.7899999999999293, -0.3030289917729437 
0.7999999999999282, -0.30250093762560304 
0.8099999999999271, -0.3019694433876369 
0.819999999999926, -0.30149147279730937 
0.8299999999999249, -0.30111931985619245 
0.8399999999999238, -0.3008871468418457 
0.8499999999999227, -0.3008023086889383 
0.8599999999999216, -0.3008432588429618 
0.8699999999999205, -0.3009644052254074 
0.8799999999999194, -0.30110757762992346 
0.8899999999999183, -0.30121678902269833 
0.8999999999999172, -0.30124978946336267 
0.9099999999999161, -0.30118136006147955 
0.919999999999915, -0.30099863668342625 
0.9299999999999139, -0.30069234430572833 
0.9399999999999128, -0.3002471019079421 
0.9499999999999117, -0.29963104716178185 
0.9599999999999106, -0.2987823604369969 
0.9699999999999095, -0.2975886216700014 
0.9799999999999084, -0.2958555230984198 
0.9899999999999073, -0.29327026938206385 
0.9999999999999062, -0.28939635548059794 
1.0099999999999052, -0.2837942126884267 
1.019999999999904, -0.2763552120111679 
1.029999999999903, -0.26766618992877667 
1.039999999999902, -0.2589008681852085 
1.0499999999999008, -0.2511654185362755 
1.0599999999998997, -0.2449851029864037 
1.0699999999998986, -0.2403364228882407 
1.0799999999998975, -0.23693633053610502 
1.0899999999998964, -0.23446433527026497 
1.0999999999998953, -0.23265538120483722 
1.1099999999998942, -0.23131717832740262 
1.119999999999893, -0.230320400765742 
1.129999999999892, -0.2295844299778694 
1.1399999999998909, -0.22906627003025148 
1.1499999999998898, -0.22875454367724563 
1.1599999999998887, -0.22866912086482832 
1.1699999999998876, -0.22886731816142897 
1.1799999999998865, -0.2294588028822672 
1.1899999999998854, -0.23063286247467568 
1.1999999999998843, -0.23270204144198758 
1.2099999999998832, -0.23615897607239295 
1.219999999999882, -0.2417076052168085 
1.229999999999881, -0.2501188676424371 
1.2399999999998799, -0.2615720058297871 
1.2499999999998788, -0.27433766888258365 
1.2599999999998777, -0.2843312766586287 
1.2699999999998766, -0.28810547274146137 
1.2799999999998755, -0.2863459293475298 
1.2899999999998744, -0.2823109831740144 
1.2999999999998733, -0.2784323880509397 
1.3099999999998722, -0.275535223510393 
1.319999999999871, -0.2735936053858127 
1.32999999999987, -0.27235665388395874 
1.3399999999998689, -0.2715910996698066 
1.3499999999998678, -0.27113201302156575 
1.3599999999998666, -0.27087470181306694 
1.3699999999998655, -0.270757399370615 
1.3799999999998644, -0.2707477345891937 
1.3899999999998633, -0.2708346138412878 
1.3999999999998622, -0.27102456881589587 
1.4099999999998611, -0.27134136745082593 
1.41999999999986, -0.27182769403960405 
1.429999999999859, -0.2725473935905528 
1.4399999999998578, -0.2735858911230198 
1.4499999999998567, -0.2750445215531361 
1.4599999999998556, -0.27702139474973236 
1.4699999999998545, -0.27956969003668763 
1.4799999999998534, -0.28263398435254417 
1.4899999999998523, -0.28599806207383816 
1.4999999999998512, -0.2893109409892669 
1.5099999999998501, -0.29221725008145494 
1.519999999999849, -0.2945025671632435 
1.529999999999848, -0.29613578420152453 
1.5399999999998468, -0.29720639240267743 
1.5499999999998457, -0.2978397484682407 
1.5599999999998446, -0.29814503634658285 
1.5699999999998435, -0.29819764013293437 
1.5799999999998424, -0.2980391808598569 
1.5899999999998413, -0.2976830259015435 
1.5999999999998402, -0.29712104501666836 
1.6099999999998391, -0.296332596479184 
1.619999999999838, -0.2952988944924265 
1.629999999999837, -0.29402393464128523 
1.6399999999998358, -0.29255538571914513 
1.6499999999998347, -0.29098996084647794 
1.6599999999998336, -0.2894517132701553 
1.6699999999998325, -0.2880529393946892 
1.6799999999998314, -0.28686307223719265 
1.6899999999998303, -0.2859009614665563 
1.6999999999998292, -0.28514567648556477 
1.709999999999828, -0.2845534548388067 
1.719999999999827, -0.28407296745642807 
1.729999999999826, -0.28365633142587143 
1.7399999999998248, -0.28326528015552754 
1.7499999999998237, -0.28287269361198397 
1.7599999999998226, -0.2824606655840301 
1.7699999999998215, -0.28201678315499995 
1.7799999999998204, -0.2815297282641611 
1.7899999999998193, -0.28098392094478297 
1.7999999999998182, -0.28035081704402864 
1.809999999999817, -0.27957071944229067 
1.819999999999816, -0.2785114942908903 
1.8299999999998149, -0.27687884323434914 
1.8399999999998138, -0.2740533193408866 
1.8499999999998127, -0.26892212211505867 
1.8599999999998116, -0.26009097138553133 
1.8699999999998105, -0.24704473031054333 
1.8799999999998094, -0.23150255471885686 
1.8899999999998083, -0.2166382077121626 
1.8999999999998072, -0.2046858495348872 
1.909999999999806, -0.19605810902190168 
1.919999999999805, -0.19014281142609885 
1.9299999999998039, -0.18614576876399835 
1.9399999999998028, -0.1834315565714182 
1.9499999999998017, -0.18156715685023875 
1.9599999999998006, -0.18027720593153207 
1.9699999999997995, -0.17939417009948017 
1.9799999999997984, -0.17882296297943376 
1.9899999999997973, -0.17852012998953795 
1.9999999999997962, -0.17848460643081027 
2.0099999999998173, -0.17875832119588958 
2.0199999999998384, -0.17943715858115158 
2.0299999999998595, -0.1806953381052438 
2.0399999999998806, -0.18282851557789154 
2.0499999999999017, -0.1863192137213843 
2.059999999999923, -0.19190766199286655 
2.069999999999944, -0.2005684045374135 
2.079999999999965, -0.21309053572536002 
2.089999999999986, -0.22885487395109033 
2.100000000000007, -0.24452017963502212 
2.1100000000000283, -0.2555273128017021 
2.1200000000000494, -0.2602686854235653 
2.1300000000000705, -0.260784978014339 
2.1400000000000916, -0.2596913804030053 
2.1500000000001127, -0.2584201223261611 
2.160000000000134, -0.2574278645277391 
2.170000000000155, -0.2567544563067362 
2.180000000000176, -0.25632824873417526 
2.190000000000197, -0.2560733458447662 
2.2000000000002182, -0.25593485801865123 
2.2100000000002393, -0.25587938697411744 
2.2200000000002604, -0.25589088210528216 
2.2300000000002815, -0.2559675794984749 
2.2400000000003026, -0.25612114022595184 
2.2500000000003237, -0.2563777461893596 
2.260000000000345, -0.256780334918362 
2.270000000000366, -0.25739058809708226 
2.280000000000387, -0.25828844846807375 
2.290000000000408, -0.2595654119777285 
2.3000000000004293, -0.261305426108965 
2.3100000000004504, -0.26354658144348475 
2.3200000000004715, -0.2662268939182753 
2.3300000000004926, -0.26914603585861635 
2.3400000000005137, -0.2719974496235026 
2.3500000000005348, -0.27448269559913296 
2.360000000000556, -0.2764275988943815 
2.370000000000577, -0.27780991789075216 
2.380000000000598, -0.27870484306700655 
2.390000000000619, -0.2792157642061571 
2.4000000000006403, -0.2794319214283835 
2.4100000000006614, -0.2794135498134557 
2.4200000000006825, -0.27919134860200623 
2.4300000000007036, -0.2787708638352556 
2.4400000000007247, -0.2781388902772493 
2.450000000000746, -0.2772734141596054 
2.460000000000767, -0.2761600092691479 
2.470000000000788, -0.27481410524387034 
2.480000000000809, -0.2732993906405704 
2.49000000000083, -0.27172570991560796 
2.5000000000008513, -0.27021966607932957 
2.5100000000008724, -0.26888453260336076 
2.5200000000008935, -0.2677751005659451 
2.5300000000009146, -0.26689669735731264 
2.5400000000009357, -0.26621915505658583 
2.550000000000957, -0.26569375982861326 
2.560000000000978, -0.2652673614520599 
2.570000000000999, -0.2648921625108042 
2.58000000000102, -0.26453078128266344 
2.5900000000010412, -0.2641567825322141 
2.6000000000010624, -0.2637518600272341 
2.6100000000010835, -0.26330121585669375 
2.6200000000011046, -0.2627878607086981 
2.6300000000011257, -0.26218483962975997 
2.6400000000011468, -0.26144176429213994 
2.650000000001168, -0.2604575616811581 
2.660000000001189, -0.2590241588696624 
2.67000000000121, -0.25672170046614734 
2.680000000001231, -0.2527804660906151 
2.6900000000012523, -0.24608870990783838 
2.7000000000012734, -0.23578231598343416 
2.7100000000012945, -0.22244579856860985 
2.7200000000013156, -0.20842961504508847 
2.7300000000013367, -0.19622795735173257 
2.740000000001358, -0.18693517019058956 
2.750000000001379, -0.18036591922968417 
2.7600000000014, -0.17585763406116106 
2.770000000001421, -0.17277132168970538 
2.780000000001442, -0.17063590547527402 
2.7900000000014633, -0.1691390461172137 
2.8000000000014844, -0.16808449077517876 
2.8100000000015055, -0.167355285964856 
2.8200000000015266, -0.16688977104222946 
2.8300000000015477, -0.1666689562944324 
2.840000000001569, -0.16671347147125992 
2.85000000000159, -0.16708992885440205 
2.860000000001611, -0.16792879368379693 
2.870000000001632, -0.16945814309986815 
2.8800000000016532, -0.17205768388023868 
2.8900000000016743, -0.17632454555246574 
2.9000000000016954, -0.18308160261690987 
2.9100000000017165, -0.1930807408836622 
2.9200000000017377, -0.20593504871670518 
2.9300000000017588, -0.21853263393602237 
2.94000000000178, -0.2258641498344108 
2.950000000001801, -0.22588992328838606 
2.960000000001822, -0.22144372706385643 
2.970000000001843, -0.21622552901166586 
2.9800000000018643, -0.2120124355432748 
2.9900000000018854, -0.20906867742007923 
3.0000000000019065, -0.20713027525299116 
3.0100000000019276, -0.2058846666544885 
3.0200000000019487, -0.2050978685376105 
3.03000000000197, -0.20461843370289787 
3.040000000001991, -0.2043561180468234 
3.050000000002012, -0.2042629936099713 
3.060000000002033, -0.20432172324198508 
3.070000000002054, -0.20454025734209536 
3.0800000000020753, -0.20495169250404519 
3.0900000000020964, -0.20561845671880383 
3.1000000000021175, -0.20664015517570852 
3.1100000000021386, -0.2081635102165545 
3.1200000000021597, -0.21038913458420364 
3.130000000002181, -0.2135601222496477 
3.140000000002202, -0.21790038352813004 
3.150000000002223, -0.2234645263612054 
3.160000000002244, -0.22992828008516417 
3.1700000000022652, -0.23652082868019075 
3.1800000000022863, -0.24232946429979588 
3.1900000000023074, -0.24678911422457345 
3.2000000000023285, -0.24986188125214182 
3.2100000000023496, -0.25182975198646523 
3.2200000000023707, -0.2530297934543368 
3.230000000002392, -0.25372630700469745 
3.240000000002413, -0.2540928676116209 
3.250000000002434, -0.2542335381927988 
3.260000000002455, -0.25420702224863173 
3.2700000000024763, -0.25404470210465435 
3.2800000000024974, -0.253763563779951 
3.2900000000025185, -0.25337676928179464 
3.3000000000025396, -0.25290336828455817 
3.3100000000025607, -0.25237607299329234 
3.3200000000025818, -0.2518437191204364 
3.330000000002603, -0.25136560627120536 
3.340000000002624, -0.2509991588721633 
3.350000000002645, -0.25078635492419965 
3.360000000002666, -0.25074379335451474 
3.3700000000026873, -0.25085800373184697 
3.3800000000027084, -0.2510865882833539 
3.3900000000027295, -0.2513667186558052 
3.4000000000027506, -0.251630477190542 
3.4100000000027717, -0.2518210459458406 
3.420000000002793, -0.2519015578588279 
3.430000000002814, -0.2518534046391776 
3.440000000002835, -0.25166734455051026 
3.450000000002856, -0.2513324306982928 
3.460000000002877, -0.25082513032806675 
3.4700000000028983, -0.2500979405242264 
3.4800000000029194, -0.2490656728914801 
3.4900000000029405, -0.24758972779099486 
3.5000000000029616, -0.24546921761789844 
3.5100000000029827, -0.2424662499301856 
3.520000000003004, -0.23840850108414563 
3.530000000003025, -0.2333692553956372 
3.540000000003046, -0.22778470499797235 
3.550000000003067, -0.2223146308345844 
3.5600000000030882, -0.21751619984126194 
3.5700000000031094, -0.2136389585511383 
3.5800000000031305, -0.21066060360665104 
3.5900000000031516, -0.20842557270322293 
3.6000000000031727, -0.20675310704776537 
3.6100000000031938, -0.20548711662892782 
3.620000000003215, -0.20450923254311199 
3.630000000003236, -0.20373660850805533 
3.640000000003257, -0.20311570750153268 
3.650000000003278, -0.2026165726979882 
3.6600000000032993, -0.20222924614537557 
3.6700000000033204, -0.2019630602569889 
3.6800000000033415, -0.20184923468869917 
3.6900000000033626, -0.20194673002190208 
3.7000000000033837, -0.20234899760745745 
3.710000000003405, -0.2031802693591819 
3.720000000003426, -0.204541669884728 
3.730000000003447, -0.20630015438116 
3.740000000003468, -0.20755000440500432 
3.750000000003489, -0.20591139440097422 
3.7600000000035103, -0.1981960949617101 
3.7700000000035314, -0.1839191079101708 
3.7800000000035525, -0.16721281301757446 
3.7900000000035736, -0.15278686659409768 
3.8000000000035947, -0.14236434974150908 
3.810000000003616, -0.1354378900432027 
3.820000000003637, -0.1309520349274128 
3.830000000003658, -0.12803855013678317 
3.840000000003679, -0.12612330089682383 
3.8500000000037002, -0.12485599066950433 
3.8600000000037213, -0.1240317225033866 
3.8700000000037424, -0.12353791397654297 
3.8800000000037635, -0.12332428322082087 
3.8900000000037847, -0.1233894668381434 
3.9000000000038058, -0.12378054234195571 
3.910000000003827, -0.12460528802864554 
3.920000000003848, -0.12606057749252003 
3.930000000003869, -0.12848320558307388 
3.94000000000389, -0.13242657193817114 
3.9500000000039113, -0.13873632853137235 
3.9600000000039324, -0.1484786594805245 
3.9700000000039535, -0.16230901677224424 
3.9800000000039746, -0.17890423258000815 
3.9900000000039957, -0.1939601991919694 
4.000000000004016, -0.20312111879990033 
4.010000000003993, -0.20614211073942584 
4.02000000000397, -0.20577413807553585 
4.030000000003946, -0.20440598919802247 
4.040000000003923, -0.2031013244664634 
4.0500000000039, -0.20212726831878985 
4.0600000000038765, -0.20146587665422921 
4.070000000003853, -0.20103995702441466 
4.08000000000383, -0.20078216606691962 
4.090000000003807, -0.20064808126487854 
4.100000000003783, -0.20061454369737616 
4.11000000000376, -0.2006764870693721 
4.120000000003737, -0.2008457230642983 
4.130000000003713, -0.20115227830303323 
4.14000000000369, -0.20164806732431315 
4.150000000003667, -0.20241222581924578 
4.1600000000036434, -0.20355647764062917 
4.17000000000362, -0.20522629823068322 
4.180000000003597, -0.20758757969524577 
4.1900000000035735, -0.21077957294573632 
4.20000000000355, -0.2148162922192698 
4.210000000003527, -0.2194638663496419 
4.220000000003504, -0.22421330122050215 
4.23000000000348, -0.22846626899307196 
4.240000000003457, -0.2318247159680033 
4.250000000003434, -0.234215519657773 
4.26000000000341, -0.235788967660079 
4.270000000003387, -0.23675877528952674 
4.280000000003364, -0.2373082111113456 
4.2900000000033405, -0.23756505816571502 
4.300000000003317, -0.23760831283727107 
4.310000000003294, -0.2374820727267654 
4.320000000003271, -0.23720828217196593 
4.330000000003247, -0.23679784220011574 
4.340000000003224, -0.23626156627475453 
4.350000000003201, -0.2356211790924016 
4.360000000003177, -0.23491745025521796 
4.370000000003154, -0.2342103772068412 
4.380000000003131, -0.23356890913670209 
4.390000000003107, -0.23305449702318853 
4.400000000003084, -0.23270668730659955 
4.410000000003061, -0.2325357023063963 
4.4200000000030375, -0.23252169853434643 
4.430000000003014, -0.23261937154277473 
4.440000000002991, -0.23276798985307057 
4.450000000002968, -0.23290549900447002 
4.460000000002944, -0.23298140220365818 
4.470000000002921, -0.23296246517017302 
4.480000000002898, -0.23282978056847625 
4.490000000002874, -0.2325703409220059 
4.500000000002851, -0.23216680320205643 
4.510000000002828, -0.231586700900492 
4.520000000002804, -0.2307699636296961 
4.530000000002781, -0.22961312498064013 
4.540000000002758, -0.2279520841869626 
4.5500000000027345, -0.22555722532190678 
4.560000000002711, -0.22217759010992602 
4.570000000002688, -0.21767995164798068 
4.580000000002665, -0.21224924206943868 
4.590000000002641, -0.2064510368099449 
4.600000000002618, -0.2009908644049944 
4.610000000002595, -0.1963644521049419 
4.620000000002571, -0.19272373448144306 
4.630000000002548, -0.18997646799618034 
4.640000000002525, -0.18793642210199574 
4.6500000000025015, -0.1864171005558474 
4.660000000002478, -0.18526724870294042 
4.670000000002455, -0.18437602818119678 
4.6800000000024315, -0.18366759815775194 
4.690000000002408, -0.18309391044311113 
4.700000000002385, -0.18262883338349317 
4.710000000002362, -0.1822645955553408 
4.720000000002338, -0.18201082323855944 
4.730000000002315, -0.18189592736828666 
4.740000000002292, -0.1819691166365687 
4.750000000002268, -0.18229609326261847 
4.760000000002245, -0.18292513997684662 
4.770000000002222, -0.18375855801181898 
4.7800000000021985, -0.18420160491993054 
4.790000000002175, -0.18255987440876803 
4.800000000002152, -0.17599494162110366 
4.810000000002129, -0.16285283964390565 
4.820000000002105, -0.14577951446617918 
4.830000000002082, -0.1297815559466841 
4.840000000002059, -0.11767561315805664 
