t, s[1].omega / s[0].omega 
0, -0.4400653504823354 
0.009999999999999995, -0.44692236046981665 
0.019999999999999934, -0.4539207430614474 
0.029999999999999874, -0.4602553727200296 
0.04000000000000012, -0.46534333093551716 
0.050000000000000405, -0.4690319047652086 
0.06000000000000069, -0.47150439300104746 
0.07000000000000098, -0.4730639987745325 
0.08000000000000126, -0.4739860267811048 
0.09000000000000155, -0.4744686841208936 
0.10000000000000184, -0.47463605309026746 
0.11000000000000212, -0.4745544849565192 
0.12000000000000241, -0.4742463771009179 
0.130000000000002, -0.4736982315784653 
0.1400000000000009, -0.47286528289549085 
0.1499999999999998, -0.47167825717155604 
0.1599999999999987, -0.47006087022314597 
0.1699999999999976, -0.4679657145572541 
0.1799999999999965, -0.46542258376214785 
0.1899999999999954, -0.4625681379525298 
0.1999999999999943, -0.45962007274112915 
0.2099999999999932, -0.45680144663871813 
0.2199999999999921, -0.45426932197407976 
0.229999999999991, -0.45209106145101663 
0.2399999999999899, -0.45026335488821434 
0.2499999999999888, -0.4487453598273161 
0.2599999999999877, -0.4474859347703348 
0.2699999999999866, -0.44643973056774333 
0.2799999999999855, -0.4455744719181787 
0.2899999999999844, -0.44487332933267937 
0.2999999999999833, -0.4443355552292275 
0.3099999999999822, -0.44397746347461153 
0.3199999999999811, -0.443835029945593 
0.32999999999998, -0.4439690282601445 
0.3399999999999789, -0.4444736061225093 
0.3499999999999778, -0.4454893132195716 
0.35999999999997667, -0.44722129282910955 
0.36999999999997557, -0.4499613821317808 
0.37999999999997447, -0.4541062435868356 
0.38999999999997337, -0.4601467548018577 
0.39999999999997227, -0.4685724086864377 
0.40999999999997117, -0.47960994583113525 
0.41999999999997006, -0.4927981443569142 
0.42999999999996896, -0.5067137134592661 
0.43999999999996786, -0.5193997835546864 
0.44999999999996676, -0.5294113837313809 
0.45999999999996566, -0.5364415322801357 
0.46999999999996456, -0.5410144057445088 
0.47999999999996346, -0.5438690545316333 
0.48999999999996235, -0.545611322711326 
0.49999999999996125, -0.5466460632224337 
0.5099999999999602, -0.5472196702189139 
0.519999999999959, -0.5474738432774802 
0.529999999999958, -0.5474833321601937 
0.5399999999999568, -0.5472776661641697 
0.5499999999999557, -0.5468522855956978 
0.5599999999999546, -0.546174523575983 
0.5699999999999535, -0.5451902625695647 
0.5799999999999524, -0.5438383015475754 
0.5899999999999513, -0.54207812551836 
0.5999999999999502, -0.5399268053472975 
0.6099999999999491, -0.5374831933136696 
0.619999999999948, -0.5349129009561617 
0.6299999999999469, -0.5323952499020267 
0.6399999999999458, -0.5300680620530054 
0.6499999999999447, -0.5280035930544242 
0.6599999999999436, -0.5262172974117585 
0.6699999999999425, -0.5246910463184533 
0.6799999999999414, -0.5233948260299809 
0.6899999999999403, -0.5223008577046377 
0.6999999999999392, -0.5213906349043664 
0.7099999999999381, -0.5206575175691099 
0.719999999999937, -0.5201073485471903 
0.7299999999999359, -0.5197587084449227 
0.7399999999999348, -0.5196436762409763 
0.7499999999999337, -0.5198095346752838 
0.7599999999999326, -0.5203216708755374 
0.7699999999999315, -0.521267757487424 
0.7799999999999304, -0.5227628336991936 
0.7899999999999293, -0.5249536144293493 
0.7999999999999282, -0.5280173930352354 
0.8099999999999271, -0.5321453389099424 
0.819999999999926, -0.5374927219446306 
0.8299999999999249, -0.5440783399138373 
0.8399999999999238, -0.5516460861828438 
0.8499999999999227, -0.5595820296398492 
0.8599999999999216, -0.5670381819178613 
0.8699999999999205, -0.5732753407863039 
0.8799999999999194, -0.5779639552712841 
0.8899999999999183, -0.581194883928028 
0.8999999999999172, -0.5832755846207595 
0.9099999999999161, -0.5845340458718822 
0.919999999999915, -0.5852269322504341 
0.9299999999999139, -0.5855246888278635 
0.9399999999999128, -0.5855254274932539 
0.9499999999999117, -0.585270737969597 
0.9599999999999106, -0.5847543005578835 
0.9699999999999095, -0.5839218038363275 
0.9799999999999084, -0.5826637786485326 
0.9899999999999073, -0.5808073060087187 
0.9999999999999062, -0.5781225315753199 
1.0099999999999052, -0.5743736884468726 
1.019999999999904, -0.5694393489972269 
1.029999999999903, -0.5634629637371934 
1.039999999999902, -0.5569007907042538 
1.0499999999999008, -0.5503697278127664 
1.0599999999998997, -0.5443990172001637 
1.0699999999998986, -0.5392827586815094 
1.0799999999998975, -0.5350906932992603 
1.0899999999998964, -0.5317559630223649 
1.0999999999998953, -0.529157449825566 
1.1099999999998942, -0.527168851940633 
1.119999999999893, -0.525679840234691 
1.129999999999892, -0.5246015409006318 
1.1399999999998909, -0.5238653276537681 
1.1499999999998898, -0.523419734073933 
1.1599999999998887, -0.5232275859536916 
1.1699999999998876, -0.5232640677726722 
1.1799999999998865, -0.5235158308259475 
1.1899999999998854, -0.5239809965334088 
1.1999999999998843, -0.5246697124498223 
1.2099999999998832, -0.5256045480972429 
1.219999999999882, -0.5268192936142689 
1.229999999999881, -0.5283536394912929 
1.2399999999998799, -0.5302402529995865 
1.2499999999998788, -0.5324814965229885 
1.2599999999998777, -0.535018566103064 
1.2699999999998766, -0.5377083409610478 
1.2799999999998755, -0.5403346858893705 
1.2899999999998744, -0.5426683287796755 
1.2999999999998733, -0.5445459794526815 
1.3099999999998722, -0.5459126528566655 
1.319999999999871, -0.546804630302139 
1.32999999999987, -0.5473014024877548 
1.3399999999998689, -0.5474834826238345 
1.3499999999998678, -0.5474095473683958 
1.3599999999998666, -0.5471076862488209 
1.3699999999998655, -0.5465713113245722 
1.3799999999998644, -0.5457524248901316 
1.3899999999998633, -0.5445470240732508 
1.3999999999998622, -0.5427685712232162 
1.4099999999998611, -0.5401094729696279 
1.41999999999986, -0.5361077900892371 
1.429999999999859, -0.53018195219169 
1.4399999999998578, -0.5218502680505006 
1.4499999999998567, -0.5111700967847058 
1.4599999999998556, -0.4990706858377278 
1.4699999999998545, -0.4870657045049339 
1.4799999999998534, -0.4764787963074471 
1.4899999999998523, -0.4679389057900993 
1.4999999999998512, -0.4614459426777356 
1.5099999999998501, -0.456682650267346 
1.519999999999849, -0.4532614496635773 
1.529999999999848, -0.4508402155685868 
1.5399999999998468, -0.4491534486762057 
1.5499999999998457, -0.44800747022876336 
1.5599999999998446, -0.4472657400350456 
1.5699999999998435, -0.44683456760488205 
1.5799999999998424, -0.4466521159562399 
1.5899999999998413, -0.44668089716207626 
1.5999999999998402, -0.44690322441670494 
1.6099999999998391, -0.44731899779281276 
1.619999999999838, -0.44794516432380715 
1.629999999999837, -0.44881589302474173 
1.6399999999998358, -0.4499817312765605 
1.6499999999998347, -0.45150467027529906 
1.6599999999998336, -0.45344444113250904 
1.6699999999998325, -0.45583105214644365 
1.6799999999998314, -0.45862388400375265 
1.6899999999998303, -0.46167399299992207 
1.6999999999998292, -0.4647267028036589 
1.709999999999828, -0.46749241932464136 
1.719999999999827, -0.46975367316141137 
1.729999999999826, -0.4714291034187156 
1.7399999999998248, -0.4725563530835267 
1.7499999999998237, -0.4732306943170769 
1.7599999999998226, -0.47355094218066424 
1.7699999999998215, -0.47359133133100684 
1.7799999999998204, -0.4733922961435259 
1.7899999999998193, -0.47295822941350796 
1.7999999999998182, -0.47225435765932583 
1.809999999999817, -0.47119940425796125 
1.819999999999816, -0.4696552472012825 
1.8299999999998149, -0.4674229211000778 
1.8399999999998138, -0.4642688539577577 
1.8499999999998127, -0.4600152945179093 
1.8599999999998116, -0.4546940555132675 
1.8699999999998105, -0.44865911873473 
1.8799999999998094, -0.44250515506208077 
1.8899999999998083, -0.43681111908415443 
1.8999999999998072, -0.4319280578829418 
1.909999999999806, -0.42794970676624444 
1.919999999999805, -0.42480372167078206 
1.9299999999998039, -0.4223525280821342 
1.9399999999998028, -0.4204557112825218 
1.9499999999998017, -0.4189966242931414 
1.9599999999998006, -0.41788882371322 
1.9699999999997995, -0.41707421262998434 
1.9799999999997984, -0.41651919254559894 
1.9899999999997973, -0.41621159145090764 
1.9999999999997962, -0.41615944334434696 
2.0099999999998173, -0.4163920630893335 
2.0199999999998384, -0.4169637217217533 
2.0299999999998595, -0.4179601919148276 
2.0399999999998806, -0.41950807990910277 
2.0499999999999017, -0.42178541949182263 
2.059999999999923, -0.4250279084648166 
2.069999999999944, -0.42951589828183456 
2.079999999999965, -0.4355119886362667 
2.089999999999986, -0.44311097380001263 
2.100000000000007, -0.45201155309159224 
2.1100000000000283, -0.4613728431727786 
2.1200000000000494, -0.47003075741862166 
2.1300000000000705, -0.477056038300616 
2.1400000000000916, -0.4821517460557976 
2.1500000000001127, -0.48555763013956305 
2.160000000000134, -0.4877135814330636 
2.170000000000155, -0.4890209172971596 
2.180000000000176, -0.48976631284060235 
2.190000000000197, -0.4901304127388951 
2.2000000000002182, -0.4902164273590655 
2.2100000000002393, -0.490073769950712 
2.2200000000002604, -0.48971258108289906 
2.2300000000002815, -0.48911176266691214 
2.2400000000003026, -0.4882253658322515 
2.2500000000003237, -0.48699397407399225 
2.260000000000345, -0.4853681615512767 
2.270000000000366, -0.48334470605852486 
2.280000000000387, -0.48099937988766994 
2.290000000000408, -0.4784866855640037 
2.3000000000004293, -0.47599411478136855 
2.3100000000004504, -0.4736793657566608 
2.3200000000004715, -0.4716327047436253 
2.3300000000004926, -0.46987779907831123 
2.3400000000005137, -0.46839471891665985 
2.3500000000005348, -0.46714514201316854 
2.360000000000556, -0.4660902074705716 
2.370000000000577, -0.4652001583284295 
2.380000000000598, -0.46445837111951727 
2.390000000000619, -0.4638627501513894 
2.4000000000006403, -0.4634267583901697 
2.4100000000006614, -0.4631815485751571 
2.4200000000006825, -0.46318014611516717 
2.4300000000007036, -0.4635044810679888 
2.4400000000007247, -0.4642761149188851 
2.450000000000746, -0.46567138674187347 
2.460000000000767, -0.4679405635085917 
2.470000000000788, -0.4714264292302965 
2.480000000000809, -0.47656654670592224 
2.49000000000083, -0.48384019623460545 
2.5000000000008513, -0.49359229184988623 
2.5100000000008724, -0.505688891949037 
2.5200000000008935, -0.5191541617640415 
2.5300000000009146, -0.5322506742528736 
2.5400000000009357, -0.5432784988497894 
2.550000000000957, -0.5514451917740878 
2.560000000000978, -0.5569495687154403 
2.570000000000999, -0.5604532822114667 
2.58000000000102, -0.5626132783950542 
2.5900000000010412, -0.5639093284588114 
2.6000000000010624, -0.5646473113500676 
2.6100000000010835, -0.5650086385410515 
2.6200000000011046, -0.5650932331870256 
2.6300000000011257, -0.5649465411167849 
2.6400000000011468, -0.5645737468790473 
2.650000000001168, -0.5639461994895891 
2.660000000001189, -0.5630054905418207 
2.67000000000121, -0.5616724704578225 
2.680000000001231, -0.5598703363920442 
2.6900000000012523, -0.5575662302374298 
2.7000000000012734, -0.5548171938669281 
2.7100000000012945, -0.5517845857612164 
2.7200000000013156, -0.5486914188947254 
2.7300000000013367, -0.5457462660579327 
2.740000000001358, -0.5430870715752165 
2.750000000001379, -0.5407712987369158 
2.7600000000014, -0.5387982731113539 
2.770000000001421, -0.5371385086011524 
2.780000000001442, -0.5357557614266203 
2.7900000000014633, -0.5346192504068323 
2.8000000000014844, -0.5337086532133908 
2.8100000000015055, -0.5330151742110911 
2.8200000000015266, -0.5325410711766754 
2.8300000000015477, -0.5322990067008455 
2.840000000001569, -0.5323119113250532 
2.85000000000159, -0.5326136939571022 
2.860000000001611, -0.5332509336918421 
2.870000000001632, -0.5342854153970594 
2.8800000000016532, -0.5357967587958842 
2.8900000000016743, -0.5378830603238621 
2.9000000000016954, -0.5406549763363185 
2.9100000000017165, -0.5442150589950954 
2.9200000000017377, -0.5486118572539855 
2.9300000000017588, -0.5537658123717295 
2.94000000000178, -0.5593946292209304 
2.950000000001801, -0.5650118615246185 
2.960000000001822, -0.5700646875004757 
2.970000000001843, -0.5741524661834697 
2.9800000000018643, -0.5771544637594526 
2.9900000000018854, -0.5791832460976503 
3.0000000000019065, -0.580451387131798 
3.0100000000019276, -0.5811655507628604 
3.0200000000019487, -0.5814809383720818 
3.03000000000197, -0.5814946917260808 
3.040000000001991, -0.5812523075522387 
3.050000000002012, -0.580752783518302 
3.060000000002033, -0.5799468180439248 
3.070000000002054, -0.5787262754216461 
3.0800000000020753, -0.5769064092415117 
3.0900000000020964, -0.574210982075011 
3.1000000000021175, -0.5702904421664685 
3.1100000000021386, -0.564826449223833 
3.1200000000021597, -0.5577487370712577 
3.130000000002181, -0.5494476689193164 
3.140000000002202, -0.5407367504233049 
3.150000000002223, -0.5325078066111377 
3.160000000002244, -0.5253723495843675 
3.1700000000022652, -0.5195563636920502 
3.1800000000022863, -0.5150071059010427 
3.1900000000023074, -0.5115433592637914 
3.2000000000023285, -0.5089576613092774 
3.2100000000023496, -0.5070638830765428 
3.2200000000023707, -0.5057114108693347 
3.230000000002392, -0.5047844101157574 
3.240000000002413, -0.5041963667979135 
3.250000000002434, -0.5038843287200487 
3.260000000002455, -0.5038043501787681 
3.2700000000024763, -0.503928428308188 
3.2800000000024974, -0.5042427996350537 
3.2900000000025185, -0.5047473074537633 
3.3000000000025396, -0.5054553315969054 
3.3100000000025607, -0.5063932731786831 
3.3200000000025818, -0.5075977156825681 
3.330000000002603, -0.5091073432978155 
3.340000000002624, -0.5109463405062853 
3.350000000002645, -0.5130983843607567 
3.360000000002666, -0.5154784497039981 
3.3700000000026873, -0.5179224645377741 
3.3800000000027084, -0.5202179794572297 
3.3900000000027295, -0.5221726331361586 
3.4000000000027506, -0.5236771732204883 
3.4100000000027717, -0.524719677789809 
3.420000000002793, -0.5253533635376735 
3.430000000002814, -0.5256523591893056 
3.440000000002835, -0.525680589030272 
3.450000000002856, -0.525476930256861 
3.460000000002877, -0.5250490568645916 
3.4700000000028983, -0.5243679118661644 
3.4800000000029194, -0.5233569121524149 
3.4900000000029405, -0.5218715344331272 
3.5000000000029616, -0.5196675994044734 
3.5100000000029827, -0.5163676281718593 
3.520000000003004, -0.511467177116418 
3.530000000003025, -0.5044745873203351 
3.540000000003046, -0.4952578730375821 
3.550000000003067, -0.4844182783517306 
3.5600000000030882, -0.47322299537043583 
3.5700000000031094, -0.46298473004098695 
3.5800000000031305, -0.4544786344289341 
3.5900000000031516, -0.4478594299413799 
3.6000000000031727, -0.44290874983934286 
3.6100000000031938, -0.4392876167494161 
3.620000000003215, -0.43667417879524784 
3.630000000003236, -0.43481056984157795 
3.640000000003257, -0.4335059980392799 
3.650000000003278, -0.43262538931592054 
3.6600000000032993, -0.43207634959382907 
3.6700000000033204, -0.4317986326019591 
3.6800000000033415, -0.43175687851773503 
3.6900000000033626, -0.4319363238634117 
3.7000000000033837, -0.43234098384363795 
3.710000000003405, -0.4329937833200644 
3.720000000003426, -0.4339378901653238 
3.730000000003447, -0.4352377766406111 
3.740000000003468, -0.43697697159826704 
3.750000000003489, -0.4392468940859226 
3.7600000000035103, -0.44211853710725846 
3.7700000000035314, -0.44559082635225067 
3.7800000000035525, -0.4495265028312769 
3.7900000000035736, -0.4536216585237021 
3.8000000000035947, -0.4574706550555372 
3.810000000003616, -0.46072002553335956 
3.820000000003637, -0.463198704264722 
3.830000000003658, -0.4649268861383228 
3.840000000003679, -0.46603262113292276 
3.8500000000037002, -0.4666641267645641 
3.8600000000037213, -0.46694177405473064 
3.8700000000037424, -0.46694383000433365 
3.8800000000037635, -0.4667070249015687 
3.8900000000037847, -0.46622924303714025 
3.9000000000038058, -0.4654692693793495 
3.910000000003827, -0.46434382207276687 
3.920000000003848, -0.46272759788614615 
3.930000000003869, -0.4604700359331037 
3.94000000000389, -0.4574480747085185 
3.9500000000039113, -0.4536577559379129 
3.9600000000039324, -0.44929376415625033 
3.9700000000039535, -0.4447271626644998 
3.9800000000039746, -0.44036412039497747 
3.9900000000039957, -0.4364947730432978 
4.000000000004016, -0.4332393581452007 
4.010000000003993, -0.43058645778715593 
4.02000000000397, -0.42845858053657243 
4.030000000003946, -0.4267621045610377 
4.040000000003923, -0.4254136001757017 
4.0500000000039, -0.424349692650567 
4.0600000000038765, -0.42352869329357307 
4.070000000003853, -0.4229293852712259 
4.08000000000383, -0.422549832614044 
4.090000000003807, -0.422407617438232 
4.100000000003783, -0.42254227007265077 
4.11000000000376, -0.42302050786758605 
4.120000000003737, -0.42394493346934103 
4.130000000003713, -0.4254666585386085 
4.14000000000369, -0.4278010885611073 
4.150000000003667, -0.43124194864244736 
4.1600000000036434, -0.4361579128501054 
4.17000000000362, -0.4429352270265349 
4.180000000003597, -0.4518079737218472 
4.1900000000035735, -0.4625525963958327 
4.20000000000355, -0.47421501137014854 
4.210000000003527, -0.4852762879057373 
4.220000000003504, -0.49438763702120736 
4.23000000000348, -0.5010271646097662 
4.240000000003457, -0.5054579872167657 
4.250000000003434, -0.508260976943871 
4.26000000000341, -0.5099771181234379 
4.270000000003387, -0.5109915891737755 
4.280000000003364, -0.5115464879401738 
4.2900000000033405, -0.5117829936840559 
4.300000000003317, -0.5117758514915461 
4.310000000003294, -0.5115546476118269 
4.320000000003271, -0.5111153494775278 
4.330000000003247, -0.5104271461903594 
4.340000000003224, -0.509440421478856 
4.350000000003201, -0.5081026030372247 
4.360000000003177, -0.5063862741667364 
4.370000000003154, -0.5043230569205899 
4.380000000003131, -0.5020208483569464 
4.390000000003107, -0.49964214472276225 
4.400000000003084, -0.4973508604728546 
4.410000000003061, -0.4952638362857161 
4.4200000000030375, -0.49343431767408824 
4.430000000003014, -0.49186436333962524 
4.440000000002991, -0.4905279492308872 
4.450000000002968, -0.48939106261103416 
4.460000000002944, -0.48842432205358344 
4.470000000002921, -0.4876091361005492 
4.480000000002898, -0.4869400721668966 
4.490000000002874, -0.486425882186141 
4.500000000002851, -0.48609085047439915 
4.510000000002828, -0.48597745278145366 
4.520000000002804, -0.4861509617898158 
4.530000000002781, -0.4867065375285574 
4.540000000002758, -0.48777924897453157 
4.5500000000027345, -0.48955688329654085 
4.560000000002711, -0.492293247720196 
4.570000000002688, -0.49631381122187374 
4.580000000002665, -0.5019928020170998 
4.590000000002641, -0.5096613977995215 
4.600000000002618, -0.5194010269427594 
4.610000000002595, -0.5307501502666604 
4.620000000002571, -0.5425578834721451 
4.630000000002548, -0.553324461339073 
4.640000000002525, -0.5619324055474847 
4.6500000000025015, -0.5680953232003029 
4.660000000002478, -0.5721745138804601 
4.670000000002455, -0.5747420298620107 
4.6800000000024315, -0.5762985128235532 
4.690000000002408, -0.5771947621531446 
4.700000000002385, -0.5776502810958 
4.710000000002362, -0.5777910444246699 
4.720000000002338, -0.5776787785676557 
4.730000000002315, -0.5773277421121568 
4.740000000002292, -0.576711699672356 
4.750000000002268, -0.5757654105633458 
4.760000000002245, -0.5743872953473997 
4.770000000002222, -0.5724545278627813 
4.7800000000021985, -0.569864251544728 
4.790000000002175, -0.5666017693837435 
4.800000000002152, -0.5628005708939081 
4.810000000002129, -0.5587342140987543 
4.820000000002105, -0.5547242282276348 
4.830000000002082, -0.5510294470402164 
4.840000000002059, -0.5477918139038309 
4.850000000002035, -0.5450483918340373 
4.860000000002012, -0.542772677238442 
4.870000000001989, -0.5409126448044905 
4.880000000001965, -0.539414290138294 
4.890000000001942, -0.538232442330247 
