t, s[1].omega / s[0].omega 
0, -1.4000349871328086 
0.009999999999999995, -1.4029269507377833 
0.019999999999999934, -1.40476335470597 
0.029999999999999874, -1.4057794356527462 
0.04000000000000012, -1.4061905284982354 
0.050000000000000405, -1.4061688057605042 
0.06000000000000069, -1.405845658438415 
0.07000000000000098, -1.4053303037895701 
0.08000000000000126, -1.4047321843824077 
0.09000000000000155, -1.4041679205130884 
0.10000000000000184, -1.4037397530449953 
0.11000000000000212, -1.4035039048601303 
0.12000000000000241, -1.4034604142321279 
0.130000000000002, -1.4035612656112524 
0.1400000000000009, -1.4037211529217921 
0.1499999999999998, -1.4038360352837693 
0.1599999999999987, -1.4038046436381308 
0.1699999999999976, -1.4035345362041092 
0.1799999999999965, -1.4029317557124512 
0.1899999999999954, -1.4018884721645555 
0.1999999999999943, -1.4002800053181466 
0.2099999999999932, -1.3979750182153887 
0.2199999999999921, -1.3948606824674599 
0.229999999999991, -1.3908918051177772 
0.2399999999999899, -1.3861842152535617 
0.2499999999999888, -1.3811541853109053 
0.2599999999999877, -1.3765872398140282 
0.2699999999999866, -1.3733613256566686 
0.2799999999999855, -1.3718244322565882 
0.2899999999999844, -1.371539326861062 
0.2999999999999833, -1.3717732066858068 
0.3099999999999822, -1.3720163599453266 
0.3199999999999811, -1.3720481066995416 
0.32999999999998, -1.3717828459980281 
0.3399999999999789, -1.371134183889226 
0.3499999999999778, -1.3699256986176152 
0.35999999999997667, -1.367815790170411 
0.36999999999997557, -1.3642577490991823 
0.37999999999997447, -1.3587015291277766 
0.38999999999997337, -1.3515645802499092 
0.39999999999997227, -1.3460598472821212 
0.40999999999997117, -1.3478783571804551 
0.41999999999997006, -1.3592111684727397 
0.42999999999996896, -1.3749136279391432 
0.43999999999996786, -1.3884715506949241 
0.44999999999996676, -1.397482966911031 
0.45999999999996566, -1.4026461289113947 
0.46999999999996456, -1.4053372462368177 
0.47999999999996346, -1.4065986963454953 
0.48999999999996235, -1.4070463302443077 
0.49999999999996125, -1.4070093925395157 
0.5099999999999602, -1.4066657250005048 
0.519999999999959, -1.4061471472851954 
0.529999999999958, -1.4056314720377114 
0.5399999999999568, -1.4053937475679874 
0.5499999999999557, -1.4057254255282623 
0.5599999999999546, -1.4067272784085916 
0.5699999999999535, -1.4082158116830865 
0.5799999999999524, -1.4098722452845471 
0.5899999999999513, -1.4114284415475895 
0.5999999999999502, -1.4127265616175433 
0.6099999999999491, -1.413694361571323 
0.619999999999948, -1.4143086459029264 
0.6299999999999469, -1.414570901986705 
0.6399999999999458, -1.414494646584842 
0.6499999999999447, -1.4141001244401177 
0.6599999999999436, -1.4134134981310444 
0.6699999999999425, -1.412469991645976 
0.6799999999999414, -1.4113212475687988 
0.6899999999999403, -1.41004533605409 
0.6999999999999392, -1.408755799266613 
0.7099999999999381, -1.4076020274239025 
0.719999999999937, -1.4067382018289096 
0.7299999999999359, -1.4062437071126623 
0.7399999999999348, -1.406055519927832 
0.7499999999999337, -1.406003536911913 
0.7599999999999326, -1.4059073934719237 
0.7699999999999315, -1.4056213095003158 
0.7799999999999304, -1.4050045246197758 
0.7899999999999293, -1.4038560450442132 
0.7999999999999282, -1.4018350458638547 
0.8099999999999271, -1.3983746847083354 
0.819999999999926, -1.3926337376502063 
0.8299999999999249, -1.383639086750462 
0.8399999999999238, -1.3709183324915917 
0.8499999999999227, -1.3557552505860389 
0.8599999999999216, -1.3419453872369422 
0.8699999999999205, -1.3336581518339217 
0.8799999999999194, -1.3315836077652086 
0.8899999999999183, -1.3329743299161263 
0.8999999999999172, -1.3350579754430634 
0.9099999999999161, -1.3366314029699131 
0.919999999999915, -1.3375194697330428 
0.9299999999999139, -1.3378555401050622 
0.9399999999999128, -1.3377717263436912 
0.9499999999999117, -1.337325670852804 
0.9599999999999106, -1.3365049147722747 
0.9699999999999095, -1.335274839295622 
0.9799999999999084, -1.3337298931120876 
0.9899999999999073, -1.3324459574244358 
0.9999999999999062, -1.3328711559267097 
1.0099999999999052, -1.3368808256393394 
1.019999999999904, -1.3450113579712768 
1.029999999999903, -1.3554723489981764 
1.039999999999902, -1.3656286901641552 
1.0499999999999008, -1.373802610184026 
1.0599999999998997, -1.3795832693172885 
1.0699999999998986, -1.383287399304848 
1.0799999999998975, -1.3854494224761953 
1.0899999999998964, -1.386559727589395 
1.0999999999998953, -1.3869816987072772 
1.1099999999998942, -1.3869573598274454 
1.119999999999893, -1.386646880729041 
1.129999999999892, -1.3861765825724521 
1.1399999999998909, -1.3856795958257242 
1.1499999999998898, -1.3853042241060034 
1.1599999999998887, -1.3851708688845314 
1.1699999999998876, -1.385313595223638 
1.1799999999998865, -1.3856741478999175 
1.1899999999998854, -1.386146815080703 
1.1999999999998843, -1.3866196617454043 
1.2099999999998832, -1.3869936342676674 
1.219999999999882, -1.3871892685953646 
1.229999999999881, -1.387145217190778 
1.2399999999998799, -1.386811915956729 
1.2499999999998788, -1.3861464352249753 
1.2599999999998777, -1.3851115940073657 
1.2699999999998766, -1.3836789872762756 
1.2799999999998755, -1.3818363218996619 
1.2899999999998744, -1.3796029918140247 
1.2999999999998733, -1.3770602617001837 
1.3099999999998722, -1.3743962888210752 
1.319999999999871, -1.371933984851201 
1.32999999999987, -1.3700553572124596 
1.3399999999998689, -1.3689813692632495 
1.3499999999998678, -1.3686012220158734 
1.3599999999998666, -1.3685818757441166 
1.3699999999998655, -1.3686091493176897 
1.3799999999998644, -1.3684882539488397 
1.3899999999998633, -1.3680953671466096 
1.3999999999998622, -1.3672871364979509 
1.4099999999998611, -1.365806401731679 
1.41999999999986, -1.3631678134445993 
1.429999999999859, -1.358522337122206 
1.4399999999998578, -1.3506283730824487 
1.4499999999998567, -1.338389384496124 
1.4599999999998556, -1.32261876916507 
1.4699999999998545, -1.3080065563417915 
1.4799999999998534, -1.300826726455006 
1.4899999999998523, -1.302415451410535 
1.4999999999998512, -1.3083342700210276 
1.5099999999998501, -1.3140960041647045 
1.519999999999849, -1.3180578043937368 
1.529999999999848, -1.3203456372122817 
1.5399999999998468, -1.3214940824853774 
1.5499999999998457, -1.3219280008515293 
1.5599999999998446, -1.3218954490832864 
1.5699999999998435, -1.321516181043432 
1.5799999999998424, -1.3208441926501042 
1.5899999999998413, -1.3199521532832015 
1.5999999999998402, -1.3190794948100524 
1.6099999999998391, -1.3188211214808876 
1.619999999999838, -1.3200955453212617 
1.629999999999837, -1.323562473603134 
1.6399999999998358, -1.328927566781673 
1.6499999999998347, -1.335090344278711 
1.6599999999998336, -1.340929254576728 
1.6699999999998325, -1.3457835557097693 
1.6799999999998314, -1.3494433693979841 
1.6899999999998303, -1.3519703434659531 
1.6999999999998292, -1.3535478391972808 
1.709999999999828, -1.3543893407667589 
1.719999999999827, -1.3546889070285597 
1.729999999999826, -1.3546020173899147 
1.7399999999998248, -1.354249620954945 
1.7499999999998237, -1.3537370856882294 
1.7599999999998226, -1.3531749508499782 
1.7699999999998215, -1.3526818808475085 
1.7799999999998204, -1.3523580260793566 
1.7899999999998193, -1.3522497019172801 
1.7999999999998182, -1.3523403610821594 
1.809999999999817, -1.352567167454018 
1.819999999999816, -1.3528409924534173 
1.8299999999998149, -1.3530649219718738 
1.8399999999998138, -1.3531500582418365 
1.8499999999998127, -1.3530207691017646 
1.8599999999998116, -1.3526099499356783 
1.8699999999998105, -1.3518534776072166 
1.8799999999998094, -1.3506902255137647 
1.8899999999998083, -1.3490678044814304 
1.8999999999998072, -1.346952531101986 
1.909999999999806, -1.3443459886913496 
1.919999999999805, -1.3413157269797928 
1.9299999999998039, -1.338045000382837 
1.9399999999998028, -1.3348781819074358 
1.9499999999998017, -1.3322771377407008 
1.9599999999998006, -1.3306042589337608 
1.9699999999997995, -1.329866975230574 
1.9799999999997984, -1.3297343508291917 
1.9899999999997973, -1.3298091848941167 
1.9999999999997962, -1.3298219569459153 
2.0099999999998173, -1.3296277104119048 
2.0199999999998384, -1.329118718143215 
2.0299999999998595, -1.3281353333908088 
2.0399999999998806, -1.3263755799568295 
2.0499999999999017, -1.323281619089667 
2.059999999999923, -1.317924264856631 
2.069999999999944, -1.3090700581834613 
2.079999999999965, -1.2959362459480932 
2.089999999999986, -1.2800438654417183 
2.100000000000007, -1.2664694008169735 
2.1100000000000283, -1.2606133358254366 
2.1200000000000494, -1.262684550448579 
2.1300000000000705, -1.2683119691771874 
2.1400000000000916, -1.2736293959578802 
2.1500000000001127, -1.2772914995457367 
2.160000000000134, -1.2794294944647437 
2.170000000000155, -1.280515618635946 
2.180000000000176, -1.2809285209235783 
2.190000000000197, -1.2808912281120575 
2.2000000000002182, -1.2805084883296836 
2.2100000000002393, -1.2798168256690585 
2.2200000000002604, -1.2788531579918458 
2.2300000000002815, -1.2777887619008383 
2.2400000000003026, -1.2771532549578333 
2.2500000000003237, -1.2779700635921825 
2.260000000000345, -1.2813431416951564 
2.270000000000366, -1.2874914572772866 
2.280000000000387, -1.2953448768069369 
2.290000000000408, -1.3033068201539728 
2.3000000000004293, -1.3101849159965853 
2.3100000000004504, -1.3154718517370196 
2.3200000000004715, -1.319168119771331 
2.3300000000004926, -1.321527803893048 
2.3400000000005137, -1.3228754032873797 
2.3500000000005348, -1.323505046663087 
2.360000000000556, -1.3236426887287263 
2.370000000000577, -1.3234491532718267 
2.380000000000598, -1.3230452912080375 
2.390000000000619, -1.322544891147285 
2.4000000000006403, -1.3220779384968084 
2.4100000000006614, -1.3217803906655154 
2.4200000000006825, -1.3217459878179016 
2.4300000000007036, -1.3219834347066977 
2.4400000000007247, -1.3224239640694044 
2.450000000000746, -1.322962493144623 
2.460000000000767, -1.3234918548752028 
2.470000000000788, -1.3239198702843813 
2.480000000000809, -1.3241752903235169 
2.49000000000083, -1.324206283170873 
2.5000000000008513, -1.3239755547089616 
2.5100000000008724, -1.3234565548443638 
2.5200000000008935, -1.3226323326727132 
2.5300000000009146, -1.3214966321743793 
2.5400000000009357, -1.3200575507280035 
2.550000000000957, -1.3183455060482754 
2.560000000000978, -1.3164272179381356 
2.570000000000999, -1.3144244574507469 
2.58000000000102, -1.3125263628587305 
2.5900000000010412, -1.3109641754116026 
2.6000000000010624, -1.3099174559415414 
2.6100000000010835, -1.3093988061145656 
2.6200000000011046, -1.3092424264284197 
2.6300000000011257, -1.3092174733171322 
2.6400000000011468, -1.3091343782524405 
2.650000000001168, -1.3088598298342 
2.660000000001189, -1.3082702599592455 
2.67000000000121, -1.3071880257801023 
2.680000000001231, -1.3053115314964485 
2.6900000000012523, -1.3021408938815775 
2.7000000000012734, -1.296932189562068 
2.7100000000012945, -1.288791898397418 
2.7200000000013156, -1.2771148575549982 
2.7300000000013367, -1.262474258328146 
2.740000000001358, -1.2474127036123206 
2.750000000001379, -1.2356833229194866 
2.7600000000014, -1.2295882349339533 
2.770000000001421, -1.2283169302113381 
2.780000000001442, -1.229415275752733 
2.7900000000014633, -1.2309640548931484 
2.8000000000014844, -1.232154222901823 
2.8100000000015055, -1.2328380018377172 
2.8200000000015266, -1.2330810259936462 
2.8300000000015477, -1.2329569598411543 
2.840000000001569, -1.2324828817463098 
2.85000000000159, -1.2316013529880263 
2.860000000001611, -1.2301780008663594 
2.870000000001632, -1.2280416021348615 
2.8800000000016532, -1.2251748454318023 
2.8900000000016743, -1.2222315639118713 
2.9000000000016954, -1.221269511039886 
2.9100000000017165, -1.225518829577061 
2.9200000000017377, -1.236796206019198 
2.9300000000017588, -1.2528409281754445 
2.94000000000178, -1.2688583116849959 
2.950000000001801, -1.2814002343477422 
2.960000000001822, -1.2897310226117633 
2.970000000001843, -1.2946900343561198 
2.9800000000018643, -1.297410245744916 
2.9900000000018854, -1.298768118610035 
3.0000000000019065, -1.2993159123424327 
3.0100000000019276, -1.2993685028716238 
3.0200000000019487, -1.2991010939115166 
3.03000000000197, -1.2986300836833562 
3.040000000001991, -1.2980872356895383 
3.050000000002012, -1.2976854228285484 
3.060000000002033, -1.2977240687621516 
3.070000000002054, -1.2984653227173322 
3.0800000000020753, -1.299948622006943 
3.0900000000020964, -1.301951881080298 
3.1000000000021175, -1.3041423901544644 
3.1100000000021386, -1.3062369934883797 
3.1200000000021597, -1.3080576656322391 
3.130000000002181, -1.309514973022376 
3.140000000002202, -1.3105765319693559 
3.150000000002223, -1.3112441778282902 
3.160000000002244, -1.3115412952143888 
3.1700000000022652, -1.3115056404667593 
3.1800000000022863, -1.3111844011042433 
3.1900000000023074, -1.3106318346938546 
3.2000000000023285, -1.309911159634604 
3.2100000000023496, -1.3090989528698835 
3.2200000000023707, -1.3082850986804049 
3.230000000002392, -1.3075624577203697 
3.240000000002413, -1.3070093406419252 
3.250000000002434, -1.3066704928462982 
3.260000000002455, -1.3065384162626792 
3.2700000000024763, -1.3065467054657973 
3.2800000000024974, -1.3065902942406526 
3.2900000000025185, -1.3065586491827295 
3.3000000000025396, -1.3063522769872755 
3.3100000000025607, -1.3058758007476379 
3.3200000000025818, -1.3050225524021886 
3.330000000002603, -1.3036661917325543 
3.340000000002624, -1.3016673552211908 
3.350000000002645, -1.2988967231917017 
3.360000000002666, -1.2952724677385261 
3.3700000000026873, -1.2908133504945483 
3.3800000000027084, -1.2857140551022037 
3.3900000000027295, -1.2804292039173635 
3.4000000000027506, -1.2756744884790163 
3.4100000000027717, -1.2721873728382782 
3.420000000002793, -1.2702869993728707 
3.430000000002814, -1.2696722538281784 
3.440000000002835, -1.2697275360507252 
3.450000000002856, -1.2699417600773368 
3.460000000002877, -1.270042743507344 
3.4700000000028983, -1.2699136168984189 
3.4800000000029194, -1.2694776716093397 
3.4900000000029405, -1.2686130748884268 
3.5000000000029616, -1.267078712504066 
3.5100000000029827, -1.2644242293738595 
3.520000000003004, -1.2598937702167061 
3.530000000003025, -1.2524518140057348 
3.540000000003046, -1.2413066842466165 
3.550000000003067, -1.2273433085072116 
3.5600000000030882, -1.2145107552214343 
3.5700000000031094, -1.20802527340046 
3.5800000000031305, -1.2094645996494868 
3.5900000000031516, -1.2154938166777955 
3.6000000000031727, -1.2219238334589346 
3.6100000000031938, -1.2267286133715982 
3.620000000003215, -1.2297291742783476 
3.630000000003236, -1.2313918418856926 
3.640000000003257, -1.2321846560289642 
3.650000000003278, -1.2324175224353175 
3.6600000000032993, -1.2322570691274004 
3.6700000000033204, -1.2317715326857153 
3.6800000000033415, -1.2309760800076672 
3.6900000000033626, -1.2299011983319288 
3.7000000000033837, -1.22873589545484 
3.710000000003405, -1.2280714803294754 
3.720000000003426, -1.229063472003141 
3.730000000003447, -1.2330223701655094 
3.740000000003468, -1.2403429490150228 
3.750000000003489, -1.2498921411630777 
3.7600000000035103, -1.2597329212036363 
3.7700000000035314, -1.268286844532496 
3.7800000000035525, -1.274833626236628 
3.7900000000035736, -1.2793611411906443 
3.8000000000035947, -1.2822222811515243 
3.810000000003616, -1.2838605982859619 
3.820000000003637, -1.2846625363425757 
3.830000000003658, -1.2849106084819064 
3.840000000003679, -1.2847938877826655 
3.8500000000037002, -1.2844427981558526 
3.8600000000037213, -1.2839714302218792 
3.8700000000037424, -1.2835149180765817 
3.8800000000037635, -1.2832377056320334 
3.8900000000037847, -1.283287709377586 
3.9000000000038058, -1.2837210359351177 
3.910000000003827, -1.28447356853612 
3.920000000003848, -1.2854072126435754 
3.930000000003869, -1.286375454845536 
3.94000000000389, -1.28725976354096 
3.9500000000039113, -1.2879773125929268 
3.9600000000039324, -1.288475949132917 
3.9700000000039535, -1.2887260322486394 
3.9800000000039746, -1.2887134486906073 
3.9900000000039957, -1.28843538481224 
4.000000000004016, -1.2878987769370507 
4.010000000003993, -1.2871209610280847 
4.02000000000397, -1.2861324685754298 
4.030000000003946, -1.2849819018136648 
4.040000000003923, -1.2837413173307084 
4.0500000000039, -1.2825084903737332 
4.0600000000038765, -1.2814010538427834 
4.070000000003853, -1.2805346941598914 
4.08000000000383, -1.279979891124307 
4.090000000003807, -1.2797182063323507 
4.100000000003783, -1.2796433747053773 
4.11000000000376, -1.2796125310006317 
4.120000000003737, -1.2794949680735066 
4.130000000003713, -1.2791801167827208 
4.14000000000369, -1.2785539802604124 
4.150000000003667, -1.277467813995576 
4.1600000000036434, -1.2757152154580969 
4.17000000000362, -1.2730307409541148 
4.180000000003597, -1.269125825257851 
4.1900000000035735, -1.2637758535240382 
4.20000000000355, -1.2569622655977626 
4.210000000003527, -1.2490531792382833 
4.220000000003504, -1.2409411779570803 
4.23000000000348, -1.233923971414937 
4.240000000003457, -1.2291279474571182 
4.250000000003434, -1.226799185292237 
4.26000000000341, -1.2262493938277759 
4.270000000003387, -1.2265168996757265 
4.280000000003364, -1.226931151899194 
4.2900000000033405, -1.2271883904600727 
4.300000000003317, -1.2271900104275342 
4.310000000003294, -1.2268939998721724 
4.320000000003271, -1.2262278750915572 
4.330000000003247, -1.2250294095963978 
4.340000000003224, -1.2229823713217118 
4.350000000003201, -1.2195437146434673 
4.360000000003177, -1.2139345744255858 
4.370000000003154, -1.2054398527349472 
4.380000000003131, -1.1943944174350978 
4.390000000003107, -1.1835492377221235 
4.400000000003084, -1.1775892348818513 
4.410000000003061, -1.1792529650458938 
4.4200000000030375, -1.1864581365326032 
4.430000000003014, -1.1948228354765458 
4.440000000002991, -1.201500902103048 
4.450000000002968, -1.205885460880293 
4.460000000002944, -1.2084431199350403 
4.470000000002921, -1.2097902068962068 
4.480000000002898, -1.2103783409774238 
4.490000000002874, -1.21047451792573 
4.500000000002851, -1.2102121182674694 
4.510000000002828, -1.2096409830869146 
4.520000000002804, -1.2087766109782205 
4.530000000002781, -1.2076818765721051 
4.540000000002758, -1.206630053401496 
4.5500000000027345, -1.2063376213975223 
4.560000000002711, -1.2080163052523782 
4.570000000002688, -1.2128065573982771 
4.580000000002665, -1.2207691387005808 
4.590000000002641, -1.230572603681934 
4.600000000002618, -1.2403396291045419 
4.610000000002595, -1.2486593346834292 
4.620000000002571, -1.2549429555151037 
4.630000000002548, -1.2592442290025603 
4.640000000002525, -1.261936525464062 
4.6500000000025015, -1.2634601946486028 
4.660000000002478, -1.264189238246661 
4.670000000002455, -1.2643929119093564 
4.6800000000024315, -1.2642500775504382 
4.690000000002408, -1.2638851311278416 
4.700000000002385, -1.2634105258965895 
4.710000000002362, -1.2629643784065823 
4.720000000002338, -1.2627186734894733 
4.730000000002315, -1.262831306270892 
4.740000000002292, -1.2633651238249066 
4.750000000002268, -1.2642535877572356 
4.760000000002245, -1.2653474179973718 
4.770000000002222, -1.2664866626764086 
4.7800000000021985, -1.2675427540606807 
4.790000000002175, -1.2684274978456258 
4.800000000002152, -1.2690868269056632 
4.810000000002129, -1.2694913143042796 
4.820000000002105, -1.2696284516762515 
4.830000000002082, -1.2694981381640265 
4.840000000002059, -1.2691109367985849 
4.850000000002035, -1.2684881651549536 
4.860000000002012, -1.2676635519332167 
4.870000000001989, -1.266686573722778 
4.880000000001965, -1.2656260265777077 
4.890000000001942, -1.2645699633302412 
4.900000000001919, -1.2636182405194178 
4.9100000000018955, -1.2628654420620657 
4.920000000001872, -1.262372317192132 
4.930000000001849, -1.2621341616161277 
