t, s[1].omega / s[0].omega 
0, -0.8800168415420538 
0.009999999999999995, -0.8815937093830557 
0.019999999999999934, -0.8829014816686037 
0.029999999999999874, -0.8838815495843001 
0.04000000000000012, -0.8845187447481481 
0.050000000000000405, -0.8848377792938509 
0.06000000000000069, -0.8848870991237631 
0.07000000000000098, -0.8847220902440723 
0.08000000000000126, -0.8843965760406238 
0.09000000000000155, -0.8839649577882824 
0.10000000000000184, -0.8834936505249645 
0.11000000000000212, -0.8830790565821559 
0.12000000000000241, -0.8828666613354359 
0.130000000000002, -0.8830606223063866 
0.1400000000000009, -0.8839096068666599 
0.1499999999999998, -0.8856609249477877 
0.1599999999999987, -0.8884933640039956 
0.1699999999999976, -0.8924556231552921 
0.1799999999999965, -0.8974339875169596 
0.1899999999999954, -0.9031538088730832 
0.1999999999999943, -0.9092080758888447 
0.2099999999999932, -0.9151138256029068 
0.2199999999999921, -0.9204037221673447 
0.229999999999991, -0.9247378518848393 
0.2399999999999899, -0.927981769202286 
0.2499999999999888, -0.9301999452499384 
0.2599999999999877, -0.9315759553140911 
0.2699999999999866, -0.9323201242682213 
0.2799999999999855, -0.9326111081022701 
0.2899999999999844, -0.9325770429154099 
0.2999999999999833, -0.932301017004457 
0.3099999999999822, -0.9318377391392246 
0.3199999999999811, -0.9312379124207972 
0.32999999999998, -0.9305846357551809 
0.3399999999999789, -0.930048076096209 
0.3499999999999778, -0.9299544772386914 
0.35999999999997667, -0.9308362793578503 
0.36999999999997557, -0.9333926605035632 
0.37999999999997447, -0.9382935919068768 
0.38999999999997337, -0.9458556173066379 
0.39999999999997227, -0.9557558780626 
0.40999999999997117, -0.9669914359576532 
0.41999999999997006, -0.9781674910290226 
0.42999999999996896, -0.9879915209577007 
0.43999999999996786, -0.9956979930006689 
0.44999999999996676, -1.0011652703312155 
0.45999999999996566, -1.004724298934764 
0.46999999999996456, -1.006867100348737 
0.47999999999996346, -1.0080423918526642 
0.48999999999996235, -1.008578918976189 
0.49999999999996125, -1.0086877736013753 
0.5099999999999602, -1.0084921176013462 
0.519999999999959, -1.00805982773896 
0.529999999999958, -1.0074364907264444 
0.5399999999999568, -1.0066885226114894 
0.5499999999999557, -1.0059707861642204 
0.5599999999999546, -1.005621827357261 
0.5699999999999535, -1.006244652062045 
0.5799999999999524, -1.008660274282634 
0.5899999999999513, -1.0136219185038513 
0.5999999999999502, -1.0213651406695674 
0.6099999999999491, -1.0313111091878986 
0.619999999999948, -1.0421964862037616 
0.6299999999999469, -1.0525639531864424 
0.6399999999999458, -1.0612929203668373 
0.6499999999999447, -1.0678823135445876 
0.6599999999999436, -1.0724043839043316 
0.6699999999999425, -1.0752561476283926 
0.6799999999999414, -1.0769054120086872 
0.6899999999999403, -1.0777442519609095 
0.6999999999999392, -1.0780479389827762 
0.7099999999999381, -1.0779901532579317 
0.719999999999937, -1.0776761430221424 
0.7299999999999359, -1.0771799846525516 
0.7399999999999348, -1.076588452147709 
0.7499999999999337, -1.0760570182975358 
0.7599999999999326, -1.0758665889002568 
0.7699999999999315, -1.0764310917888746 
0.7799999999999304, -1.078187830445707 
0.7899999999999293, -1.08138332402165 
0.7999999999999282, -1.0859070065124696 
0.8099999999999271, -1.0913168378194218 
0.819999999999926, -1.0970173169820554 
0.8299999999999249, -1.1024435592914854 
0.8399999999999238, -1.1071708654303503 
0.8499999999999227, -1.1109571276436037 
0.8599999999999216, -1.1137416385388232 
0.8699999999999205, -1.1156079916091521 
0.8799999999999194, -1.1167212040475973 
0.8899999999999183, -1.1172638253864415 
0.8999999999999172, -1.1173944421179889 
0.9099999999999161, -1.1172349031499136 
0.919999999999915, -1.1168795138697847 
0.9299999999999139, -1.1164174264438957 
0.9399999999999128, -1.1159601013251639 
0.9499999999999117, -1.115659838531304 
0.9599999999999106, -1.1156966104899653 
0.9699999999999095, -1.116221355720054 
0.9799999999999084, -1.117286263664251 
0.9899999999999073, -1.1188196136190984 
0.9999999999999062, -1.1206637704646436 
1.0099999999999052, -1.122637623262818 
1.019999999999904, -1.1245807074871448 
1.029999999999903, -1.1263688369810332 
1.039999999999902, -1.1279126435955287 
1.0499999999999008, -1.1291521624746332 
1.0599999999998997, -1.13005432076614 
1.0699999999998986, -1.1306132255894137 
1.0799999999998975, -1.1308489737793603 
1.0899999999998964, -1.1308019726684218 
1.0999999999998953, -1.130524889565683 
1.1099999999998942, -1.130077549125378 
1.119999999999893, -1.1295279179809818 
1.129999999999892, -1.1289564134473185 
1.1399999999998909, -1.1284551631638968 
1.1499999999998898, -1.128114207501885 
1.1599999999998887, -1.1279972251087944 
1.1699999999998876, -1.128121918655486 
1.1799999999998865, -1.1284579713259952 
1.1899999999998854, -1.1289405978091211 
1.1999999999998843, -1.129489517213589 
1.2099999999998832, -1.130025742658627 
1.219999999999882, -1.130482520624279 
1.229999999999881, -1.130809578171483 
1.2399999999998799, -1.130972545845092 
1.2499999999998788, -1.1309504001397115 
1.2599999999998777, -1.1307328513437813 
1.2699999999998766, -1.1303186352762409 
1.2799999999998755, -1.1297152600792093 
1.2899999999998744, -1.1289402887381654 
1.2999999999998733, -1.1280237103685118 
1.3099999999998722, -1.1270106049769577 
1.319999999999871, -1.1259625646909144 
1.32999999999987, -1.124955216816687 
1.3399999999998689, -1.124069439487434 
1.3499999999998678, -1.1233762750707412 
1.3599999999998666, -1.122918409204725 
1.3699999999998655, -1.122694306379979 
1.3799999999998644, -1.1226546066803222 
1.3899999999998633, -1.122716469344861 
1.3999999999998622, -1.1227876625271185 
1.4099999999998611, -1.1227845544860349 
1.41999999999986, -1.1226368680209429 
1.429999999999859, -1.1222844857894434 
1.4399999999998578, -1.121675122736325 
1.4499999999998567, -1.1207674292895111 
1.4599999999998556, -1.1195379612261784 
1.4699999999998545, -1.1179870075915024 
1.4799999999998534, -1.1161400322039206 
1.4899999999998523, -1.1140464559982404 
1.4999999999998512, -1.1117800885346072 
1.5099999999998501, -1.1094429417455554 
1.519999999999849, -1.1071685786688066 
1.529999999999848, -1.1051156259502677 
1.5399999999998468, -1.1034402546402515 
1.5499999999998457, -1.1022464999542119 
1.5599999999998446, -1.1015388102376549 
1.5699999999998435, -1.1012166468212117 
1.5799999999998424, -1.1011212106037571 
1.5899999999998413, -1.1010958433157838 
1.5999999999998402, -1.1010176231936275 
1.6099999999998391, -1.100793601591901 
1.619999999999838, -1.1003396355136235 
1.629999999999837, -1.099559132500679 
1.6399999999998358, -1.0983317587844064 
1.6499999999998347, -1.0965192190793955 
1.6599999999998336, -1.09399262241822 
1.6699999999998325, -1.0906765493566384 
1.6799999999998314, -1.0865921448543308 
1.6899999999998303, -1.0818805332671402 
1.6999999999998292, -1.076802697839367 
1.709999999999828, -1.0717219960211104 
1.719999999999827, -1.0670640447746902 
1.729999999999826, -1.063233889225377 
1.7399999999998248, -1.0604915982690875 
1.7499999999998237, -1.0588500330236545 
1.7599999999998226, -1.0580845279566293 
1.7699999999998215, -1.0578591680224618 
1.7799999999998204, -1.0578677581516043 
1.7899999999998193, -1.0578996422154927 
1.7999999999998182, -1.0578294744424794 
1.809999999999817, -1.0575753634169522 
1.819999999999816, -1.0570569632272808 
1.8299999999998149, -1.0561620541691483 
1.8399999999998138, -1.0547217539789213 
1.8499999999998127, -1.0524999484932587 
1.8599999999998116, -1.0492140368203835 
1.8699999999998105, -1.044607711841634 
1.8799999999998094, -1.0385731426032756 
1.8899999999998083, -1.0312726133834058 
1.8999999999998072, -1.0231858433095824 
1.909999999999806, -1.0150441488973916 
1.919999999999805, -1.007665867169765 
1.9299999999998039, -1.0017352349583888 
1.9399999999998028, -0.9975959110795178 
1.9499999999998017, -0.9951656423088305 
1.9599999999998006, -0.9940379579596887 
1.9699999999997995, -0.9937018132460288 
1.9799999999997984, -0.9937279140510205 
1.9899999999997973, -0.9938371719699894 
1.9999999999997962, -0.9938764674138371 
2.0099999999998173, -0.9937632524635134 
2.0199999999998384, -0.9934359502047316 
2.0299999999998595, -0.9928179551886928 
2.0399999999998806, -0.9917914414682063 
2.0499999999999017, -0.9901796313721363 
2.059999999999923, -0.9877462396654343 
2.069999999999944, -0.9842314891113025 
2.079999999999965, -0.9794399686355858 
2.089999999999986, -0.973360214397298 
2.100000000000007, -0.966248917416219 
2.1100000000000283, -0.958615711763137 
2.1200000000000494, -0.9511112761092534 
2.1300000000000705, -0.9443753220911024 
2.1400000000000916, -0.938895123871666 
2.1500000000001127, -0.9349044331557528 
2.160000000000134, -0.9323526697548161 
2.170000000000155, -0.93096469290628 
2.180000000000176, -0.9303658130745347 
2.190000000000197, -0.930204876195352 
2.2000000000002182, -0.9302209523048657 
2.2100000000002393, -0.9302486529192618 
2.2200000000002604, -0.9301898664434441 
2.2300000000002815, -0.929979151741658 
2.2400000000003026, -0.9295557317120743 
2.2500000000003237, -0.9288450901746543 
2.260000000000345, -0.9277514952607682 
2.270000000000366, -0.9261655227776322 
2.280000000000387, -0.9239910294183709 
2.290000000000408, -0.9211869322717545 
2.3000000000004293, -0.9178028475737128 
2.3100000000004504, -0.913983229185531 
2.3200000000004715, -0.909936075136206 
2.3300000000004926, -0.9058887716091746 
2.3400000000005137, -0.9020550130379894 
2.3500000000005348, -0.8986175636161023 
2.360000000000556, -0.8957172500614948 
2.370000000000577, -0.8934396785665321 
2.380000000000598, -0.8918013982633639 
2.390000000000619, -0.8907458232186345 
2.4000000000006403, -0.8901577712853307 
2.4100000000006614, -0.889893820683976 
2.4200000000006825, -0.8898145164283381 
2.4300000000007036, -0.8898046696467313 
2.4400000000007247, -0.8897777965573967 
2.450000000000746, -0.8896698540193517 
2.460000000000767, -0.8894301761517426 
2.470000000000788, -0.8890157540188287 
2.480000000000809, -0.8883919575486127 
2.49000000000083, -0.8875391847862849 
2.5000000000008513, -0.886460724161851 
2.5100000000008724, -0.8851849721552772 
2.5200000000008935, -0.8837587309306049 
2.5300000000009146, -0.8822356241376867 
2.5400000000009357, -0.8806671401112492 
2.550000000000957, -0.8791002920200144 
2.560000000000978, -0.8775802563429702 
2.570000000000999, -0.8761537736586954 
2.58000000000102, -0.8748698542852484 
2.5900000000010412, -0.8737763295526261 
2.6000000000010624, -0.8729127656613548 
2.6100000000010835, -0.8723019569152969 
2.6200000000011046, -0.8719433249460744 
2.6300000000011257, -0.87181137400017 
2.6400000000011468, -0.8718604214781053 
2.650000000001168, -0.8720338549746165 
2.660000000001189, -0.8722741468657051 
2.67000000000121, -0.8725303184657109 
2.680000000001231, -0.8727618066174658 
2.6900000000012523, -0.8729395802912343 
2.7000000000012734, -0.8730455428585477 
2.7100000000012945, -0.8730703710577915 
2.7200000000013156, -0.8730097308985545 
2.7300000000013367, -0.8728600822971607 
2.740000000001358, -0.8726165787205551 
2.750000000001379, -0.8722747262292996 
2.7600000000014, -0.8718347490430867 
2.770000000001421, -0.8713058468989441 
2.780000000001442, -0.870708522214481 
2.7900000000014633, -0.8700753317509365 
2.8000000000014844, -0.8694511108535069 
2.8100000000015055, -0.8688924243290581 
2.8200000000015266, -0.8684644206131266 
2.8300000000015477, -0.8682333597958337 
2.840000000001569, -0.8682554495772837 
2.85000000000159, -0.8685657062202008 
2.860000000001611, -0.8691715721926754 
2.870000000001632, -0.8700537293899743 
2.8800000000016532, -0.8711727519877627 
2.8900000000016743, -0.872477733968329 
2.9000000000016954, -0.8739128964298197 
2.9100000000017165, -0.875419796332535 
2.9200000000017377, -0.8769352825438 
2.9300000000017588, -0.8783883090721558 
2.94000000000178, -0.8797010212649763 
2.950000000001801, -0.8807984909908326 
2.960000000001822, -0.8816251448334201 
2.970000000001843, -0.8821584118265532 
2.9800000000018643, -0.882410314292881 
2.9900000000018854, -0.882417148273946 
3.0000000000019065, -0.8822259369984085 
3.0100000000019276, -0.8818863413580089 
3.0200000000019487, -0.881451594552986 
3.03000000000197, -0.8809878140197892 
3.040000000001991, -0.880588654673611 
3.050000000002012, -0.8803894087423074 
3.060000000002033, -0.8805707790974487 
3.070000000002054, -0.881341648636092 
3.0800000000020753, -0.8828980973718916 
3.0900000000020964, -0.8853712126861742 
3.1000000000021175, -0.8887856305464199 
3.1100000000021386, -0.8930430747338477 
3.1200000000021597, -0.8979284178192325 
3.130000000002181, -0.9031290007158903 
3.140000000002202, -0.9082675156463592 
3.150000000002223, -0.9129596221125859 
3.160000000002244, -0.9168965036920176 
3.1700000000022652, -0.9199192385164963 
3.1800000000022863, -0.922037184247214 
3.1900000000023074, -0.9233796733255957 
3.2000000000023285, -0.9241203352082108 
3.2100000000023496, -0.924419118598561 
3.2200000000023707, -0.9243973063653339 
3.230000000002392, -0.9241373394014968 
3.240000000002413, -0.9236960019132721 
3.250000000002434, -0.9231264155043728 
3.260000000002455, -0.9225112795255148 
3.2700000000024763, -0.9220116264432588 
3.2800000000024974, -0.9219265122662297 
3.2900000000025185, -0.9227346512981376 
3.3000000000025396, -0.9250595291794292 
3.3100000000025607, -0.9295048745670467 
3.3200000000025818, -0.9363839986148742 
3.330000000002603, -0.9454732784374233 
3.340000000002624, -0.9559514938776269 
3.350000000002645, -0.9666015811261432 
3.360000000002666, -0.976207694305476 
3.3700000000026873, -0.983951967108918 
3.3800000000027084, -0.9895916291959578 
3.3900000000027295, -0.99335000221293 
3.4000000000027506, -0.9956626166804196 
3.4100000000027717, -0.9969643162589608 
3.420000000002793, -0.997590572846045 
3.430000000002814, -0.9977644606284486 
3.440000000002835, -0.9976197015784042 
3.450000000002856, -0.9972309318643084 
3.460000000002877, -0.9966445577426397 
3.4700000000028983, -0.9959172240040843 
3.4800000000029194, -0.9951753944998977 
3.4900000000029405, -0.9947038925154091 
3.5000000000029616, -0.9950372103434166 
3.5100000000029827, -0.9969607907385608 
3.520000000003004, -1.0012973033118513 
3.530000000003025, -1.0084805654514784 
3.540000000003046, -1.018171652486777 
3.550000000003067, -1.0292432704188852 
3.5600000000030882, -1.0401918926330465 
3.5700000000031094, -1.0497131685456331 
3.5800000000031305, -1.0570990197692702 
3.5900000000031516, -1.0622848205648805 
3.6000000000031727, -1.0656242438490628 
3.6100000000031938, -1.067604918139292 
3.620000000003215, -1.0686613762363126 
3.630000000003236, -1.0691089166742322 
3.640000000003257, -1.0691498902804617 
3.650000000003278, -1.068905520066858 
3.6600000000032993, -1.0684524226480188 
3.6700000000033204, -1.0678633546577678 
3.6800000000033415, -1.0672600766887783 
3.6900000000033626, -1.0668781781274526 
3.7000000000033837, -1.0671105890839925 
3.710000000003405, -1.0684549345887289 
3.720000000003426, -1.0713179026323079 
3.730000000003447, -1.0757744551491324 
3.740000000003468, -1.0814795915044746 
3.750000000003489, -1.087801518724081 
3.7600000000035103, -1.094049085123283 
3.7700000000035314, -1.0996506149724397 
3.7800000000035525, -1.104244458706848 
3.7900000000035736, -1.1076986808589209 
3.8000000000035947, -1.1100749427623975 
3.810000000003616, -1.1115528301952304 
3.820000000003637, -1.1123470158708284 
3.830000000003658, -1.1126493986019765 
3.840000000003679, -1.1126067841744407 
3.8500000000037002, -1.1123260533962596 
3.8600000000037213, -1.111895443687162 
3.8700000000037424, -1.1114143477728446 
3.8800000000037635, -1.1110224326122005 
3.8900000000037847, -1.1109077690632259 
3.9000000000038058, -1.1112684726615973 
3.910000000003827, -1.11223230453533 
3.920000000003848, -1.113791022395143 
3.930000000003869, -1.1158059129438338 
3.94000000000389, -1.118072433883526 
3.9500000000039113, -1.1203871850891243 
3.9600000000039324, -1.1225829949379609 
3.9700000000039535, -1.1245357250450632 
3.9800000000039746, -1.1261599151826134 
3.9900000000039957, -1.127405299869371 
4.000000000004016, -1.1282565412726422 
4.010000000003993, -1.128731678123191 
4.02000000000397, -1.128874880542663 
4.030000000003946, -1.1287450511251105 
4.040000000003923, -1.1284066878501342 
4.0500000000039, -1.1279282335546734 
4.0600000000038765, -1.1273873840933228 
4.070000000003853, -1.1268761531321698 
4.08000000000383, -1.126494826624793 
4.090000000003807, -1.126329696929891 
4.100000000003783, -1.1264253150274022 
4.11000000000376, -1.1267711461345675 
4.120000000003737, -1.127310452335797 
4.130000000003713, -1.127961525073649 
4.14000000000369, -1.1286384637699602 
4.150000000003667, -1.129265415880274 
4.1600000000036434, -1.1297832371771213 
4.17000000000362, -1.1301500942270328 
4.180000000003597, -1.1303388626200392 
4.1900000000035735, -1.1303339569867528 
4.20000000000355, -1.130129209208881 
4.210000000003527, -1.1297274461621016 
4.220000000003504, -1.1291415406677876 
4.23000000000348, -1.1283962291192422 
4.240000000003457, -1.1275301832759286 
4.250000000003434, -1.1265976893054679 
4.26000000000341, -1.1256679110287777 
4.270000000003387, -1.1248187147540583 
4.280000000003364, -1.124123977457024 
4.2900000000033405, -1.123637073621196 
4.300000000003317, -1.123375453164917 
4.310000000003294, -1.1233125266063646 
4.320000000003271, -1.1233832130877694 
4.330000000003247, -1.1235025099424747 
4.340000000003224, -1.1235859415005045 
4.350000000003201, -1.1235606983099766 
4.360000000003177, -1.123366683725649 
4.370000000003154, -1.1229543197775618 
4.380000000003131, -1.1222850733579415 
4.390000000003107, -1.121335393456873 
4.400000000003084, -1.1201007049354368 
4.410000000003061, -1.1185964545180866 
4.4200000000030375, -1.1168569303807891 
4.430000000003014, -1.114935204998644 
4.440000000002991, -1.1129062354876922 
4.450000000002968, -1.1108712657911306 
4.460000000002944, -1.1089576410310749 
4.470000000002921, -1.1073053736808376 
4.480000000002898, -1.1060339630650053 
4.490000000002874, -1.1051971450955809 
4.500000000002851, -1.1047545541608481 
4.510000000002828, -1.104587739840773 
4.520000000002804, -1.1045501816709782 
4.530000000002781, -1.1045113449428627 
4.540000000002758, -1.104369897534331 
4.5500000000027345, -1.1040420383553573 
4.560000000002711, -1.1034424113849153 
4.570000000002688, -1.1024707736079056 
4.580000000002665, -1.1010123079912362 
4.590000000002641, -1.0989557640646155 
4.600000000002618, -1.0962263432384323 
4.610000000002595, -1.092820102134438 
4.620000000002571, -1.0888245371966567 
4.630000000002548, -1.0844215271839772 
4.640000000002525, -1.0798797658926973 
4.6500000000025015, -1.0755373738226077 
4.660000000002478, -1.0717576633846577 
4.670000000002455, -1.0688405664142717 
4.6800000000024315, -1.0669134405729788 
4.690000000002408, -1.0658784659889529 
4.700000000002385, -1.0654734413237033 
4.710000000002362, -1.0654005797541826 
4.720000000002338, -1.0654239816402755 
4.730000000002315, -1.0653919007928898 
4.740000000002292, -1.0652090466714292 
4.750000000002268, -1.0647963174743484 
4.760000000002245, -1.064055657654114 
4.770000000002222, -1.0628434910596862 
4.7800000000021985, -1.0609564054499225 
4.790000000002175, -1.0581416591155484 
4.800000000002152, -1.0541507078574928 
4.810000000002129, -1.048839375221927 
4.820000000002105, -1.042280340521525 
4.830000000002082, -1.0348265778818402 
4.840000000002059, -1.027084746451807 
4.850000000002035, -1.0198002607538281 
4.860000000002012, -1.013676432762278 
4.870000000001989, -1.009169397332518 
4.880000000001965, -1.006348195691805 
4.890000000001942, -1.0049188175851982 
4.900000000001919, -1.0044055248840087 
4.9100000000018955, -1.0043569192808808 
4.920000000001872, -1.0044549684545987 
4.930000000001849, -1.0045163646259039 
4.940000000001826, -1.0044431896439627 
