t, s[1].omega / s[0].omega 
0, -0.8499976290509885 
0.009999999999999995, -0.8497215813909152 
0.019999999999999934, -0.8493646004548004 
0.029999999999999874, -0.8489188409572381 
0.04000000000000012, -0.8483805280253989 
0.050000000000000405, -0.8477575904525633 
0.06000000000000069, -0.8470738328053689 
0.07000000000000098, -0.8463702173674132 
0.08000000000000126, -0.8457047297427118 
0.09000000000000155, -0.8451503619113986 
0.10000000000000184, -0.8447889384187224 
0.11000000000000212, -0.8446995092711479 
0.12000000000000241, -0.8449437573291869 
0.130000000000002, -0.8455541638249435 
0.1400000000000009, -0.8465300998236751 
0.1499999999999998, -0.8478427404683553 
0.1599999999999987, -0.8494452971871624 
0.1699999999999976, -0.8512832761355295 
0.1799999999999965, -0.8533001540383205 
0.1899999999999954, -0.8554358428065161 
0.1999999999999943, -0.8576184270941359 
0.2099999999999932, -0.8597544138871639 
0.2199999999999921, -0.8617277066490248 
0.229999999999991, -0.8634167931741885 
0.2399999999999899, -0.8647271555476568 
0.2499999999999888, -0.8656191284786725 
0.2599999999999877, -0.8661113745049454 
0.2699999999999866, -0.8662609547373066 
0.2799999999999855, -0.8661383205050175 
0.2899999999999844, -0.8658133798668841 
0.2999999999999833, -0.8653577780170696 
0.3099999999999822, -0.86486193477981 
0.3199999999999811, -0.864463263266288 
0.32999999999998, -0.86437788552853 
0.3399999999999789, -0.8649189508553974 
0.3499999999999778, -0.8664771063821464 
0.35999999999997667, -0.8694483069995542 
0.36999999999997557, -0.8741262165301021 
0.37999999999997447, -0.8806050410403004 
0.38999999999997337, -0.8887296482008018 
0.39999999999997227, -0.8980925216834397 
0.40999999999997117, -0.9080598426935473 
0.41999999999997006, -0.9178357564582189 
0.42999999999996896, -0.926604276926588 
0.43999999999996786, -0.9337466560095574 
0.44999999999996676, -0.9390211233992426 
0.45999999999996566, -0.9425668944012354 
0.46999999999996456, -0.9447415725037847 
0.47999999999996346, -0.945933742855329 
0.48999999999996235, -0.9464555182896852 
0.49999999999996125, -0.9465179073843398 
0.5099999999999602, -0.9462490847093326 
0.519999999999959, -0.9457274127639312 
0.529999999999958, -0.9450243788110271 
0.5399999999999568, -0.9442692575724371 
0.5499999999999557, -0.9437519675813301 
0.5599999999999546, -0.9440585157429705 
0.5699999999999535, -0.9461640255438871 
0.5799999999999524, -0.9513212422798978 
0.5899999999999513, -0.9606167720811027 
0.5999999999999502, -0.9743316773782107 
0.6099999999999491, -0.9915241623948227 
0.619999999999948, -1.0101810417901205 
0.6299999999999469, -1.027901470603685 
0.6399999999999458, -1.0427507919198087 
0.6499999999999447, -1.0538326641938784 
0.6599999999999436, -1.0612992158152288 
0.6699999999999425, -1.0659129898640238 
0.6799999999999414, -1.0685499564357614 
0.6899999999999403, -1.0699167571995605 
0.6999999999999392, -1.0704868902556577 
0.7099999999999381, -1.070543839948562 
0.719999999999937, -1.070248065514138 
0.7299999999999359, -1.0697014934095534 
0.7399999999999348, -1.0690176602305212 
0.7499999999999337, -1.0684149312727744 
0.7599999999999326, -1.0683242489855067 
0.7699999999999315, -1.0694259411977434 
0.7799999999999304, -1.0724696091018988 
0.7899999999999293, -1.0778746392286906 
0.7999999999999282, -1.085418111792129 
0.8099999999999271, -1.094311299404 
0.819999999999926, -1.1035545644301412 
0.8299999999999249, -1.1122530121986518 
0.8399999999999238, -1.1197635213557557 
0.8499999999999227, -1.1257335996358306 
0.8599999999999216, -1.1300941637647772 
0.8699999999999205, -1.1330062113941577 
0.8799999999999194, -1.1347596073055337 
0.8899999999999183, -1.1356638129444852 
0.8999999999999172, -1.1359775718134224 
0.9099999999999161, -1.1358903206242978 
0.919999999999915, -1.1355407081843438 
0.9299999999999139, -1.1350551317856359 
0.9399999999999128, -1.1345924799523428 
0.9499999999999117, -1.1343706555669937 
0.9599999999999106, -1.134635419949753 
0.9699999999999095, -1.135560954163863 
0.9799999999999084, -1.1371542759630064 
0.9899999999999073, -1.139256916395699 
0.9999999999999062, -1.141634433152753 
1.0099999999999052, -1.1440658910611914 
1.019999999999904, -1.1463831994029507 
1.029999999999903, -1.148470708640979 
1.039999999999902, -1.1502507602562457 
1.0499999999999008, -1.1516712774556241 
1.0599999999998997, -1.152701588543971 
1.0699999999998986, -1.1533351999218084 
1.0799999999998975, -1.1535927856648556 
1.0899999999998964, -1.1535194134558844 
1.0999999999998953, -1.153177269034293 
1.1099999999998942, -1.152640753517862 
1.119999999999893, -1.1519979071062108 
1.129999999999892, -1.151352812965623 
1.1399999999998909, -1.1508169589072474 
1.1499999999998898, -1.1504844498717854 
1.1599999999998887, -1.1504048211827762 
1.1699999999998876, -1.1505732036814866 
1.1799999999998865, -1.150939352717472 
1.1899999999998854, -1.1514235069183845 
1.1999999999998843, -1.15193321437974 
1.2099999999998832, -1.1523798645671781 
1.219999999999882, -1.1526904561794455 
1.229999999999881, -1.1528117796871744 
1.2399999999998799, -1.1527095346613512 
1.2499999999998788, -1.1523657469839965 
1.2599999999998777, -1.1517755504827722 
1.2699999999998766, -1.1509439437347624 
1.2799999999998755, -1.1498843337579632 
1.2899999999998744, -1.148620454046196 
1.2999999999998733, -1.147191256157804 
1.3099999999998722, -1.1456565141925332 
1.319999999999871, -1.1441000498596279 
1.32999999999987, -1.1426276249328113 
1.3399999999998689, -1.141356431708247 
1.3499999999998678, -1.1403912592084153 
1.3599999999998666, -1.1397864663589745 
1.3699999999998655, -1.1395130656370136 
1.3799999999998644, -1.1394629018737041 
1.3899999999998633, -1.1394916247958875 
1.3999999999998622, -1.139462491899305 
1.4099999999998611, -1.1392608118000533 
1.41999999999986, -1.1387837254906508 
1.429999999999859, -1.1379262362428872 
1.4399999999998578, -1.1365796537455441 
1.4499999999998567, -1.134647525480357 
1.4599999999998556, -1.132071526826585 
1.4699999999998545, -1.1288512921930027 
1.4799999999998534, -1.1250482177162413 
1.4899999999998523, -1.1207805394259012 
1.4999999999998512, -1.1162256901101328 
1.5099999999998501, -1.111635181442812 
1.519999999999849, -1.1073433898346094 
1.529999999999848, -1.1037285190027235 
1.5399999999998468, -1.1010941803028347 
1.5499999999998457, -1.0995204900882516 
1.5599999999998446, -1.0988175634735646 
1.5699999999998435, -1.098642271225596 
1.5799999999998424, -1.0986659436581512 
1.5899999999998413, -1.0986578188859923 
1.5999999999998402, -1.0984707193662342 
1.6099999999998391, -1.0979858070555404 
1.619999999999838, -1.0970566178067576 
1.629999999999837, -1.0954639516094322 
1.6399999999998358, -1.092889490368978 
1.6499999999998347, -1.0889310737789795 
1.6599999999998336, -1.083191228932931 
1.6699999999998325, -1.0754387262163556 
1.6799999999998314, -1.0657747833151086 
1.6899999999998303, -1.0547107082011047 
1.6999999999998292, -1.043126370271775 
1.709999999999828, -1.0321325502483993 
1.719999999999827, -1.0228353018030758 
1.729999999999826, -1.0160064786139065 
1.7399999999998248, -1.0118002723544872 
1.7499999999998237, -1.009749337716991 
1.7599999999998226, -1.009077393729828 
1.7699999999998215, -1.0090687202063058 
1.7799999999998204, -1.0092471175438003 
1.7899999999998193, -1.0093579197446556 
1.7999999999998182, -1.0092734030996366 
1.809999999999817, -1.0089049468831566 
1.819999999999816, -1.0081401485687635 
1.8299999999998149, -1.0067954441839213 
1.8399999999998138, -1.0045782830024537 
1.8499999999998127, -1.0010739210075816 
1.8599999999998116, -0.9957992459018744 
1.8699999999998105, -0.9883657193281861 
1.8799999999998094, -0.9787162483933066 
1.8899999999998083, -0.9672863294213716 
1.8999999999998072, -0.9549535576949907 
1.909999999999806, -0.9428108173248454 
1.919999999999805, -0.9319045222259019 
1.9299999999998039, -0.9230216649583818 
1.9399999999998028, -0.9165425073236506 
1.9499999999998017, -0.9123906858247395 
1.9599999999998006, -0.9101235323934554 
1.9699999999997995, -0.9091349607849631 
1.9799999999997984, -0.9088605354451408 
1.9899999999997973, -0.9088879804006524 
1.9999999999997962, -0.9089635447673201 
2.0099999999998173, -0.9089435262437764 
2.0199999999998384, -0.9087379040021417 
2.0299999999998595, -0.9082667314758328 
2.0399999999998806, -0.9074327756193226 
2.0499999999999017, -0.9061115763159115 
2.059999999999923, -0.9041649175241216 
2.069999999999944, -0.9014831830750687 
2.079999999999965, -0.8980444147642617 
2.089999999999986, -0.8939519594574152 
2.100000000000007, -0.8894163125837293 
2.1100000000000283, -0.8846927968627302 
2.1200000000000494, -0.88002190587291 
2.1300000000000705, -0.8756029121287053 
2.1400000000000916, -0.8715951595596654 
2.1500000000001127, -0.8681257106586946 
2.160000000000134, -0.8652879831787171 
2.170000000000155, -0.8631289402879936 
2.180000000000176, -0.8616336974199882 
2.190000000000197, -0.8607214172236131 
2.2000000000002182, -0.8602608948047463 
2.2100000000002393, -0.8601007087567428 
2.2200000000002604, -0.8600988949580767 
2.2300000000002815, -0.8601397185683357 
2.2400000000003026, -0.860135824009817 
2.2500000000003237, -0.8600223812482101 
2.260000000000345, -0.8597514366859365 
2.270000000000366, -0.8592914852267933 
2.280000000000387, -0.8586318942995039 
2.290000000000408, -0.8577865122992337 
2.3000000000004293, -0.856789788658614 
2.3100000000004504, -0.8556847780745963 
2.3200000000004715, -0.8545102112778803 
2.3300000000004926, -0.8532946910269068 
2.3400000000005137, -0.8520597981693696 
2.3500000000005348, -0.8508278800567824 
2.360000000000556, -0.8496291620057214 
2.370000000000577, -0.8485050262201801 
2.380000000000598, -0.8475065306449008 
2.390000000000619, -0.8466884036390349 
2.4000000000006403, -0.8460997530802079 
2.4100000000006614, -0.8457740366263009 
2.4200000000006825, -0.8457215922578601 
2.4300000000007036, -0.8459273652356678 
2.4400000000007247, -0.8463546212982702 
2.450000000000746, -0.8469532868474079 
2.460000000000767, -0.8476700009236657 
2.470000000000788, -0.8484566837080288 
2.480000000000809, -0.8492753509110281 
2.49000000000083, -0.8500981294415133 
2.5000000000008513, -0.8509024694749148 
2.5100000000008724, -0.8516631371725424 
2.5200000000008935, -0.8523451605735645 
2.5300000000009146, -0.8529035011174292 
2.5400000000009357, -0.853292373342153 
2.550000000000957, -0.8534798416444985 
2.560000000000978, -0.8534582822748347 
2.570000000000999, -0.8532451269083294 
2.58000000000102, -0.8528772409629554 
2.5900000000010412, -0.8524066762676871 
2.6000000000010624, -0.8519027018822202 
2.6100000000010835, -0.8514593297955176 
2.6200000000011046, -0.851202519612049 
2.6300000000011257, -0.8512883254984758 
2.6400000000011468, -0.8518850624703547 
2.650000000001168, -0.8531413449224174 
2.660000000001189, -0.8551530545328447 
2.67000000000121, -0.8579450146909237 
2.680000000001231, -0.8614727003826621 
2.6900000000012523, -0.8656349637446683 
2.7000000000012734, -0.8702830478684156 
2.7100000000012945, -0.875217574574263 
2.7200000000013156, -0.8801799293422808 
2.7300000000013367, -0.8848605347025122 
2.740000000001358, -0.8889484581470299 
2.750000000001379, -0.8922160310235061 
2.7600000000014, -0.8945858433833352 
2.770000000001421, -0.8961279312946363 
2.780000000001442, -0.8969958395226849 
2.7900000000014633, -0.8973550357973965 
2.8000000000014844, -0.8973415642537346 
2.8100000000015055, -0.8970540072329989 
2.8200000000015266, -0.8965677883758831 
2.8300000000015477, -0.895965754486871 
2.840000000001569, -0.8953873966976532 
2.85000000000159, -0.8950997066629762 
2.860000000001611, -0.8955760007930245 
2.870000000001632, -0.8975322400396948 
2.8800000000016532, -0.901840054764727 
2.8900000000016743, -0.9092712697940135 
2.9000000000016954, -0.9201471750947819 
2.9100000000017165, -0.9340670975087149 
2.9200000000017377, -0.9498672232226127 
2.9300000000017588, -0.9658574848809115 
2.94000000000178, -0.9802941270128741 
2.950000000001801, -0.991930542535532 
2.960000000001822, -1.000354060814932 
2.970000000001843, -1.0058978132243486 
2.9800000000018643, -1.0092573224833181 
2.9900000000018854, -1.0111300061819568 
3.0000000000019065, -1.0120443137194566 
3.0100000000019276, -1.0123417843711746 
3.0200000000019487, -1.0122214275706214 
3.03000000000197, -1.0117938238031112 
3.040000000001991, -1.011134986031355 
3.050000000002012, -1.0103544734149874 
3.060000000002033, -1.0097000320653433 
3.070000000002054, -1.0096979748807573 
3.0800000000020753, -1.0112458896132601 
3.0900000000020964, -1.0154704729942 
3.1000000000021175, -1.0232375132070592 
3.1100000000021386, -1.0345660205982357 
3.1200000000021597, -1.0484370352058 
3.130000000002181, -1.0631599373391603 
3.140000000002202, -1.0769856720775277 
3.150000000002223, -1.0886120501145684 
3.160000000002244, -1.0974347123080166 
3.1700000000022652, -1.1035210256631012 
3.1800000000022863, -1.1073660403388321 
3.1900000000023074, -1.109589323299254 
3.2000000000023285, -1.1107276763074931 
3.2100000000023496, -1.1111633725302887 
3.2200000000023707, -1.1111394380123405 
3.230000000002392, -1.1108080484920042 
3.240000000002413, -1.1102888460257878 
3.250000000002434, -1.1097360322121785 
3.260000000002455, -1.1094072693429384 
3.2700000000024763, -1.1096882037700895 
3.2800000000024974, -1.1109959277978994 
3.2900000000025185, -1.1135665926824148 
3.3000000000025396, -1.1172990407127141 
3.3100000000025607, -1.1218104915852007 
3.3200000000025818, -1.1266288212286737 
3.330000000002603, -1.131344162305934 
3.340000000002624, -1.1356565887671821 
3.350000000002645, -1.1393645196680662 
3.360000000002666, -1.1423476854263277 
3.3700000000026873, -1.1445636724941428 
3.3800000000027084, -1.1460470190019634 
3.3900000000027295, -1.146893563966842 
3.4000000000027506, -1.1472294033827692 
3.4100000000027717, -1.1471810682693082 
3.420000000002793, -1.14686275983355 
3.430000000002814, -1.1463838066471799 
3.440000000002835, -1.1458672786441153 
3.450000000002856, -1.1454605296762161 
3.460000000002877, -1.1453152429443734 
3.4700000000028983, -1.145536231442473 
3.4800000000029194, -1.1461375861392888 
3.4900000000029405, -1.1470460400920541 
3.5000000000029616, -1.148142178406387 
3.5100000000029827, -1.149301615234317 
3.520000000003004, -1.1504177105617477 
3.530000000003025, -1.151409397374527 
3.540000000003046, -1.1522206721814894 
3.550000000003067, -1.152815627753434 
3.5600000000030882, -1.1531723076260236 
3.5700000000031094, -1.153278449629663 
3.5800000000031305, -1.1531308590550489 
3.5900000000031516, -1.152737807739677 
3.6000000000031727, -1.1521222168132579 
3.6100000000031938, -1.1513241833030885 
3.620000000003215, -1.1504028739281964 
3.630000000003236, -1.149436490453232 
3.640000000003257, -1.1485163133056557 
3.650000000003278, -1.147732814702055 
3.6600000000032993, -1.147158242849707 
3.6700000000033204, -1.1468310228160234 
3.6800000000033415, -1.146743217282507 
3.6900000000033626, -1.1468362461922994 
3.7000000000033837, -1.1470140558787707 
3.710000000003405, -1.1471693499855737 
3.720000000003426, -1.1472047993954737 
3.730000000003447, -1.1470395697034308 
3.740000000003468, -1.1466075879887279 
3.750000000003489, -1.1458576050349578 
3.7600000000035103, -1.144757760998884 
3.7700000000035314, -1.1432999463455062 
3.7800000000035525, -1.141499168616842 
3.7900000000035736, -1.1393893952297593 
3.8000000000035947, -1.137021994969284 
3.810000000003616, -1.1344710325445286 
3.820000000003637, -1.1318442759906564 
3.830000000003658, -1.1292934481042942 
3.840000000003679, -1.1270106328039957 
3.8500000000037002, -1.1251917707064873 
3.8600000000037213, -1.1239621270427826 
3.8700000000037424, -1.1233059452645422 
3.8800000000037635, -1.1230684027253726 
3.8900000000037847, -1.1230344867482118 
3.9000000000038058, -1.1230103187041454 
3.910000000003827, -1.1228494081605804 
3.920000000003848, -1.1224315712800856 
3.930000000003869, -1.1216273147550972 
3.94000000000389, -1.1202706933861126 
3.9500000000039113, -1.1181547885899115 
3.9600000000039324, -1.1150612434836893 
3.9700000000039535, -1.1108232774938993 
3.9800000000039746, -1.105396485615866 
3.9900000000039957, -1.0989012165216487 
4.000000000004016, -1.0916276705183163 
4.010000000003993, -1.0840265245284286 
4.02000000000397, -1.0766929910520633 
4.030000000003946, -1.0703003928976391 
4.040000000003923, -1.06542557266245 
4.0500000000039, -1.0623097769474352 
4.0600000000038765, -1.0607452630958947 
4.070000000003853, -1.060222593726832 
4.08000000000383, -1.060207787710764 
4.090000000003807, -1.0603181916176283 
4.100000000003783, -1.0603347622600632 
4.11000000000376, -1.0601325230603722 
4.120000000003737, -1.0596045684548396 
4.130000000003713, -1.0586011692560042 
4.14000000000369, -1.0568798522012286 
4.150000000003667, -1.0540684807859306 
4.1600000000036434, -1.0496689302774613 
4.17000000000362, -1.0431531363585826 
4.180000000003597, -1.0341780986604634 
4.1900000000035735, -1.022841522656132 
4.20000000000355, -1.0098113680993674 
4.210000000003527, -0.996232066935921 
4.220000000003504, -0.9834597281541173 
4.23000000000348, -0.9727233784226433 
4.240000000003457, -0.9647908760333296 
4.250000000003434, -0.9597626035831139 
4.26000000000341, -0.9571329243815418 
4.270000000003387, -0.9561004827167388 
4.280000000003364, -0.9559112463308175 
4.2900000000033405, -0.9560377310852513 
4.300000000003317, -0.9561801818207998 
4.310000000003294, -0.9561858882206555 
4.320000000003271, -0.9559656712580284 
4.330000000003247, -0.9554332945689298 
4.340000000003224, -0.9544646197609034 
4.350000000003201, -0.9528712113174723 
4.360000000003177, -0.9503955339295755 
4.370000000003154, -0.9467499593990928 
4.380000000003131, -0.9417173666171083 
4.390000000003107, -0.9352830833268513 
4.400000000003084, -0.9277083265158262 
4.410000000003061, -0.9194787394115165 
4.4200000000030375, -0.9111699673511898 
4.430000000003014, -0.9033265470052999 
4.440000000002991, -0.8963963688406867 
4.450000000002968, -0.8906975872139103 
4.460000000002944, -0.8863887104548963 
4.470000000002921, -0.883445828104327 
4.480000000002898, -0.8816752110897756 
4.490000000002874, -0.8807756171446895 
4.500000000002851, -0.8804259973592876 
4.510000000002828, -0.8803548547304973 
4.520000000002804, -0.8803666651055766 
4.530000000002781, -0.8803320571432354 
4.540000000002758, -0.8801624589548741 
4.5500000000027345, -0.8797860588594695 
4.560000000002711, -0.8791339937178393 
4.570000000002688, -0.8781410256407538 
4.580000000002665, -0.8767611041449286 
4.590000000002641, -0.8749901114378051 
4.600000000002618, -0.8728789217980376 
4.610000000002595, -0.8705230697296011 
4.620000000002571, -0.8680343595576361 
4.630000000002548, -0.8655144895423375 
4.640000000002525, -0.8630448403441886 
4.6500000000025015, -0.860690909490188 
4.660000000002478, -0.8585116104560319 
4.670000000002455, -0.8565650816168929 
4.6800000000024315, -0.854907459383675 
4.690000000002408, -0.8535850741770419 
4.700000000002385, -0.8526232087780755 
4.710000000002362, -0.8520163449686551 
4.720000000002338, -0.8517251075475384 
4.730000000002315, -0.85168257778577 
4.740000000002292, -0.8518077551238218 
4.750000000002268, -0.8520201973106584 
4.760000000002245, -0.8522504955389932 
4.770000000002222, -0.8524452128048507 
4.7800000000021985, -0.8525682313289883 
4.790000000002175, -0.852600553470435 
4.800000000002152, -0.8525383618761962 
4.810000000002129, -0.8523877608740242 
4.820000000002105, -0.8521565228840396 
4.830000000002082, -0.8518467826546372 
4.840000000002059, -0.8514534748133075 
4.850000000002035, -0.8509696034325669 
4.860000000002012, -0.8503946553538752 
4.870000000001989, -0.8497413389647652 
4.880000000001965, -0.8490387775590069 
4.890000000001942, -0.84833328757317 
4.900000000001919, -0.8476877511028063 
4.9100000000018955, -0.8471783896801096 
4.920000000001872, -0.8468866984787471 
4.930000000001849, -0.8468863749599743 
