t, s[1].omega / s[0].omega 
0, -1.2399952051577252 
0.009999999999999995, -1.2393521443016589 
0.019999999999999934, -1.2383858598596404 
0.029999999999999874, -1.2370982493797031 
0.04000000000000012, -1.2354928157847263 
0.050000000000000405, -1.2335754366877114 
0.06000000000000069, -1.2313552874423639 
0.07000000000000098, -1.228845807821024 
0.08000000000000126, -1.2260656043492426 
0.09000000000000155, -1.2230391828128027 
0.10000000000000184, -1.2197974139733003 
0.11000000000000212, -1.2163776731859057 
0.12000000000000241, -1.2128236842968365 
0.130000000000002, -1.2091852277086974 
0.1400000000000009, -1.2055179660472999 
0.1499999999999998, -1.201883574046336 
0.1599999999999987, -1.198350038127395 
0.1699999999999976, -1.1949914640200048 
0.1799999999999965, -1.1918862505542491 
0.1899999999999954, -1.189112444006485 
0.1999999999999943, -1.1867397929219323 
0.2099999999999932, -1.1848194369137814 
0.2199999999999921, -1.1833737244581897 
0.229999999999991, -1.1823894485100142 
0.2399999999999899, -1.1818170975776443 
0.2499999999999888, -1.1815766482505754 
0.2599999999999877, -1.1815680038553975 
0.2699999999999866, -1.181682705558591 
0.2799999999999855, -1.181813647356074 
0.2899999999999844, -1.1818608576869059 
0.2999999999999833, -1.1817330579462615 
0.3099999999999822, -1.18134591274436 
0.3199999999999811, -1.180618399280643 
0.32999999999998, -1.1794687079014587 
0.3399999999999789, -1.177810835377699 
0.3499999999999778, -1.175552755131012 
0.35999999999997667, -1.1725968036508112 
0.36999999999997557, -1.1688426552428286 
0.37999999999997447, -1.1641928781105706 
0.38999999999997337, -1.1585605353371602 
0.39999999999997227, -1.1518776974112461 
0.40999999999997117, -1.1441032823384496 
0.41999999999997006, -1.1352285928404335 
0.42999999999996896, -1.1252794160120962 
0.43999999999996786, -1.1143144739042654 
0.44999999999996676, -1.1024210129263565 
0.45999999999996566, -1.0897089948765757 
0.46999999999996456, -1.0763054746939875 
0.47999999999996346, -1.062350359832258 
0.48999999999996235, -1.0479940735747681 
0.49999999999996125, -1.033396950069483 
0.5099999999999602, -1.0187296459204254 
0.519999999999959, -1.0041735266078238 
0.529999999999958, -0.989919877433649 
0.5399999999999568, -0.9761668923660515 
0.5499999999999557, -0.9631137211287694 
0.5599999999999546, -0.9509514136968672 
0.5699999999999535, -0.9398513504836132 
0.5799999999999524, -0.9299525519975906 
0.5899999999999513, -0.9213498984556668 
0.5999999999999502, -0.9140855069562925 
0.6099999999999491, -0.9081451472786405 
0.619999999999948, -0.9034606521728179 
0.6299999999999469, -0.8999180346762068 
0.6399999999999458, -0.8973698405291376 
0.6499999999999447, -0.8956494992555865 
0.6599999999999436, -0.894585290451533 
0.6699999999999425, -0.8940119793617928 
0.6799999999999414, -0.8937789763273806 
0.6899999999999403, -0.8937547448219272 
0.6999999999999392, -0.8938278810121495 
0.7099999999999381, -0.8939056956885252 
0.719999999999937, -0.8939112533570565 
0.7299999999999359, -0.8937797478563649 
0.7399999999999348, -0.8934549240946068 
0.7499999999999337, -0.8928860745499027 
0.7599999999999326, -0.892025989644132 
0.7699999999999315, -0.8908301247942719 
0.7799999999999304, -0.889257135167455 
0.7899999999999293, -0.8872707794329608 
0.7999999999999282, -0.8848429731621519 
0.8099999999999271, -0.8819574860786756 
0.819999999999926, -0.8786134914265702 
0.8299999999999249, -0.874828014018123 
0.8399999999999238, -0.870636417282466 
0.8499999999999227, -0.8660904719709905 
0.8599999999999216, -0.8612541672401581 
0.8699999999999205, -0.8561980355322019 
0.8799999999999194, -0.8509931243131144 
0.8899999999999183, -0.8457057358526866 
0.8999999999999172, -0.840393723205403 
0.9099999999999161, -0.8351046520787758 
0.919999999999915, -0.8298757015077596 
0.9299999999999139, -0.8247348940357648 
0.9399999999999128, -0.8197031384320542 
0.9499999999999117, -0.8147965937539803 
0.9599999999999106, -0.8100289634032155 
0.9699999999999095, -0.8054134519140214 
0.9799999999999084, -0.8009642341908186 
0.9899999999999073, -0.7966973815938431 
0.9999999999999062, -0.7926312573293894 
1.0099999999999052, -0.7887864370791712 
1.019999999999904, -0.785185234924986 
1.029999999999903, -0.7818509254277598 
1.039999999999902, -0.7788067553816149 
1.0499999999999008, -0.7760748367926289 
1.0599999999998997, -0.7736750079370915 
1.0699999999998986, -0.77162374283252 
1.0799999999998975, -0.7699331815737068 
1.0899999999998964, -0.768610345001337 
1.0999999999998953, -0.7676565869901664 
1.1099999999998942, -0.7670673256484691 
1.119999999999893, -0.7668320799003725 
1.129999999999892, -0.766934819461041 
1.1399999999998909, -0.7673546143066572 
1.1499999999998898, -0.7680665461811712 
1.1599999999998887, -0.7690428227697947 
1.1699999999998876, -0.7702540187881594 
1.1799999999998865, -0.7716703603907257 
1.1899999999998854, -0.7732629707477408 
1.1999999999998843, -0.7750050032770902 
1.2099999999998832, -0.7768726004529549 
1.219999999999882, -0.7788456253231382 
1.229999999999881, -0.7809081164283933 
1.2399999999998799, -0.7830484148761188 
1.2499999999998788, -0.7852589094081329 
1.2599999999998777, -0.787535349381652 
1.2699999999998766, -0.7898756953775273 
1.2799999999998755, -0.7922785186970454 
1.2899999999998744, -0.7947410249991733 
1.2999999999998733, -0.7972568583901046 
1.3099999999998722, -0.7998139297832363 
1.319999999999871, -0.8023925918478302 
1.32999999999987, -0.8049645306846491 
1.3399999999998689, -0.8074927324085176 
1.3499999999998678, -0.8099327795641738 
1.3599999999998666, -0.8122355205569254 
1.3699999999998655, -0.8143508571947661 
1.3799999999998644, -0.8162320884135286 
1.3899999999998633, -0.8178400488230819 
1.3999999999998622, -0.819146290455025 
1.4099999999998611, -0.8201347977304211 
1.41999999999986, -0.8208021175604576 
1.429999999999859, -0.8211561816994181 
1.4399999999998578, -0.8212143634621325 
1.4499999999998567, -0.8210013880625743 
1.4599999999998556, -0.8205476321363371 
1.4699999999998545, -0.8198881777792725 
1.4799999999998534, -0.819062803164857 
1.4899999999998523, -0.8181169386331255 
1.4999999999998512, -0.8171035026534423 
1.5099999999998501, -0.816085442093395 
1.519999999999849, -0.8151387147842817 
1.529999999999848, -0.8143553546876575 
1.5399999999998468, -0.8138461508142003 
1.5499999999998457, -0.8137423683963947 
1.5599999999998446, -0.8141958793584374 
1.5699999999998435, -0.8153770925856584 
1.5799999999998424, -0.8174702216531449 
1.5899999999998413, -0.8206657149492738 
1.5999999999998402, -0.8251500799390049 
1.6099999999998391, -0.8310937974133027 
1.619999999999838, -0.8386384485647049 
1.629999999999837, -0.8478844629901013 
1.6399999999998358, -0.8588809521934566 
1.6499999999998347, -0.8716188773469881 
1.6599999999998336, -0.8860283302650128 
1.6699999999998325, -0.9019800685316461 
1.6799999999998314, -0.9192907810347614 
1.6899999999998303, -0.9377310342459506 
1.6999999999998292, -0.9570346050191305 
1.709999999999828, -0.9769080154951121 
1.719999999999827, -0.997039525143396 
1.729999999999826, -1.0171074810587755 
1.7399999999998248, -1.0367885818920861 
1.7499999999998237, -1.0557670356118876 
1.7599999999998226, -1.073745560794532 
1.7699999999998215, -1.090458560918949 
1.7799999999998204, -1.1056866585674057 
1.7899999999998193, -1.119270469055824 
1.7999999999998182, -1.1311206231207638 
1.809999999999817, -1.141221200331655 
1.819999999999816, -1.149625086207816 
1.8299999999998149, -1.1564418598026553 
1.8399999999998138, -1.1618207561838916 
1.8499999999998127, -1.165932221484804 
1.8599999999998116, -1.1689513344339777 
1.8699999999998105, -1.171045261414231 
1.8799999999998094, -1.172365572848927 
1.8899999999998083, -1.1730451919910547 
1.8999999999998072, -1.1731991792283187 
1.909999999999806, -1.1729284072990447 
1.919999999999805, -1.1723252484307032 
1.9299999999998039, -1.1714804506378593 
1.9399999999998028, -1.1704902630373153 
1.9499999999998017, -1.1694625254522082 
1.9599999999998006, -1.1685199821244268 
1.9699999999997995, -1.1677988454028267 
1.9799999999997984, -1.1674411100493816 
1.9899999999997973, -1.1675806663403872 
1.9999999999997962, -1.1683256740985821 
2.0099999999998173, -1.1697419056787925 
2.0199999999998384, -1.1718423897509767 
2.0299999999998595, -1.1745868761825369 
2.0399999999998806, -1.177891084171985 
2.0499999999999017, -1.1816422788992509 
2.059999999999923, -1.1857161830897325 
2.069999999999944, -1.1899909852071224 
2.079999999999965, -1.1943563403756219 
2.089999999999986, -1.1987174300771544 
2.100000000000007, -1.2029954595749976 
2.1100000000000283, -1.207126265391491 
2.1200000000000494, -1.211058316547127 
2.1300000000000705, -1.2147507871957857 
2.1400000000000916, -1.218171887916954 
2.1500000000001127, -1.2212973917943934 
2.160000000000134, -1.2241092450262148 
2.170000000000155, -1.2265942137561872 
2.180000000000176, -1.2287426041148475 
2.190000000000197, -1.2305471540253963 
2.2000000000002182, -1.2320022167382898 
2.2100000000002393, -1.2331033360336594 
2.2200000000002604, -1.2338472575437496 
2.2300000000002815, -1.2342323435012645 
2.2400000000003026, -1.2342592824633318 
2.2500000000003237, -1.2339319386150207 
2.260000000000345, -1.233258186910175 
2.270000000000366, -1.2322506298440297 
2.280000000000387, -1.2309271633824903 
2.290000000000408, -1.2293114123606104 
2.3000000000004293, -1.2274330537446148 
2.3100000000004504, -1.225327981683203 
2.3200000000004715, -1.223038174564682 
2.3300000000004926, -1.220611070726177 
2.3400000000005137, -1.2180983217117303 
2.3500000000005348, -1.2155539990747652 
2.360000000000556, -1.2130326116806867 
2.370000000000577, -1.210587469442452 
2.380000000000598, -1.2082698124318125 
2.390000000000619, -1.2061286536407978 
2.4000000000006403, -1.2042106494943947 
2.4100000000006614, -1.2025589037846502 
2.4200000000006825, -1.2012097981932761 
2.4300000000007036, -1.200187812156311 
2.4400000000007247, -1.1994995060793625 
2.450000000000746, -1.1991287332691427 
2.460000000000767, -1.1990351015254679 
2.470000000000788, -1.1991566016033581 
2.480000000000809, -1.1994157000900616 
2.49000000000083, -1.1997269420542156 
2.5000000000008513, -1.2000038358326297 
2.5100000000008724, -1.2001634659886136 
2.5200000000008935, -1.2001283753306877 
2.5300000000009146, -1.1998262026401854 
2.5400000000009357, -1.199188069543385 
2.550000000000957, -1.1981467914662989 
2.560000000000978, -1.1966358003084154 
2.570000000000999, -1.1945893548226194 
2.58000000000102, -1.191944252891556 
2.5900000000010412, -1.1886428766669377 
2.6000000000010624, -1.1846370342465953 
2.6100000000010835, -1.179891789736506 
2.6200000000011046, -1.1743884026312374 
2.6300000000011257, -1.1681256965848117 
2.6400000000011468, -1.1611196138050435 
2.650000000001168, -1.153401237375644 
2.660000000001189, -1.1450139839371165 
2.67000000000121, -1.1360108410007244 
2.680000000001231, -1.1264524238974327 
2.6900000000012523, -1.1164063420086268 
2.7000000000012734, -1.105948017158361 
2.7100000000012945, -1.0951627827681216 
2.7200000000013156, -1.0841488410589946 
2.7300000000013367, -1.0730204454170353 
2.740000000001358, -1.0619104711204395 
2.750000000001379, -1.0509713392407285 
2.7600000000014, -1.0403731352756918 
2.770000000001421, -1.0302978596169003 
2.780000000001442, -1.0209292293600136 
2.7900000000014633, -1.0124384053667435 
2.8000000000014844, -1.0049673192055186 
2.8100000000015055, -0.9986125230812737 
2.8200000000015266, -0.9934131099641902 
2.8300000000015477, -0.9893457816142108 
2.840000000001569, -0.9863285334516244 
2.85000000000159, -0.9842321881991105 
2.860000000001611, -0.9828970073725132 
2.870000000001632, -0.9821506050270397 
2.8800000000016532, -0.9818236497495615 
2.8900000000016743, -0.9817610601504672 
2.9000000000016954, -0.9818279438030224 
2.9100000000017165, -0.9819108137534416 
2.9200000000017377, -0.9819153424544357 
2.9300000000017588, -0.981762091343428 
2.94000000000178, -0.9813814776449753 
2.950000000001801, -0.9807089314155887 
2.960000000001822, -0.9796809152168999 
2.970000000001843, -0.9782322953089689 
2.9800000000018643, -0.9762954573918722 
2.9900000000018854, -0.9738014874478967 
3.0000000000019065, -0.9706835965491173 
3.0100000000019276, -0.9668826715005977 
3.0200000000019487, -0.9623543523182819 
3.03000000000197, -0.9570764582408743 
3.040000000001991, -0.9510551261754076 
3.050000000002012, -0.9443279742644123 
3.060000000002033, -0.9369631426448531 
3.070000000002054, -0.9290541056617051 
3.0800000000020753, -0.9207113121758578 
3.0900000000020964, -0.9120525078133618 
3.1000000000021175, -0.9031937229806506 
3.1100000000021386, -0.8942424139779195 
3.1200000000021597, -0.8852934294015049 
3.130000000002181, -0.8764276979457525 
3.140000000002202, -0.8677130235938949 
3.150000000002223, -0.8592061779352577 
3.160000000002244, -0.8509555229216607 
3.1700000000022652, -0.8430035686759707 
3.1800000000022863, -0.8353890765593291 
3.1900000000023074, -0.8281485020215134 
3.2000000000023285, -0.821316712584469 
3.2100000000023496, -0.8149270125801505 
3.2200000000023707, -0.8090105670873141 
3.230000000002392, -0.803595354789082 
3.240000000002413, -0.7987048035337728 
3.250000000002434, -0.7943562795691267 
3.260000000002455, -0.7905596130845086 
3.2700000000024763, -0.7873158455591545 
3.2800000000024974, -0.7846163723939314 
3.2900000000025185, -0.7824426215610726 
3.3000000000025396, -0.7807663534268016 
3.3100000000025607, -0.7795505927278205 
3.3200000000025818, -0.7787511220079463 
3.330000000002603, -0.7783183923257484 
3.340000000002624, -0.7781996575050865 
3.350000000002645, -0.7783411234267673 
3.360000000002666, -0.7786899261007018 
3.3700000000026873, -0.7791958045311853 
3.3800000000027084, -0.7798124028306788 
3.3900000000027295, -0.7804982040888234 
3.4000000000027506, -0.7812171511703268 
3.4100000000027717, -0.7819390365034549 
3.420000000002793, -0.782639739704901 
3.430000000002814, -0.7833013607396498 
3.440000000002835, -0.7839122459228635 
3.450000000002856, -0.7844668491709449 
3.460000000002877, -0.7849653303411103 
3.4700000000028983, -0.7854127846312139 
3.4800000000029194, -0.7858180328174826 
3.4900000000029405, -0.7861919787425597 
3.5000000000029616, -0.7865456397458246 
3.5100000000029827, -0.7868880500696814 
3.520000000003004, -0.7872243006425927 
3.530000000003025, -0.7875539957789472 
3.540000000003046, -0.7878703756171653 
3.550000000003067, -0.7881602775375147 
3.5600000000030882, -0.7884049977231368 
3.5700000000031094, -0.7885819760215772 
3.5800000000031305, -0.7886670835151937 
3.5900000000031516, -0.7886371763154759 
3.6000000000031727, -0.7884725303974346 
3.6100000000031938, -0.7881588167529621 
3.620000000003215, -0.7876884077346247 
3.630000000003236, -0.787060983246371 
3.640000000003257, -0.7862835711499351 
3.650000000003278, -0.7853702613540445 
3.6600000000032993, -0.7843418576851441 
3.6700000000033204, -0.7832256858140054 
3.6800000000033415, -0.7820556863221568 
3.6900000000033626, -0.7808728180241181 
3.7000000000033837, -0.7797256985062188 
3.710000000003405, -0.7786713277634195 
3.720000000003426, -0.7777756825368801 
3.730000000003447, -0.7771139382139141 
3.740000000003468, -0.7767700779466571 
3.750000000003489, -0.7768356911398202 
3.7600000000035103, -0.7774078482395159 
3.7700000000035314, -0.7785860603739142 
3.7800000000035525, -0.7804684746449307 
3.7900000000035736, -0.7831475928631437 
3.8000000000035947, -0.7867059031463871 
3.810000000003616, -0.7912118540764012 
3.820000000003637, -0.7967165663026358 
3.830000000003658, -0.8032515698115869 
3.840000000003679, -0.8108276960602365 
3.8500000000037002, -0.8194350731152124 
3.8600000000037213, -0.8290440019363434 
3.8700000000037424, -0.8396063614251712 
3.8800000000037635, -0.8510571182293192 
3.8900000000037847, -0.8633155146850121 
3.9000000000038058, -0.876285578766174 
3.910000000003827, -0.8898557459622561 
3.920000000003848, -0.9038976078268753 
3.930000000003869, -0.9182641056726599 
3.94000000000389, -0.9327878543213256 
3.9500000000039113, -0.9472806544089141 
3.9600000000039324, -0.9615355133612299 
3.9700000000039535, -0.9753324591289867 
3.9800000000039746, -0.9884488975942947 
3.9900000000039957, -1.000674150214045 
4.000000000004016, -1.0118263094372788 
4.010000000003993, -1.0217682108743222 
4.02000000000397, -1.0304188544285051 
4.030000000003946, -1.037757462098325 
4.040000000003923, -1.0438193372976343 
4.0500000000039, -1.0486849554842117 
4.0600000000038765, -1.0524652937389731 
4.070000000003853, -1.0552867703701607 
4.08000000000383, -1.0572784571081357 
4.090000000003807, -1.0585630167759508 
4.100000000003783, -1.0592516898744566 
4.11000000000376, -1.0594429258930385 
4.120000000003737, -1.0592239633378189 
4.130000000003713, -1.058674666840146 
4.14000000000369, -1.0578730411796158 
4.150000000003667, -1.0569018946303543 
4.1600000000036434, -1.0558560030471027 
4.17000000000362, -1.0548487865685778 
4.180000000003597, -1.0540170117540624 
4.1900000000035735, -1.0535215809848113 
4.20000000000355, -1.053542429568123 
4.210000000003527, -1.0542663225476665 
4.220000000003504, -1.055868106534952 
4.23000000000348, -1.058488369935396 
4.240000000003457, -1.0622125267814813 
4.250000000003434, -1.0670568818337254 
4.26000000000341, -1.0729656278305737 
4.270000000003387, -1.0798194661489122 
4.280000000003364, -1.0874530786437298 
4.2900000000033405, -1.0956765356618465 
4.300000000003317, -1.1042956005062283 
4.310000000003294, -1.1131273986062817 
4.320000000003271, -1.122010049342673 
4.330000000003247, -1.130806660603952 
4.340000000003224, -1.1394050928356936 
4.350000000003201, -1.1477151363714697 
4.360000000003177, -1.1556645052638126 
4.370000000003154, -1.1631946492030365 
4.380000000003131, -1.1702570274654478 
4.390000000003107, -1.1768102444382327 
4.400000000003084, -1.1828182888977539 
4.410000000003061, -1.1882499847915877 
4.4200000000030375, -1.1930795966087082 
4.430000000003014, -1.1972883264077914 
4.440000000002991, -1.2008662336043332 
4.450000000002968, -1.2038139818354667 
4.460000000002944, -1.2061438464903744 
4.470000000002921, -1.207879626671155 
4.480000000002898, -1.2090554408529481 
4.490000000002874, -1.209713728223153 
4.500000000002851, -1.2099030042742671 
4.510000000002828, -1.2096759591777373 
4.520000000002804, -1.209088343385996 
4.530000000002781, -1.2081988101655137 
4.540000000002758, -1.2070695470303594 
4.5500000000027345, -1.2057671925261673 
4.560000000002711, -1.20436327742502 
4.570000000002688, -1.2029333573609124 
4.580000000002665, -1.2015542400014558 
4.590000000002641, -1.2002993082848246 
4.600000000002618, -1.1992327662692428 
4.610000000002595, -1.1984043167847076 
4.620000000002571, -1.1978458764248956 
4.630000000002548, -1.1975712472948654 
4.640000000002525, -1.1975784782506407 
4.6500000000025015, -1.197853600844123 
4.660000000002478, -1.1983740914413887 
4.670000000002455, -1.1991109202732855 
4.6800000000024315, -1.2000290383312018 
4.690000000002408, -1.20108704097714 
4.700000000002385, -1.2022370855827993 
4.710000000002362, -1.2034258438145948 
4.720000000002338, -1.204596609239187 
4.730000000002315, -1.205692079177346 
4.740000000002292, -1.2066570878381278 
4.750000000002268, -1.2074407188079417 
4.760000000002245, -1.207997584496436 
4.770000000002222, -1.2082883943577507 
4.7800000000021985, -1.2082800993414093 
4.790000000002175, -1.2079458812342891 
4.800000000002152, -1.2072651222436146 
4.810000000002129, -1.2062233373185098 
4.820000000002105, -1.2048119556528154 
4.830000000002082, -1.2030278346466217 
4.840000000002059, -1.2008724703710743 
4.850000000002035, -1.1983509890208055 
4.860000000002012, -1.1954711067365371 
4.870000000001989, -1.1922422868919638 
4.880000000001965, -1.1886752919425936 
4.890000000001942, -1.1847822400399914 
4.900000000001919, -1.1805771707036268 
4.9100000000018955, -1.1760770340010358 
4.920000000001872, -1.17130296664138 
4.930000000001849, -1.1662817138531691 
