t, s[1].omega / s[0].omega 
0, -1.2999911522929237 
0.009999999999999995, -1.2989218833661336 
0.019999999999999934, -1.297487905094933 
0.029999999999999874, -1.2956905035705906 
0.04000000000000012, -1.2935314515517147 
0.050000000000000405, -1.2910130710592618 
0.06000000000000069, -1.2881383177797272 
0.07000000000000098, -1.284910884645977 
0.08000000000000126, -1.2813353214294476 
0.09000000000000155, -1.2774171667462313 
0.10000000000000184, -1.2731630885171075 
0.11000000000000212, -1.2685810285906132 
0.12000000000000241, -1.2636803469209157 
0.130000000000002, -1.258471960409834 
0.1400000000000009, -1.2529684713459166 
0.1499999999999998, -1.247184280421446 
0.1599999999999987, -1.241135679723628 
0.1699999999999976, -1.2348409220076566 
0.1799999999999965, -1.2283202640267228 
0.1899999999999954, -1.2215959836536898 
0.1999999999999943, -1.2146923727525702 
0.2099999999999932, -1.2076357098431691 
0.2199999999999921, -1.2004542180118465 
0.229999999999991, -1.193178013673185 
0.2399999999999899, -1.185839050188481 
0.2499999999999888, -1.178471056746597 
0.2599999999999877, -1.1711094674375644 
0.2699999999999866, -1.1637913286822401 
0.2799999999999855, -1.156555166150403 
0.2899999999999844, -1.1494407863657905 
0.2999999999999833, -1.1424889848468416 
0.3099999999999822, -1.1357411332121723 
0.3199999999999811, -1.129238623111922 
0.32999999999998, -1.123022155383285 
0.3399999999999789, -1.1171308778990725 
0.3499999999999778, -1.1116013937557105 
0.35999999999997667, -1.1064666805700667 
0.36999999999997557, -1.1017549790932315 
0.37999999999997447, -1.097488722391907 
0.38999999999997337, -1.0936835831489775 
0.39999999999997227, -1.090347714647398 
0.40999999999997117, -1.087481250305481 
0.41999999999997006, -1.0850761080802744 
0.42999999999996896, -1.0831161216981697 
0.43999999999996786, -1.0815774934526372 
0.44999999999996676, -1.0804295365988354 
0.45999999999996566, -1.0796356524234656 
0.46999999999996456, -1.0791544704904847 
0.47999999999996346, -1.0789410719584924 
0.48999999999996235, -1.078948215638848 
0.49999999999996125, -1.0791274938705457 
0.5099999999999602, -1.0794303586734864 
0.519999999999959, -1.0798089758070264 
0.529999999999958, -1.0802168829696825 
0.5399999999999568, -1.0806094463201479 
0.5499999999999557, -1.0809441251583907 
0.5599999999999546, -1.0811805669713728 
0.5699999999999535, -1.0812805637249396 
0.5799999999999524, -1.0812079053844135 
0.5899999999999513, -1.080928168632867 
0.5999999999999502, -1.0804084782625423 
0.6099999999999491, -1.0796172763932668 
0.619999999999948, -1.0785241310744917 
0.6299999999999469, -1.0770996113415015 
0.6399999999999458, -1.0753152506239076 
0.6499999999999447, -1.073143614588954 
0.6599999999999436, -1.0705584829851467 
0.6699999999999425, -1.0675351477549895 
0.6799999999999414, -1.0640508216030038 
0.6899999999999403, -1.0600851424923017 
0.6999999999999392, -1.0556207505857587 
0.7099999999999381, -1.050643905592611 
0.719999999999937, -1.0451451052070593 
0.7299999999999359, -1.0391196603491055 
0.7399999999999348, -1.0325681812336263 
0.7499999999999337, -1.0254969306700894 
0.7599999999999326, -1.0179180077681544 
0.7699999999999315, -1.0098493361396201 
0.7799999999999304, -1.0013144448448164 
0.7899999999999293, -0.9923420462618875 
0.7999999999999282, -0.9829654309311078 
0.8099999999999271, -0.9732217133565628 
0.819999999999926, -0.9631509731188949 
0.8299999999999249, -0.9527953413955199 
0.8399999999999238, -0.9421980837320849 
0.8499999999999227, -0.9314027260059179 
0.8599999999999216, -0.9204522628974445 
0.8699999999999205, -0.909388478129247 
0.8799999999999194, -0.8982513946439357 
0.8899999999999183, -0.8870788620525326 
0.8999999999999172, -0.8759062790986153 
0.9099999999999161, -0.8647664411990513 
0.919999999999915, -0.8536894976329752 
0.9299999999999139, -0.8427029996480139 
0.9399999999999128, -0.8318320194090683 
0.9499999999999117, -0.8210993199731831 
0.9599999999999106, -0.8105255579258479 
0.9699999999999095, -0.8001295025590446 
0.9799999999999084, -0.7899282581550285 
0.9899999999999073, -0.7799374787728606 
0.9999999999999062, -0.7701715676981361 
1.0099999999999052, -0.7606438562576189 
1.019999999999904, -0.7513667589245733 
1.029999999999903, -0.7423519034990664 
1.039999999999902, -0.7336102366278905 
1.0499999999999008, -0.7251521060444606 
1.0599999999998997, -0.7169873216911815 
1.0699999999998986, -0.7091251983771596 
1.0799999999998975, -0.7015745828698112 
1.0899999999998964, -0.6943438683681201 
1.0999999999998953, -0.6874409992041675 
1.1099999999998942, -0.680873468410332 
1.119999999999893, -0.6746483105090612 
1.129999999999892, -0.6687720915613762 
1.1399999999998909, -0.6632508981742744 
1.1499999999998898, -0.6580903268353412 
1.1599999999998887, -0.6532954746293438 
1.1699999999998876, -0.6488709321062295 
1.1799999999998865, -0.644820778818757 
1.1899999999998854, -0.6411485818341183 
1.1999999999998843, -0.6378573973479569 
1.2099999999998832, -0.6349497753901574 
1.219999999999882, -0.6324277675072117 
1.229999999999881, -0.6302929372326183 
1.2399999999998799, -0.6285463731106922 
1.2499999999998788, -0.6271887040161301 
1.2599999999998777, -0.6262201165072148 
1.2699999999998766, -0.6256403739601306 
1.2799999999998755, -0.6254488372509852 
1.2899999999998744, -0.625644486776354 
1.2999999999998733, -0.6262259456280084 
1.3099999999998722, -0.6271915037587257 
1.319999999999871, -0.6285391429893273 
1.32999999999987, -0.630266562708176 
1.3399999999998689, -0.6323712060990279 
1.3499999999998678, -0.6348502866971726 
1.3599999999998666, -0.6377008150131769 
1.3699999999998655, -0.6409196248742244 
1.3799999999998644, -0.6445033990114906 
1.3899999999998633, -0.6484486932650724 
1.3999999999998622, -0.6527519585835739 
1.4099999999998611, -0.6574095597626423 
1.41999999999986, -0.6624177895966724 
1.429999999999859, -0.6677728768141618 
1.4399999999998578, -0.6734709858369139 
1.4499999999998567, -0.6795082060577833 
1.4599999999998556, -0.6858805279874536 
1.4699999999998545, -0.6925838033004463 
1.4799999999998534, -0.6996136855435101 
1.4899999999998523, -0.7069655480924186 
1.4999999999998512, -0.7146343759001301 
1.5099999999998501, -0.7226146277214991 
1.519999999999849, -0.7309000658848157 
1.529999999999848, -0.7394835513703365 
1.5399999999998468, -0.7483568030143566 
1.5499999999998457, -0.7575101211451598 
1.5599999999998446, -0.7669320779264297 
1.5699999999998435, -0.7766091791684218 
1.5799999999998424, -0.7865255053714904 
1.5899999999998413, -0.7966623432484699 
1.5999999999998402, -0.8069978228250978 
1.6099999999998391, -0.8175065792480621 
1.619999999999838, -0.8281594623393147 
1.629999999999837, -0.838923320305247 
1.6399999999998358, -0.8497608863053759 
1.6499999999998347, -0.8606307971816476 
1.6599999999998336, -0.8714877718892741 
1.6699999999998325, -0.882282972462216 
1.6799999999998314, -0.8929645622989202 
1.6899999999998303, -0.9034784651263144 
1.6999999999998292, -0.9137693136447014 
1.709999999999828, -0.9237815606076472 
1.719999999999827, -0.9334607085558094 
1.729999999999826, -0.9427545996380198 
1.7399999999998248, -0.9516146961006916 
1.7499999999998237, -0.9599972770535274 
1.7599999999998226, -0.9678644793211595 
1.7699999999998215, -0.9751851198770073 
1.7799999999998204, -0.9819352536954847 
1.7899999999998193, -0.9880984419604266 
1.7999999999998182, -0.993665728799321 
1.809999999999817, -0.9986353471843541 
1.819999999999816, -1.0030121937285306 
1.8299999999998149, -1.006807125889271 
1.8399999999998138, -1.0100361426122864 
1.8499999999998127, -1.0127195107359888 
1.8599999999998116, -1.014880895387989 
1.8699999999998105, -1.0165465445329183 
1.8799999999998094, -1.0177445673729535 
1.8899999999998083, -1.0185043349711123 
1.8999999999998072, -1.0188560204823023 
1.909999999999806, -1.0188302865631613 
1.919999999999805, -1.0184581193069249 
1.9299999999998039, -1.0177708014818037 
1.9399999999998028, -1.0168000127504728 
1.9499999999998017, -1.0155780405716601 
1.9599999999998006, -1.0141380822358097 
1.9699999999997995, -1.0125146155989266 
1.9799999999997984, -1.0107438132796989 
1.9899999999997973, -1.0088639722429666 
1.9999999999997962, -1.006915927842917 
2.0099999999998173, -1.0049434187534083 
2.0199999999998384, -1.0029933671469764 
2.0299999999998595, -1.001116037506547 
2.0399999999998806, -0.9993650381485157 
2.0499999999999017, -0.997797132484066 
2.059999999999923, -0.9964718327320139 
2.069999999999944, -0.9954507575091218 
2.079999999999965, -0.9947967464627965 
2.089999999999986, -0.994572739522862 
2.100000000000007, -0.9948404446993783 
2.1100000000000283, -0.9956588355486329 
2.1200000000000494, -0.9970825360869953 
2.1300000000000705, -0.9991601654941515 
2.1400000000000916, -1.00193272582498 
2.1500000000001127, -1.0054321216880235 
2.160000000000134, -1.0096799002979853 
2.170000000000155, -1.0146862927904057 
2.180000000000176, -1.0204496231381248 
2.190000000000197, -1.0269561300989745 
2.2000000000002182, -1.034180221790743 
2.2100000000002393, -1.0420851538861755 
2.2200000000002604, -1.0506240937368352 
2.2300000000002815, -1.0597415068910356 
2.2400000000003026, -1.0693747822210424 
2.2500000000003237, -1.0794559993770134 
2.260000000000345, -1.089913738738044 
2.270000000000366, -1.1006748394574417 
2.280000000000387, -1.1116660244434615 
2.290000000000408, -1.122815330056539 
2.3000000000004293, -1.1340533002401736 
2.3100000000004504, -1.1453139269292358 
2.3200000000004715, -1.1565353384349935 
2.3300000000004926, -1.1676602533121254 
2.3400000000005137, -1.1786362280462863 
2.3500000000005348, -1.1894157326878072 
2.360000000000556, -1.1999560899206485 
2.370000000000577, -1.2102193110691146 
2.380000000000598, -1.220171858459479 
2.390000000000619, -1.2297843585562291 
2.4000000000006403, -1.2390312853318615 
2.4100000000006614, -1.2478906290283363 
2.4200000000006825, -1.2563435621184866 
2.4300000000007036, -1.2643741118895826 
2.4400000000007247, -1.2719688474696755 
2.450000000000746, -1.2791165880239004 
2.460000000000767, -1.2858081379699073 
2.470000000000788, -1.2920360541496332 
2.480000000000809, -1.2977944487767494 
2.49000000000083, -1.3030788305743015 
2.5000000000008513, -1.3078859848339337 
2.5100000000008724, -1.312213891253538 
2.5200000000008935, -1.3160616764926625 
2.5300000000009146, -1.3194295966127263 
2.5400000000009357, -1.3223190431444716 
2.550000000000957, -1.3247325656361408 
2.560000000000978, -1.326673903325546 
2.570000000000999, -1.3281480191175785 
2.58000000000102, -1.3291611303113633 
2.5900000000010412, -1.3297207323798934 
2.6000000000010624, -1.3298356143332535 
2.6100000000010835, -1.3295158664914366 
2.6200000000011046, -1.3287728835113501 
2.6300000000011257, -1.327619366916392 
2.6400000000011468, -1.3260693318808996 
2.650000000001168, -1.324138122439273 
2.660000000001189, -1.321842437570563 
2.67000000000121, -1.3192003678676736 
2.680000000001231, -1.316231439027935 
2.6900000000012523, -1.3129566546664484 
2.7000000000012734, -1.309398527574685 
2.7100000000012945, -1.3055810862399533 
2.7200000000013156, -1.3015298429254154 
2.7300000000013367, -1.2972717114727328 
2.740000000001358, -1.2928348675215067 
2.750000000001379, -1.2882485508700143 
2.7600000000014, -1.2835428184747903 
2.770000000001421, -1.278748265745819 
2.780000000001442, -1.2738957415158358 
2.7900000000014633, -1.2690160863600097 
2.8000000000014844, -1.2641399231020836 
2.8100000000015055, -1.2592975213992053 
2.8200000000015266, -1.2545187454187023 
2.8300000000015477, -1.2498330762810486 
2.840000000001569, -1.2452696818066333 
2.85000000000159, -1.2408574886133228 
2.860000000001611, -1.2366251993796158 
2.870000000001632, -1.2326011942087463 
2.8800000000016532, -1.2288132614548528 
2.8900000000016743, -1.225288120461419 
2.9000000000016954, -1.2220507249650359 
2.9100000000017165, -1.2191233682351528 
2.9200000000017377, -1.2165246447488565 
2.9300000000017588, -1.2142683529539182 
2.94000000000178, -1.2123624441481424 
2.950000000001801, -1.21080812946287 
2.960000000001822, -1.2095992481526485 
2.970000000001843, -1.2087219762821453 
2.9800000000018643, -1.2081549186755693 
2.9900000000018854, -1.2078695841691485 
3.0000000000019065, -1.2078312015533486 
3.0100000000019276, -1.2079997977522017 
3.0200000000019487, -1.2083314359268351 
3.03000000000197, -1.208779502029501 
3.040000000001991, -1.2092959338094809 
3.050000000002012, -1.2098323038630363 
3.060000000002033, -1.2103406938839618 
3.070000000002054, -1.210774326107218 
3.0800000000020753, -1.2110879457666825 
3.0900000000020964, -1.2112379720388988 
3.1000000000021175, -1.2111824526465844 
3.1100000000021386, -1.2108808686059709 
3.1200000000021597, -1.2102938410894373 
3.130000000002181, -1.2093827931959884 
3.140000000002202, -1.2081096169139696 
3.150000000002223, -1.20643639092637 
3.160000000002244, -1.2043251890292708 
3.1700000000022652, -1.201738012297036 
3.1800000000022863, -1.1986368708606276 
3.1900000000023074, -1.1949840331328523 
3.2000000000023285, -1.1907424512614395 
3.2100000000023496, -1.1858763613037695 
3.2200000000023707, -1.1803520450803129 
3.230000000002392, -1.174138728190108 
3.240000000002413, -1.1672095759772352 
3.250000000002434, -1.159542737437832 
3.260000000002455, -1.1511223775645512 
3.2700000000024763, -1.1419396329438773 
3.2800000000024974, -1.1319934248684729 
3.2900000000025185, -1.1212910696261098 
3.3000000000025396, -1.1098486370533087 
3.3100000000025607, -1.0976910250843201 
3.3200000000025818, -1.0848517382292195 
3.330000000002603, -1.0713723794078915 
3.340000000002624, -1.0573018848386573 
3.350000000002645, -1.042695548417461 
3.360000000002666, -1.0276138935018575 
3.3700000000026873, -1.0121214553585185 
3.3800000000027084, -0.9962855367889494 
3.3900000000027295, -0.9801749934697008 
3.4000000000027506, -0.9638590957445967 
3.4100000000027717, -0.947406501651491 
3.420000000002793, -0.9308843634729783 
3.430000000002814, -0.9143575784159891 
3.440000000002835, -0.8978881840966892 
3.450000000002856, -0.8815348918514123 
3.460000000002877, -0.8653527456418715 
3.4700000000028983, -0.8493928913072631 
3.4800000000029194, -0.833702439780154 
3.4900000000029405, -0.8183244081792195 
3.5000000000029616, -0.8032977239615633 
3.5100000000029827, -0.7886572791467261 
3.520000000003004, -0.7744340236759812 
3.530000000003025, -0.7606550889941894 
3.540000000003046, -0.7473439347728243 
3.550000000003067, -0.7345205132408823 
3.5600000000030882, -0.7222014468233231 
3.5700000000031094, -0.7104002157143825 
3.5800000000031305, -0.6991273526726773 
3.5900000000031516, -0.6883906427678608 
3.6000000000031727, -0.6781953260903286 
3.6100000000031938, -0.668544301609142 
3.620000000003215, -0.6594383304746672 
3.630000000003236, -0.6508762371477852 
3.640000000003257, -0.6428551068230348 
3.650000000003278, -0.6353704777153519 
3.6600000000032993, -0.6284165269074642 
3.6700000000033204, -0.6219862486092449 
3.6800000000033415, -0.6160716238584236 
3.6900000000033626, -0.6106637808878996 
3.7000000000033837, -0.6057531455908524 
3.710000000003405, -0.6013295817228197 
3.720000000003426, -0.597382520682351 
3.730000000003447, -0.593901080902175 
3.740000000003468, -0.5908741770558553 
3.750000000003489, -0.5882906194368871 
3.7600000000035103, -0.5861392039957452 
3.7700000000035314, -0.5844087936243375 
3.7800000000035525, -0.5830883913564592 
3.7900000000035736, -0.582167206207632 
3.8000000000035947, -0.5816347124090414 
3.810000000003616, -0.5814807027991524 
3.820000000003637, -0.5816953371238739 
3.830000000003658, -0.5822691859624289 
3.840000000003679, -0.5831932709414149 
3.8500000000037002, -0.5844591018233857 
3.8600000000037213, -0.5860587109573319 
3.8700000000037424, -0.5879846854547823 
3.8800000000037635, -0.5902301973042385 
3.8900000000037847, -0.5927890314552234 
3.9000000000038058, -0.5956556116880607 
3.910000000003827, -0.598825023833395 
3.920000000003848, -0.6022930356139418 
3.930000000003869, -0.6060561120487438 
3.94000000000389, -0.6101114249880858 
3.9500000000039113, -0.6144568549388277 
3.9600000000039324, -0.6190909829026656 
3.9700000000039535, -0.6240130694956557 
3.9800000000039746, -0.629223018163751 
3.9900000000039957, -0.634721318879588 
4.000000000004016, -0.6405089683304745 
4.010000000003993, -0.6465873623235298 
4.02000000000397, -0.652958155985295 
4.030000000003946, -0.6596230873710358 
4.040000000003923, -0.666583760381487 
4.0500000000039, -0.6738413834767291 
4.0600000000038765, -0.6813964616490381 
4.070000000003853, -0.6892484405441114 
4.08000000000383, -0.6973953035793292 
4.090000000003807, -0.7058331254692886 
4.100000000003783, -0.714555588786714 
4.11000000000376, -0.7235534740803908 
4.120000000003737, -0.7328141386010649 
4.130000000003713, -0.7423210037200014 
4.14000000000369, -0.7520530764045562 
4.150000000003667, -0.7619845352211133 
4.1600000000036434, -0.772084415666796 
4.17000000000362, -0.7823164324104614 
4.180000000003597, -0.7926389763468997 
4.1900000000035735, -0.8030053213104408 
4.20000000000355, -0.813364068072772 
4.210000000003527, -0.823659841438035 
4.220000000003504, -0.8338342400011172 
4.23000000000348, -0.8438270183723506 
4.240000000003457, -0.8535774601491746 
4.250000000003434, -0.8630258791195533 
4.26000000000341, -0.8721151690204578 
4.270000000003387, -0.8807923114841436 
4.280000000003364, -0.8890097497708729 
4.2900000000033405, -0.8967265435167333 
4.300000000003317, -0.903909236528832 
4.310000000003294, -0.910532393648157 
4.320000000003271, -0.9165787907257187 
4.330000000003247, -0.9220392701208622 
4.340000000003224, -0.9269122992905412 
4.350000000003201, -0.9312032892427882 
4.360000000003177, -0.9349237413166926 
4.370000000003154, -0.9380902946633307 
4.380000000003131, -0.9407237438034913 
4.390000000003107, -0.9428480873655962 
4.400000000003084, -0.9444896575425098 
4.410000000003061, -0.9456763668867852 
4.4200000000030375, -0.9464370964031428 
4.430000000003014, -0.9468012376336242 
4.440000000002991, -0.9467983922006825 
4.450000000002968, -0.9464582252672221 
4.460000000002944, -0.9458104644415698 
4.470000000002921, -0.9448850324298323 
4.480000000002898, -0.9437122997375443 
4.490000000002874, -0.9423234424418331 
4.500000000002851, -0.9407508890287211 
4.510000000002828, -0.9390288391311115 
4.520000000002804, -0.9371938354287923 
4.530000000002781, -0.9352853678159899 
4.540000000002758, -0.9333464861597738 
4.5500000000027345, -0.9314243946402454 
4.560000000002711, -0.9295709969728128 
4.570000000002688, -0.9278433580599936 
4.580000000002665, -0.926304044187129 
4.590000000002641, -0.9250213012066373 
4.600000000002618, -0.9240690287254228 
4.610000000002595, -0.9235265085999298 
4.620000000002571, -0.9234778485131828 
4.630000000002548, -0.9240111064830648 
4.640000000002525, -0.9252170702162802 
4.6500000000025015, -0.9271876766232392 
4.660000000002478, -0.9300140718413992 
4.670000000002455, -0.9337843309856805 
4.6800000000024315, -0.9385808795800893 
4.690000000002408, -0.9444776849049061 
4.700000000002385, -0.9515373144201886 
4.710000000002362, -0.9598079882548365 
4.720000000002338, -0.9693207806666703 
4.730000000002315, -0.9800871474366357 
4.740000000002292, -0.9920969675168431 
4.750000000002268, -1.0053172828139645 
4.760000000002245, -1.019691895480311 
4.770000000002222, -1.0351419353966973 
4.7800000000021985, -1.05156744303211 
4.790000000002175, -1.0688499301994123 
4.800000000002152, -1.0868557931523866 
4.810000000002129, -1.105440371489936 
4.820000000002105, -1.124452385260382 
4.830000000002082, -1.1437384516994054 
4.840000000002059, -1.1631473872630456 
4.850000000002035, -1.1825340386666479 
4.860000000002012, -1.201762451075808 
4.870000000001989, -1.2207082608289066 
4.880000000001965, -1.2392602811827125 
4.890000000001942, -1.257321321136485 
4.900000000001919, -1.2748083315198766 
4.9100000000018955, -1.2916520057365681 
4.920000000001872, -1.3077959754339628 
4.930000000001849, -1.323195737475793 
