t, s[1].omega / s[0].omega 
0, -0.729997680166519 
0.009999999999999995, -0.7297471542650993 
0.019999999999999934, -0.729457298438446 
0.029999999999999874, -0.7291221816345035 
0.04000000000000012, -0.7287369462556958 
0.050000000000000405, -0.7283019930130663 
0.06000000000000069, -0.7278252232847351 
0.07000000000000098, -0.7273226389135422 
0.08000000000000126, -0.7268187141342562 
0.09000000000000155, -0.7263476156937811 
0.10000000000000184, -0.7259553004700837 
0.11000000000000212, -0.7257015720895396 
0.12000000000000241, -0.7256606945057567 
0.130000000000002, -0.7259192643718326 
0.1400000000000009, -0.726570706454184 
0.1499999999999998, -0.7277066141454039 
0.1599999999999987, -0.729405507557896 
0.1699999999999976, -0.7317189117002496 
0.1799999999999965, -0.7346534943199138 
0.1899999999999954, -0.7381484779006832 
0.1999999999999943, -0.7420528276948477 
0.2099999999999932, -0.7461176036963582 
0.2199999999999921, -0.7500265317425915 
0.229999999999991, -0.7534730028879582 
0.2399999999999899, -0.7562507353294236 
0.2499999999999888, -0.7583001798527675 
0.2599999999999877, -0.7596853547889462 
0.2699999999999866, -0.7605314563323035 
0.2799999999999855, -0.7609684518115655 
0.2899999999999844, -0.7611007697509875 
0.2999999999999833, -0.760998709214854 
0.3099999999999822, -0.760700319923167 
0.3199999999999811, -0.7602158000838004 
0.32999999999998, -0.7595310810856544 
0.3399999999999789, -0.7586103940196286 
0.3499999999999778, -0.7573996299443886 
0.35999999999997667, -0.7558338872670188 
0.36999999999997557, -0.7538532780980333 
0.37999999999997447, -0.7514286779415126 
0.38999999999997337, -0.7485918872271076 
0.39999999999997227, -0.7454586761671407 
0.40999999999997117, -0.7422419974789061 
0.41999999999997006, -0.7392590528867737 
0.42999999999996896, -0.7368893014821218 
0.43999999999996786, -0.7354238043239826 
0.44999999999996676, -0.7348992399653583 
0.45999999999996566, -0.735095660535126 
0.46999999999996456, -0.7356888534876165 
0.47999999999996346, -0.7363995285244491 
0.48999999999996235, -0.7370523082151401 
0.49999999999996125, -0.7375644385331885 
0.5099999999999602, -0.737910876585208 
0.519999999999959, -0.7380929676923457 
0.529999999999958, -0.738117767308861 
0.5399999999999568, -0.7379860054212386 
0.5499999999999557, -0.7376850109326467 
0.5599999999999546, -0.7371841543174035 
0.5699999999999535, -0.7364325929269404 
0.5799999999999524, -0.73536185706057 
0.5899999999999513, -0.733898199056253 
0.5999999999999502, -0.7319884495131396 
0.6099999999999491, -0.7296341032113217 
0.619999999999948, -0.7269145385496778 
0.6299999999999469, -0.7239783636551802 
0.6399999999999458, -0.7210033618232392 
0.6499999999999447, -0.7181504023777051 
0.6599999999999436, -0.7155363918704452 
0.6699999999999425, -0.7132309944367325 
0.6799999999999414, -0.7112666744823184 
0.6899999999999403, -0.7096507330004809 
0.6999999999999392, -0.7083738909914439 
0.7099999999999381, -0.7074150090588757 
0.719999999999937, -0.7067436707353825 
0.7299999999999359, -0.7063224183838348 
0.7399999999999348, -0.7061095717579794 
0.7499999999999337, -0.7060625940609451 
0.7599999999999326, -0.7061413861418099 
0.7699999999999315, -0.7063108522928239 
0.7799999999999304, -0.7065424281610365 
0.7899999999999293, -0.7068146291601073 
0.7999999999999282, -0.7071127406182425 
0.8099999999999271, -0.7074274770719058 
0.819999999999926, -0.7077521580706831 
0.8299999999999249, -0.7080783375049674 
0.8399999999999238, -0.7083911706174636 
0.8499999999999227, -0.7086672414007302 
0.8599999999999216, -0.7088773150917003 
0.8699999999999205, -0.7089936368932992 
0.8799999999999194, -0.7089978779698933 
0.8899999999999183, -0.7088852124183922 
0.8999999999999172, -0.7086632187359149 
0.9099999999999161, -0.7083480571127694 
0.919999999999915, -0.7079614752573162 
0.9299999999999139, -0.7075309597063695 
0.9399999999999128, -0.707093826857961 
0.9499999999999117, -0.7067052380076719 
0.9599999999999106, -0.7064496605581368 
0.9699999999999095, -0.7064544060888794 
0.9799999999999084, -0.7069020125909882 
0.9899999999999073, -0.7080352951051404 
0.9999999999999062, -0.7101452321055626 
1.0099999999999052, -0.713528594064696 
1.019999999999904, -0.7184027716860355 
1.029999999999903, -0.7247787587032986 
1.039999999999902, -0.7323331325615902 
1.0499999999999008, -0.7403780389560993 
1.0599999999998997, -0.7480301622210861 
1.0699999999998986, -0.7545366210482595 
1.0799999999998975, -0.7595339430235855 
1.0899999999998964, -0.7630611765949558 
1.0999999999998953, -0.7653879300079962 
1.1099999999998942, -0.7668325632025128 
1.119999999999893, -0.7676626531047736 
1.129999999999892, -0.7680683080866141 
1.1399999999998909, -0.7681696463789468 
1.1499999999998898, -0.7680318097017869 
1.1599999999998887, -0.7676762578570794 
1.1699999999998876, -0.7670850938478254 
1.1799999999998865, -0.7661977617450769 
1.1899999999998854, -0.7649000344678795 
1.1999999999998843, -0.763006536540997 
1.2099999999998832, -0.7602435570447769 
1.219999999999882, -0.7562533671238836 
1.229999999999881, -0.7506645449598313 
1.2399999999998799, -0.7432773457474978 
1.2499999999998788, -0.7343297572797743 
1.2599999999998777, -0.7246340683595909 
1.2699999999998766, -0.7153484557737321 
1.2799999999998755, -0.7074818254360109 
1.2899999999998744, -0.7015302316019283 
1.2999999999998733, -0.6974639628204045 
1.3099999999998722, -0.6949381989840274 
1.319999999999871, -0.6935160500452009 
1.32999999999987, -0.69280481065799 
1.3399999999998689, -0.6925069987796031 
1.3499999999998678, -0.6924205795224138 
1.3599999999998666, -0.6924183418293277 
1.3699999999998655, -0.6924237108586627 
1.3799999999998644, -0.6923903812520305 
1.3899999999998633, -0.692287682312771 
1.3999999999998622, -0.6920914090893123 
1.4099999999998611, -0.6917795442050308 
1.41999999999986, -0.6913326167688004 
1.429999999999859, -0.6907382442467648 
1.4399999999998578, -0.6899978451013125 
1.4499999999998567, -0.6891312257264386 
1.4599999999998556, -0.6881745293425723 
1.4699999999998545, -0.6871710619853674 
1.4799999999998534, -0.6861600004585284 
1.4899999999998523, -0.6851693296720213 
1.4999999999998512, -0.6842155353476478 
1.5099999999998501, -0.6833080353542635 
1.519999999999849, -0.6824547557212111 
1.529999999999848, -0.6816664137022302 
1.5399999999998468, -0.6809588594428438 
1.5499999999998457, -0.680353829929668 
1.5599999999998446, -0.6798785864577732 
1.5699999999998435, -0.6795646983282303 
1.5799999999998424, -0.679446155310696 
1.5899999999998413, -0.6795571194429952 
1.5999999999998402, -0.6799297749914057 
1.6099999999998391, -0.6805926581098063 
1.619999999999838, -0.6815694091660871 
1.629999999999837, -0.682877138760228 
1.6399999999998358, -0.6845227760000692 
1.6499999999998347, -0.6864953916571422 
1.6599999999998336, -0.6887535552536279 
1.6699999999998325, -0.691210646949903 
1.6799999999998314, -0.6937276833144742 
1.6899999999998303, -0.6961274514723301 
1.6999999999998292, -0.6982352563968036 
1.709999999999828, -0.6999290418746535 
1.719999999999827, -0.7011673948569187 
1.729999999999826, -0.7019800071824315 
1.7399999999998248, -0.7024346881520417 
1.7499999999998237, -0.7026049633137393 
1.7599999999998226, -0.7025506981910168 
1.7699999999998215, -0.7023109206582352 
1.7799999999998204, -0.701903258835433 
1.7899999999998193, -0.7013255295064946 
1.7999999999998182, -0.7005574571050479 
1.809999999999817, -0.6995623837212721 
1.819999999999816, -0.6982899269263639 
1.8299999999998149, -0.6966806945456475 
1.8399999999998138, -0.6946726508188307 
1.8499999999998127, -0.6922057821918323 
1.8599999999998116, -0.6892241153104166 
1.8699999999998105, -0.685696509920972 
1.8799999999998094, -0.6817034055875753 
1.8899999999998083, -0.6775660327949357 
1.8999999999998072, -0.6738298273964557 
1.909999999999806, -0.6709945435389193 
1.919999999999805, -0.6692401863028447 
1.9299999999998039, -0.6684155029535217 
1.9399999999998028, -0.6682164352179891 
1.9499999999998017, -0.6683514609020169 
1.9599999999998006, -0.6686122991252362 
1.9699999999997995, -0.6688753402491668 
1.9799999999997984, -0.6690770833313686 
1.9899999999997973, -0.6691883722757322 
1.9999999999997962, -0.6691953878153094 
2.0099999999998173, -0.6690875339538043 
2.0199999999998384, -0.6688503774784507 
2.0299999999998595, -0.6684623464601233 
2.0399999999998806, -0.6678952435485439 
2.0499999999999017, -0.6671197398485773 
2.059999999999923, -0.6661165238801391 
2.069999999999944, -0.6648903448132395 
2.079999999999965, -0.6634791982645771 
2.089999999999986, -0.6619503305719057 
2.100000000000007, -0.6603829167995833 
2.1100000000000283, -0.6588475924095462 
2.1200000000000494, -0.6573942020454712 
2.1300000000000705, -0.6560511035360962 
2.1400000000000916, -0.6548317898252518 
2.1500000000001127, -0.6537429773300312 
2.160000000000134, -0.6527906505650386 
2.170000000000155, -0.6519832161715706 
2.180000000000176, -0.6513323246239939 
2.190000000000197, -0.6508522376142651 
2.2000000000002182, -0.6505584975404595 
2.2100000000002393, -0.6504664944898143 
2.2200000000002604, -0.6505903961484747 
2.2300000000002815, -0.6509427241404941 
2.2400000000003026, -0.6515345543083052 
2.2500000000003237, -0.6523758818143343 
2.260000000000345, -0.6534751654419562 
2.270000000000366, -0.6548365545989455 
2.280000000000387, -0.6564531341507401 
2.290000000000408, -0.6582954925782237 
2.3000000000004293, -0.6602981738927758 
2.3100000000004504, -0.6623521057885341 
2.3200000000004715, -0.6643146387897357 
2.3300000000004926, -0.6660419699517612 
2.3400000000005137, -0.6674303408899365 
2.3500000000005348, -0.6684403816771697 
2.360000000000556, -0.6690912166444662 
2.370000000000577, -0.6694346643700856 
2.380000000000598, -0.6695287012389788 
2.390000000000619, -0.6694207829004905 
2.4000000000006403, -0.669140956541673 
2.4100000000006614, -0.6687004729440138 
2.4200000000006825, -0.6680921731354138 
2.4300000000007036, -0.6672906988603463 
2.4400000000007247, -0.6662518820461748 
2.450000000000746, -0.6649111622800856 
2.460000000000767, -0.6631804628279445 
2.470000000000788, -0.6609419564655659 
2.480000000000809, -0.6580392647725524 
2.49000000000083, -0.6542835686165025 
2.5000000000008513, -0.6495298500827242 
2.5100000000008724, -0.6438720470000998 
2.5200000000008935, -0.6378307373889356 
2.5300000000009146, -0.6322342416131365 
2.5400000000009357, -0.6277837957613351 
2.550000000000957, -0.6247294652321577 
2.560000000000978, -0.6229100364340125 
2.570000000000999, -0.6219822069123289 
2.58000000000102, -0.6216070578642461 
2.5900000000010412, -0.6215285575982089 
2.6000000000010624, -0.6215799628041229 
2.6100000000010835, -0.6216625559847977 
2.6200000000011046, -0.6217211300856678 
2.6300000000011257, -0.6217247157785586 
2.6400000000011468, -0.6216536408403652 
2.650000000001168, -0.6214918118696292 
2.660000000001189, -0.6212231661570831 
2.67000000000121, -0.6208319233765783 
2.680000000001231, -0.6203065459220236 
2.6900000000012523, -0.6196463480818937 
2.7000000000012734, -0.6188674560668528 
2.7100000000012945, -0.6180033383077432 
2.7200000000013156, -0.6170974381954472 
2.7300000000013367, -0.6161911045522463 
2.740000000001358, -0.6153136751609043 
2.750000000001379, -0.6144794748473876 
2.7600000000014, -0.6136913829155346 
2.770000000001421, -0.6129473611210173 
2.780000000001442, -0.612246447508558 
2.7900000000014633, -0.611592672142449 
2.8000000000014844, -0.6109971506531737 
2.8100000000015055, -0.6104793264800323 
2.8200000000015266, -0.6100681424842744 
2.8300000000015477, -0.6098034299781745 
2.840000000001569, -0.6097374239411562 
2.85000000000159, -0.609936137668204 
2.860000000001611, -0.6104802419642473 
2.870000000001632, -0.611464863328861 
2.8800000000016532, -0.6129970258664256 
2.8900000000016743, -0.6151879957229388 
2.9000000000016954, -0.6181356054572216 
2.9100000000017165, -0.6218902291533716 
2.9200000000017377, -0.6264021232023552 
2.9300000000017588, -0.6314648211340669 
2.94000000000178, -0.6366981824715718 
2.950000000001801, -0.6416233712871857 
2.960000000001822, -0.645822182614909 
2.970000000001843, -0.6490784813899699 
2.9800000000018643, -0.6514007308753886 
2.9900000000018854, -0.6529383731695264 
3.0000000000019065, -0.6538796417973222 
3.0100000000019276, -0.6543885201594088 
3.0200000000019487, -0.6545832254087969 
3.03000000000197, -0.654536639035072 
3.040000000001991, -0.654282579388082 
3.050000000002012, -0.6538199647749029 
3.060000000002033, -0.6531118295432148 
3.070000000002054, -0.6520781608027053 
3.0800000000020753, -0.6505830338794261 
3.0900000000020964, -0.6484207085525521 
3.1000000000021175, -0.6453161831664964 
3.1100000000021386, -0.6409731247004019 
3.1200000000021597, -0.6352052589627554 
3.130000000002181, -0.6281269436961593 
3.140000000002202, -0.6202574511232194 
3.150000000002223, -0.6123824234504045 
3.160000000002244, -0.6052385017467217 
3.1700000000022652, -0.5992716999359885 
3.1800000000022863, -0.5946036888783428 
3.1900000000023074, -0.5911345677929478 
3.2000000000023285, -0.5886635166639393 
3.2100000000023496, -0.5869707391771958 
3.2200000000023707, -0.5858580981452505 
3.230000000002392, -0.5851632585112981 
3.240000000002413, -0.584760559480566 
3.250000000002434, -0.5845564531664088 
3.260000000002455, -0.584483387646176 
3.2700000000024763, -0.5844938942266202 
3.2800000000024974, -0.5845556631909629 
3.2900000000025185, -0.58464794428917 
3.3000000000025396, -0.5847592985604494 
3.3100000000025607, -0.584886318831827 
3.3200000000025818, -0.5850323765505607 
3.330000000002603, -0.5852050442363695 
3.340000000002624, -0.5854112179724658 
3.350000000002645, -0.5856505089176157 
3.360000000002666, -0.5859095606931342 
3.3700000000026873, -0.5861609603707107 
3.3800000000027084, -0.5863687911943318 
3.3900000000027295, -0.5864988049906241 
3.4000000000027506, -0.5865277046553455 
3.4100000000027717, -0.5864467466567833 
3.420000000002793, -0.5862592865263474 
3.430000000002814, -0.5859755655633874 
3.440000000002835, -0.5856083331503087 
3.450000000002856, -0.5851711982581902 
3.460000000002877, -0.5846802131964179 
3.4700000000028983, -0.5841589064298972 
3.4800000000029194, -0.5836473647337406 
3.4900000000029405, -0.5832161801949923 
3.5000000000029616, -0.5829848658299639 
3.5100000000029827, -0.583139374741951 
3.520000000003004, -0.5839312912066186 
3.530000000003025, -0.5856228578353908 
3.540000000003046, -0.5883400095952982 
3.550000000003067, -0.5918710139289615 
3.5600000000030882, -0.5956141450081964 
3.5700000000031094, -0.598879896782837 
3.5800000000031305, -0.6013285033427709 
3.5900000000031516, -0.6030547941691338 
3.6000000000031727, -0.6043167926750133 
3.6100000000031938, -0.605303928329324 
3.620000000003215, -0.6060990766814591 
3.630000000003236, -0.6067279562154535 
3.640000000003257, -0.6072007448868958 
3.650000000003278, -0.6075277985846583 
3.6600000000032993, -0.6077207414914837 
3.6700000000033204, -0.6077891487307345 
3.6800000000033415, -0.6077371712311466 
3.6900000000033626, -0.6075612224672948 
3.7000000000033837, -0.6072490294083619 
3.710000000003405, -0.6067807367760162 
3.720000000003426, -0.606133407552895 
3.730000000003447, -0.6052900602571023 
3.740000000003468, -0.6042519650814298 
3.750000000003489, -0.6030484898834836 
3.7600000000035103, -0.6017365569172092 
3.7700000000035314, -0.6003869923401555 
3.7800000000035525, -0.5990649921418876 
3.7900000000035736, -0.5978160734921192 
3.8000000000035947, -0.5966631811715702 
3.810000000003616, -0.5956124928615261 
3.820000000003637, -0.5946621767401882 
3.830000000003658, -0.5938098342193248 
3.840000000003679, -0.5930571727622674 
3.8500000000037002, -0.5924123381998644 
3.8600000000037213, -0.5918909055550043 
3.8700000000037424, -0.591516318338009 
3.8800000000037635, -0.5913201820296686 
3.8900000000037847, -0.5913425606598183 
3.9000000000038058, -0.5916323098991164 
3.910000000003827, -0.5922473651471376 
3.920000000003848, -0.5932545854915732 
3.930000000003869, -0.5947280107639923 
3.94000000000389, -0.5967430565816857 
3.9500000000039113, -0.5993624561795613 
3.9600000000039324, -0.6026090556180544 
3.9700000000039535, -0.6064246926985931 
3.9800000000039746, -0.6106286196734568 
3.9900000000039957, -0.6149104244858629 
4.000000000004016, -0.6188945633138079 
4.010000000003993, -0.6222638604061426 
4.02000000000397, -0.624861837524797 
4.030000000003946, -0.6267032462325344 
4.040000000003923, -0.6279079217567758 
4.0500000000039, -0.6286233558907874 
4.0600000000038765, -0.6289770297515813 
4.070000000003853, -0.6290595435995812 
4.08000000000383, -0.6289239773597501 
4.090000000003807, -0.6285893630560355 
4.100000000003783, -0.6280419801822835 
4.11000000000376, -0.6272317720948333 
4.120000000003737, -0.6260628786596107 
4.130000000003713, -0.6243793776310209 
4.14000000000369, -0.6219533358874155 
4.150000000003667, -0.6184960706281455 
4.1600000000036434, -0.6137307715174846 
4.17000000000362, -0.6075527658366365 
4.180000000003597, -0.6002134325904377 
4.1900000000035735, -0.5923505014632718 
4.20000000000355, -0.5847623087811393 
4.210000000003527, -0.5780879506589504 
4.220000000003504, -0.5726401045566261 
4.23000000000348, -0.56844000937326 
4.240000000003457, -0.5653403010259733 
4.250000000003434, -0.5631333865248419 
4.26000000000341, -0.5616144050017053 
4.270000000003387, -0.560607832063373 
4.280000000003364, -0.5599738822134365 
4.2900000000033405, -0.5596060434414866 
4.300000000003317, -0.559425680886277 
4.310000000003294, -0.5593763403459565 
4.320000000003271, -0.5594187885077532 
4.330000000003247, -0.559527158226148 
4.340000000003224, -0.5596862660457249 
4.350000000003201, -0.5598899009573192 
4.360000000003177, -0.5601394773048073 
4.370000000003154, -0.560441958209612 
4.380000000003131, -0.5608057854094008 
4.390000000003107, -0.5612342892670609 
4.400000000003084, -0.5617179241742207 
4.410000000003061, -0.5622289298090033 
4.4200000000030375, -0.5627228056741618 
4.430000000003014, -0.5631482562040677 
4.440000000002991, -0.5634614824109538 
4.450000000002968, -0.563636801486241 
4.460000000002944, -0.563668277501128 
4.470000000002921, -0.563563739206389 
4.480000000002898, -0.5633364254056616 
4.490000000002874, -0.5629984204594534 
4.500000000002851, -0.5625571678276456 
4.510000000002828, -0.5620145524711304 
4.520000000002804, -0.5613676708358157 
4.530000000002781, -0.5606105578733528 
4.540000000002758, -0.5597357972671563 
4.5500000000027345, -0.5587329889838457 
4.560000000002711, -0.5575763595865866 
4.570000000002688, -0.5561881944030673 
4.580000000002665, -0.5543731872810954 
4.590000000002641, -0.5517765937560178 
4.600000000002618, -0.5480165077318697 
4.610000000002595, -0.5430630708312905 
4.620000000002571, -0.5375153042768945 
4.630000000002548, -0.5323152311418985 
4.640000000002525, -0.5281601439179704 
4.6500000000025015, -0.5252418097360746 
4.660000000002478, -0.5233903877848662 
4.670000000002455, -0.5223123934062895 
4.6800000000024315, -0.5217357971880067 
4.690000000002408, -0.5214577520183897 
4.700000000002385, -0.5213427836343141 
4.710000000002362, -0.5213058216840162 
4.720000000002338, -0.5212950771899357 
4.730000000002315, -0.5212791053600307 
4.740000000002292, -0.5212383252443882 
4.750000000002268, -0.5211602631413407 
4.760000000002245, -0.5210377960463719 
4.770000000002222, -0.5208696914599266 
4.7800000000021985, -0.5206623021721289 
4.790000000002175, -0.5204304822025965 
4.800000000002152, -0.5201955297444799 
4.810000000002129, -0.5199793047720622 
4.820000000002105, -0.5197963279792213 
4.830000000002082, -0.5196476368206483 
4.840000000002059, -0.5195197377067413 
4.850000000002035, -0.5193893745956683 
4.860000000002012, -0.5192316502029967 
4.870000000001989, -0.5190273361265525 
4.880000000001965, -0.5187663170952604 
4.890000000001942, -0.5184470515252564 
4.900000000001919, -0.5180741494626293 
4.9100000000018955, -0.5176564079336833 
4.920000000001872, -0.5172067428522699 
