t, s[1].omega / s[0].omega 
0, -1.3199951771965006 
0.009999999999999995, -1.3193213864649966 
0.019999999999999934, -1.3182690457650876 
0.029999999999999874, -1.3168399895328524 
0.04000000000000012, -1.31503754231548 
0.050000000000000405, -1.312867211320887 
0.06000000000000069, -1.3103375533475907 
0.07000000000000098, -1.3074611339616646 
0.08000000000000126, -1.3042554880895416 
0.09000000000000155, -1.3007439980531117 
0.10000000000000184, -1.2969566560376473 
0.11000000000000212, -1.292930802225104 
0.12000000000000241, -1.2887121099855323 
0.130000000000002, -1.284356210386416 
0.1400000000000009, -1.279931200644122 
0.1499999999999998, -1.2755206746655403 
0.1599999999999987, -1.2712258796792109 
0.1699999999999976, -1.267164565797146 
0.1799999999999965, -1.2634638456827034 
0.1899999999999954, -1.260245718471935 
0.1999999999999943, -1.2576069729910477 
0.2099999999999932, -1.2555988149010802 
0.2199999999999921, -1.2542134784096477 
0.229999999999991, -1.2533833544322228 
0.2399999999999899, -1.2529931325376749 
0.2499999999999888, -1.2529000113054884 
0.2599999999999877, -1.2529544524243288 
0.2699999999999866, -1.2530152548197893 
0.2799999999999855, -1.252956265554948 
0.2899999999999844, -1.252665371994935 
0.2999999999999833, -1.252038140589711 
0.3099999999999822, -1.2509686289285593 
0.3199999999999811, -1.2493392731740922 
0.32999999999998, -1.2470110815298872 
0.3399999999999789, -1.2438150406370418 
0.3499999999999778, -1.2395457483964596 
0.35999999999997667, -1.233958709948507 
0.36999999999997557, -1.2267732267146614 
0.37999999999997447, -1.2176830101804914 
0.38999999999997337, -1.2063761413997767 
0.39999999999997227, -1.1925644653370153 
0.40999999999997117, -1.176020038703174 
0.41999999999997006, -1.1566135251349599 
0.42999999999996896, -1.1343476034604023 
0.43999999999996786, -1.1093785528379532 
0.44999999999996676, -1.0820213952439406 
0.45999999999996566, -1.0527374341178375 
0.46999999999996456, -1.022106325701367 
0.47999999999996346, -0.9907869300251546 
0.48999999999996235, -0.9594719609801541 
0.49999999999996125, -0.9288413838763641 
0.5099999999999602, -0.8995191226121116 
0.519999999999959, -0.8720370903950074 
0.529999999999958, -0.8468096807361518 
0.5399999999999568, -0.8241204970505006 
0.5499999999999557, -0.8041213856426969 
0.5599999999999546, -0.7868421602954032 
0.5699999999999535, -0.7722081999128291 
0.5799999999999524, -0.7600626051365379 
0.5899999999999513, -0.7501897839707606 
0.5999999999999502, -0.7423379737125074 
0.6099999999999491, -0.7362390191040716 
0.619999999999948, -0.731624497955676 
0.6299999999999469, -0.7282379013911149 
0.6399999999999458, -0.725843009268017 
0.6499999999999447, -0.7242288740766908 
0.6599999999999436, -0.7232119757985017 
0.6699999999999425, -0.72263616955837 
0.6799999999999414, -0.722371042955154 
0.6899999999999403, -0.7223092501342099 
0.6999999999999392, -0.7223633116260274 
0.7099999999999381, -0.7224622780179117 
0.719999999999937, -0.7225485649061774 
0.7299999999999359, -0.7225751856959036 
0.7399999999999348, -0.7225035415227711 
0.7499999999999337, -0.7223018713545593 
0.7599999999999326, -0.7219444118866213 
0.7699999999999315, -0.721411254540602 
0.7799999999999304, -0.7206888056212435 
0.7899999999999293, -0.7197706541302464 
0.7999999999999282, -0.7186585446629309 
0.8099999999999271, -0.7173630738365059 
0.819999999999926, -0.715903722118186 
0.8299999999999249, -0.7143079326843186 
0.8399999999999238, -0.7126091528135645 
0.8499999999999227, -0.7108440100547878 
0.8599999999999216, -0.7090490202750646 
0.8699999999999205, -0.707257339817358 
0.8799999999999194, -0.7054960484585628 
0.8899999999999183, -0.7037843115169993 
0.8999999999999172, -0.7021325820635884 
0.9099999999999161, -0.7005428293956497 
0.919999999999915, -0.6990096511708714 
0.9299999999999139, -0.6975220473860784 
0.9399999999999128, -0.6960655939094661 
0.9499999999999117, -0.6946247430940161 
0.9599999999999106, -0.6931849990474778 
0.9699999999999095, -0.6917347680714244 
0.9799999999999084, -0.6902667663781008 
0.9899999999999073, -0.6887789618677032 
0.9999999999999062, -0.68727511196701 
1.0099999999999052, -0.6857650154866077 
1.019999999999904, -0.684264614084252 
1.029999999999903, -0.6827960616772835 
1.039999999999902, -0.6813878399366265 
1.0499999999999008, -0.6800749489923925 
1.0599999999998997, -0.6788991563714241 
1.0699999999998986, -0.6779092512808088 
1.0799999999998975, -0.6771612289812966 
1.0899999999998964, -0.6767183218296339 
1.0999999999998953, -0.6766507987551474 
1.1099999999998942, -0.6770354716363001 
1.119999999999893, -0.677954872489672 
1.129999999999892, -0.6794960957969356 
1.1399999999998909, -0.681749330993294 
1.1499999999998898, -0.6848061359854123 
1.1599999999998887, -0.6887575186719201 
1.1699999999998876, -0.6936918959211175 
1.1799999999998865, -0.6996929859933048 
1.1899999999998854, -0.7068376604534636 
1.1999999999998843, -0.7151937364786363 
1.2099999999998832, -0.7248176332279535 
1.219999999999882, -0.7357517519921464 
1.229999999999881, -0.7480213780895927 
1.2399999999998799, -0.761630857716207 
1.2499999999998788, -0.7765587991572623 
1.2599999999998777, -0.792752121412506 
1.2699999999998766, -0.810118974037723 
1.2799999999998755, -0.8285209351465197 
1.2899999999998744, -0.8477654962106168 
1.2999999999998733, -0.8676006287309586 
1.3099999999998722, -0.8877140208952359 
1.319999999999871, -0.9077399878696797 
1.32999999999987, -0.9272765453945041 
1.3399999999998689, -0.945913218773645 
1.3499999999998678, -0.9632668993514495 
1.3599999999998666, -0.9790194571006702 
1.3699999999998655, -0.9929486540112946 
1.3799999999998644, -1.0049447648192678 
1.3899999999998633, -1.0150093187168345 
1.3999999999998622, -1.023237779032216 
1.4099999999998611, -1.029792218739797 
1.41999999999986, -1.0348714542059618 
1.429999999999859, -1.0386847527591436 
1.4399999999998578, -1.041432483435855 
1.4499999999998567, -1.043294423941202 
1.4599999999998556, -1.0444247187051179 
1.4699999999998545, -1.0449518181075206 
1.4799999999998534, -1.0449818133942608 
1.4899999999998523, -1.0446040262149132 
1.4999999999998512, -1.043898215962696 
1.5099999999998501, -1.0429431478381137 
1.519999999999849, -1.0418264090246034 
1.529999999999848, -1.0406551884512927 
1.5399999999998468, -1.0395671898164671 
1.5499999999998457, -1.0387399450384402 
1.5599999999998446, -1.0383957304992268 
1.5699999999998435, -1.0387985312867019 
1.5799999999998424, -1.040239765550453 
1.5899999999998413, -1.043011440154624 
1.5999999999998402, -1.047369125177381 
1.6099999999998391, -1.0534915727907763 
1.619999999999838, -1.0614469292595172 
1.629999999999837, -1.0711752514220418 
1.6399999999998358, -1.0824928077538631 
1.6499999999998347, -1.0951169606730198 
1.6599999999998336, -1.108704302904012 
1.6699999999998325, -1.122891826895474 
1.6799999999998314, -1.1373320145956258 
1.6899999999998303, -1.151716561563359 
1.6999999999998292, -1.1657878047958103 
1.709999999999828, -1.1793400899979378 
1.719999999999827, -1.1922146967588656 
1.729999999999826, -1.2042918694025608 
1.7399999999998248, -1.2154826616622316 
1.7499999999998237, -1.2257222741699454 
1.7599999999998226, -1.2349656484760991 
1.7699999999998215, -1.2431853577712764 
1.7799999999998204, -1.2503712872498627 
1.7899999999998193, -1.2565312253823997 
1.7999999999998182, -1.2616913389277744 
1.809999999999817, -1.2658956347846566 
1.819999999999816, -1.269203910622424 
1.8299999999998149, -1.2716882458903376 
1.8399999999998138, -1.2734285933691385 
1.8499999999998127, -1.2745083256105738 
1.8599999999998116, -1.2750105995814953 
1.8699999999998105, -1.2750161724963263 
1.8799999999998094, -1.2746029387944235 
1.8899999999998083, -1.2738470559974457 
1.8999999999998072, -1.2728251310556926 
1.909999999999806, -1.271616571214885 
1.919999999999805, -1.2703049300441271 
1.9299999999998039, -1.2689770608289852 
1.9399999999998028, -1.2677193424787625 
1.9499999999998017, -1.2666112585114013 
1.9599999999998006, -1.2657179110077752 
1.9699999999997995, -1.2650839480339728 
1.9799999999997984, -1.2647311507505836 
1.9899999999997973, -1.2646604413913085 
1.9999999999997962, -1.2648570954931875 
2.0099999999998173, -1.2652966438891968 
2.0199999999998384, -1.2659490579164117 
2.0299999999998595, -1.2667801304205002 
2.0399999999998806, -1.267750619288986 
2.0499999999999017, -1.268814776684184 
2.059999999999923, -1.269919886942179 
2.069999999999944, -1.2710075738213522 
2.079999999999965, -1.2720165540754698 
2.089999999999986, -1.2728858464991024 
2.100000000000007, -1.2735574441136799 
2.1100000000000283, -1.2739779309962658 
2.1200000000000494, -1.2740990881797383 
2.1300000000000705, -1.2738778897174434 
2.1400000000000916, -1.2732763545839767 
2.1500000000001127, -1.2722615670977326 
2.160000000000134, -1.2708059399708251 
2.170000000000155, -1.268887587214121 
2.180000000000176, -1.2664905725030735 
2.190000000000197, -1.263604825083369 
2.2000000000002182, -1.2602256440092348 
2.2100000000002393, -1.2563528810462605 
2.2200000000002604, -1.2519900325468611 
2.2300000000002815, -1.2471435323713633 
2.2400000000003026, -1.2418225130917622 
2.2500000000003237, -1.236039220258393 
2.260000000000345, -1.2298101713237806 
2.270000000000366, -1.223158088016488 
2.280000000000387, -1.2161146145825488 
2.290000000000408, -1.208723841670059 
2.3000000000004293, -1.2010466177964911 
2.3100000000004504, -1.1931654399891072 
2.3200000000004715, -1.185189268150547 
2.3300000000004926, -1.1772568906983594 
2.3400000000005137, -1.1695366745361315 
2.3500000000005348, -1.162220128197948 
2.360000000000556, -1.155507339517755 
2.370000000000577, -1.149584478618 
2.380000000000598, -1.1445968982921886 
2.390000000000619, -1.1406245390480447 
2.4000000000006403, -1.1376673333240548 
2.4100000000006614, -1.1356457953504546 
2.4200000000006825, -1.1344167174223392 
2.4300000000007036, -1.1337985446351417 
2.4400000000007247, -1.1335983674012622 
2.450000000000746, -1.1336334964808552 
2.460000000000767, -1.1337439849116897 
2.470000000000788, -1.1337960494177257 
2.480000000000809, -1.1336785948290538 
2.49000000000083, -1.133295668695776 
2.5000000000008513, -1.1325572162483697 
2.5100000000008724, -1.1313696908507365 
2.5200000000008935, -1.1296274041886478 
2.5300000000009146, -1.12720518670354 
2.5400000000009357, -1.1239529854330754 
2.550000000000957, -1.1196933566557383 
2.560000000000978, -1.1142232377693944 
2.570000000000999, -1.1073216367382166 
2.58000000000102, -1.0987646009236711 
2.5900000000010412, -1.088347680176279 
2.6000000000010624, -1.0759140042249613 
2.6100000000010835, -1.06138352990273 
2.6200000000011046, -1.044777081280986 
2.6300000000011257, -1.026228786694888 
2.6400000000011468, -1.005983000339854 
2.650000000001168, -0.9843760196985837 
2.660000000001189, -0.9618070224134172 
2.67000000000121, -0.9387048539790792 
2.680000000001231, -0.9154969696889698 
2.6900000000012523, -0.8925846802966485 
2.7000000000012734, -0.8703262022722966 
2.7100000000012945, -0.8490269512222495 
2.7200000000013156, -0.8289354629061713 
2.7300000000013367, -0.8102431481528892 
2.740000000001358, -0.7930864166715335 
2.750000000001379, -0.7775501921259903 
2.7600000000014, -0.763672270022225 
2.770000000001421, -0.7514482551536226 
2.780000000001442, -0.7408369565017461 
2.7900000000014633, -0.7317661534407445 
2.8000000000014844, -0.7241386239514912 
2.8100000000015055, -0.717838281150636 
2.8200000000015266, -0.712736224003082 
2.8300000000015477, -0.7086964856599921 
2.840000000001569, -0.7055812644775391 
2.85000000000159, -0.7032554490969122 
2.860000000001611, -0.7015902968530288 
2.870000000001632, -0.700466188072367 
2.8800000000016532, -0.6997744491972394 
2.8900000000016743, -0.699418305965921 
2.9000000000016954, -0.6993130857780772 
2.9100000000017165, -0.699385830007468 
2.9200000000017377, -0.6995744997722895 
2.9300000000017588, -0.6998269629409353 
2.94000000000178, -0.7000999381825607 
2.950000000001801, -0.7003580461574017 
2.960000000001822, -0.7005730799302838 
2.970000000001843, -0.7007235565443634 
2.9800000000018643, -0.7007945495799517 
2.9900000000018854, -0.7007777313982029 
3.0000000000019065, -0.7006714826013581 
3.0100000000019276, -0.7004808715222456 
3.0200000000019487, -0.7002172894238674 
3.03000000000197, -0.6998975649356395 
3.040000000001991, -0.6995424765627067 
3.050000000002012, -0.6991747154276086 
3.060000000002033, -0.6988164843980103 
3.070000000002054, -0.6984870148252891 
3.0800000000020753, -0.6982003148816494 
3.0900000000020964, -0.6979634355711279 
3.1000000000021175, -0.6977754717886238 
3.1100000000021386, -0.6976274281269966 
3.1200000000021597, -0.6975029833610307 
3.130000000002181, -0.6973800836615249 
3.140000000002202, -0.6972331835456907 
3.150000000002223, -0.6970358501357127 
3.160000000002244, -0.696763380798905 
3.1700000000022652, -0.6963950886235227 
3.1800000000022863, -0.6959159967671469 
3.1900000000023074, -0.6953178314762954 
3.2000000000023285, -0.6945993686698094 
3.2100000000023496, -0.6937663207371493 
3.2200000000023707, -0.6928310175625693 
3.230000000002392, -0.6918121355601862 
3.240000000002413, -0.6907346791541857 
3.250000000002434, -0.6896303467644106 
3.260000000002455, -0.6885383395166518 
3.2700000000024763, -0.68750660717382 
3.2800000000024974, -0.6865934745889977 
3.2900000000025185, -0.6858695504006354 
3.3000000000025396, -0.6854197834605269 
3.3100000000025607, -0.6853454985694306 
3.3200000000025818, -0.6857662105813125 
3.330000000002603, -0.6868209856305236 
3.340000000002624, -0.6886690915575668 
3.350000000002645, -0.6914896574862349 
3.360000000002666, -0.6954800449615618 
3.3700000000026873, -0.7008526200819943 
3.3800000000027084, -0.7078296099693527 
3.3900000000027295, -0.7166357358100723 
3.4000000000027506, -0.7274883557298912 
3.4100000000027717, -0.7405849513327044 
3.420000000002793, -0.7560879862844266 
3.430000000002814, -0.7741074860510263 
3.440000000002835, -0.7946821495730995 
3.450000000002856, -0.8177603860229086 
3.460000000002877, -0.843183304677974 
3.4700000000028983, -0.870672257121739 
3.4800000000029194, -0.8998238892786208 
3.4900000000029405, -0.9301156456143286 
3.5000000000029616, -0.9609241188345263 
3.5100000000029827, -0.9915573961887668 
3.520000000003004, -1.0213004907485375 
3.530000000003025, -1.0494701018496337 
3.540000000003046, -1.0754717766759352 
3.550000000003067, -1.0988500954843496 
3.5600000000030882, -1.119322198648182 
3.5700000000031094, -1.136787802276411 
3.5800000000031305, -1.1513144015396284 
3.5900000000031516, -1.1631026163007467 
3.6000000000031727, -1.1724409855150817 
3.6100000000031938, -1.1796603727437842 
3.620000000003215, -1.1850957902203878 
3.630000000003236, -1.1890595546953011 
3.640000000003257, -1.191826081822243 
3.650000000003278, -1.193626361419292 
3.6600000000032993, -1.1946493578008774 
3.6700000000033204, -1.195047810419902 
3.6800000000033415, -1.194946607589566 
3.6900000000033626, -1.1944526268285267 
3.7000000000033837, -1.1936654022050646 
3.710000000003405, -1.1926880354630909 
3.720000000003426, -1.1916373478019897 
3.730000000003447, -1.190651447676569 
3.740000000003468, -1.1898920100017545 
3.750000000003489, -1.1895383249480016 
3.7600000000035103, -1.1897714515149564 
3.7700000000035314, -1.1907499951276954 
3.7800000000035525, -1.1925832029462609 
3.7900000000035736, -1.1953099043786661 
3.8000000000035947, -1.198890949412284 
3.810000000003616, -1.20321793163729 
3.820000000003637, -1.2081346713828598 
3.830000000003658, -1.2134637608702228 
3.840000000003679, -1.2190303309371464 
3.8500000000037002, -1.2246782381986865 
3.8600000000037213, -1.2302777416326423 
3.8700000000037424, -1.235726483665537 
3.8800000000037635, -1.240946571732738 
3.8900000000037847, -1.2458801909244095 
3.9000000000038058, -1.2504852469171066 
3.910000000003827, -1.254731660002715 
3.920000000003848, -1.2585983860506225 
3.930000000003869, -1.2620710328337117 
3.94000000000389, -1.2651399442168276 
3.9500000000039113, -1.2677987049382569 
3.9600000000039324, -1.270043086859119 
3.9700000000039535, -1.2718704764836588 
3.9800000000039746, -1.2732797907680298 
3.9900000000039957, -1.274271821232627 
4.000000000004016, -1.274849874356832 
4.010000000003993, -1.2750205321357289 
4.02000000000397, -1.274794365042662 
4.030000000003946, -1.274186492880263 
4.040000000003923, -1.2732169810396505 
4.0500000000039, -1.2719111339646672 
4.0600000000038765, -1.2702997583011044 
4.070000000003853, -1.2684193956203007 
4.08000000000383, -1.2663123941418384 
4.090000000003807, -1.264026574573936 
4.100000000003783, -1.2616142484576252 
4.11000000000376, -1.2591305422794938 
4.120000000003737, -1.2566313356076422 
4.130000000003713, -1.2541714507792143 
4.14000000000369, -1.2518037549690006 
4.150000000003667, -1.249579368879005 
4.1600000000036434, -1.2475483404913685 
4.17000000000362, -1.245759396888237 
4.180000000003597, -1.2442573023156953 
4.1900000000035735, -1.243077231792265 
4.20000000000355, -1.2422371631340159 
4.210000000003527, -1.2417307816553154 
4.220000000003504, -1.2415238060411222 
4.23000000000348, -1.2415555201595179 
4.240000000003457, -1.2417451505536317 
4.250000000003434, -1.2420007914956779 
4.26000000000341, -1.2422278974892327 
4.270000000003387, -1.24233508186958 
4.280000000003364, -1.2422363977547362 
4.2900000000033405, -1.2418505865777387 
4.300000000003317, -1.241098501290373 
4.310000000003294, -1.2399000558643118 
4.320000000003271, -1.238171857424478 
4.330000000003247, -1.235826358740762 
4.340000000003224, -1.2327730198767128 
4.350000000003201, -1.2289215847451613 
4.360000000003177, -1.2241871426640114 
4.370000000003154, -1.218496198666537 
4.380000000003131, -1.2117926461009596 
4.390000000003107, -1.2040424833376815 
4.400000000003084, -1.1952364364245125 
4.410000000003061, -1.1853902748281935 
4.4200000000030375, -1.1745433145818582 
4.430000000003014, -1.1627561222872291 
4.440000000002991, -1.1501085892075424 
4.450000000002968, -1.136699325786222 
4.460000000002944, -1.1226468469400455 
4.470000000002921, -1.108092420253023 
4.480000000002898, -1.0932038334446714 
4.490000000002874, -1.0781787600789765 
4.500000000002851, -1.0632459291193967 
4.510000000002828, -1.048662073630858 
4.520000000002804, -1.0347028712523778 
4.530000000002781, -1.021647019076802 
4.540000000002758, -1.0097542545419398 
4.5500000000027345, -0.9992402231787952 
4.560000000002711, -0.9902528860043803 
4.570000000002688, -0.9828557824829139 
4.580000000002665, -0.9770223624752795 
4.590000000002641, -0.9726429436673246 
4.600000000002618, -0.9695425719857819 
4.610000000002595, -0.967505418705539 
4.620000000002571, -0.9663002750141807 
4.630000000002548, -0.9657023783901356 
4.640000000002525, -0.9655086636551934 
4.6500000000025015, -0.9655456794950766 
4.660000000002478, -0.9656710957567636 
4.670000000002455, -0.9657706079392806 
4.6800000000024315, -0.9657521842012831 
4.690000000002408, -0.9655392765696057 
4.700000000002385, -0.9650641354165975 
4.710000000002362, -0.9642619392878053 
4.720000000002338, -0.9630661814775207 
4.730000000002315, -0.961405650327638 
4.740000000002292, -0.9592033525820881 
4.750000000002268, -0.9563777694895329 
4.760000000002245, -0.9528467877049366 
4.770000000002222, -0.9485343899479777 
4.7800000000021985, -0.943379648190653 
4.790000000002175, -0.9373467857203074 
4.800000000002152, -0.9304343069597757 
4.810000000002129, -0.9226808366403229 
4.820000000002105, -0.9141657284323594 
4.830000000002082, -0.9050037470470206 
4.840000000002059, -0.8953347827690645 
4.850000000002035, -0.8853109184466452 
4.860000000002012, -0.8750836608164112 
4.870000000001989, -0.8647936669542374 
4.880000000001965, -0.854564209038633 
4.890000000001942, -0.844498467880616 
4.900000000001919, -0.8346799271823935 
4.9100000000018955, -0.8251747832845281 
4.920000000001872, -0.8160353037899624 
4.930000000001849, -0.8073032962187768 
4.940000000001826, -0.7990131371414854 
