t, s[1].omega / s[0].omega 
0, -0.4601474187944882 
0.009999999999999995, -0.475043831371745 
0.019999999999999934, -0.48869950933061324 
0.029999999999999874, -0.4994216963937129 
0.04000000000000012, -0.5068581866228041 
0.050000000000000405, -0.5116309271800406 
0.06000000000000069, -0.5145858182367127 
0.07000000000000098, -0.5163917466113243 
0.08000000000000126, -0.517481065730663 
0.09000000000000155, -0.5181105928426735 
0.10000000000000184, -0.5184268709808802 
0.11000000000000212, -0.5185092556344716 
0.12000000000000241, -0.5183941899397477 
0.130000000000002, -0.5180880996360305 
0.1400000000000009, -0.5175749973179917 
0.1499999999999998, -0.5168240118462862 
0.1599999999999987, -0.5158018022000357 
0.1699999999999976, -0.514492628779358 
0.1799999999999965, -0.5129215466115318 
0.1899999999999954, -0.5111662220468951 
0.1999999999999943, -0.5093430113297975 
0.2099999999999932, -0.5075712741594184 
0.2199999999999921, -0.5059388415356122 
0.229999999999991, -0.504487950147313 
0.2399999999999899, -0.5032220301722464 
0.2499999999999888, -0.5021220554778509 
0.2599999999999877, -0.5011622854927154 
0.2699999999999866, -0.500320987841067 
0.2799999999999855, -0.499586090593354 
0.2899999999999844, -0.49895765278768434 
0.2999999999999833, -0.4984493091537995 
0.3099999999999822, -0.49809033044201845 
0.3199999999999811, -0.49792934390397486 
0.32999999999998, -0.4980404270254476 
0.3399999999999789, -0.49853221993276114 
0.3499999999999778, -0.49956064077775997 
0.35999999999997667, -0.5013451556627678 
0.36999999999997557, -0.5041860589054997 
0.37999999999997447, -0.5084731609884224 
0.38999999999997337, -0.5146605142840913 
0.39999999999997227, -0.5231570834021342 
0.40999999999997117, -0.5340753864218838 
0.41999999999997006, -0.5468737496831102 
0.42999999999996896, -0.5601861412295934 
0.43999999999996786, -0.5722552638657578 
0.44999999999996676, -0.581816960106136 
0.45999999999996566, -0.5885974885376388 
0.46999999999996456, -0.5930523908971331 
0.47999999999996346, -0.5958467024341813 
0.48999999999996235, -0.5975441104920958 
0.49999999999996125, -0.5985324749601316 
0.5099999999999602, -0.5990525009071737 
0.519999999999959, -0.5992428436785089 
0.529999999999958, -0.5991735861823773 
0.5399999999999568, -0.5988652856931223 
0.5499999999999557, -0.5982970567846425 
0.5599999999999546, -0.5974081126232347 
0.5699999999999535, -0.5960989013879285 
0.5799999999999524, -0.5942423499418485 
0.5899999999999513, -0.5917196774257781 
0.5999999999999502, -0.5884866964271034 
0.6099999999999491, -0.5846432932246993 
0.619999999999948, -0.5804450052672534 
0.6299999999999469, -0.5762240347866603 
0.6399999999999458, -0.5722717758209004 
0.6499999999999447, -0.5687665455916883 
0.6599999999999436, -0.5657725730648415 
0.6699999999999425, -0.5632783263543969 
0.6799999999999414, -0.5612372440164648 
0.6899999999999403, -0.5595948998948386 
0.6999999999999392, -0.5583023846688326 
0.7099999999999381, -0.5573207856932465 
0.719999999999937, -0.556621291208024 
0.7299999999999359, -0.5561837955739175 
0.7399999999999348, -0.5559955105926139 
0.7499999999999337, -0.556050245387451 
0.7599999999999326, -0.556348553316568 
0.7699999999999315, -0.5568986618903693 
0.7799999999999304, -0.5577178260359336 
0.7899999999999293, -0.5588332999969999 
0.7999999999999282, -0.5602813351509172 
0.8099999999999271, -0.5621014490565367 
0.819999999999926, -0.5643221889985439 
0.8299999999999249, -0.5669355460612228 
0.8399999999999238, -0.5698636434755827 
0.8499999999999227, -0.5729355175855807 
0.8599999999999216, -0.575903838209509 
0.8699999999999205, -0.5785151563635863 
0.8799999999999194, -0.5805976169415066 
0.8899999999999183, -0.5821033072137225 
0.8999999999999172, -0.5830839900275232 
0.9099999999999161, -0.5836353663281149 
0.919999999999915, -0.5838509281671709 
0.9299999999999139, -0.583798539925328 
0.9399999999999128, -0.5835127191566281 
0.9499999999999117, -0.5829919727253327 
0.9599999999999106, -0.5821934929583926 
0.9699999999999095, -0.5810198581429131 
0.9799999999999084, -0.5792929010200167 
0.9899999999999073, -0.5767114179262924 
0.9999999999999062, -0.5728008462826194 
1.0099999999999052, -0.5669034701748223 
1.019999999999904, -0.5583344637273229 
1.029999999999903, -0.5468344035225553 
1.039999999999902, -0.5331228426799774 
1.0499999999999008, -0.5188851860506766 
1.0599999999998997, -0.5059311060096794 
1.0699999999998986, -0.4953364498194932 
1.0799999999998975, -0.4872985927878493 
1.0899999999998964, -0.48148839403925014 
1.0999999999998953, -0.4774143314371961 
1.1099999999998942, -0.47461766040411496 
1.119999999999893, -0.4727352966404729 
1.129999999999892, -0.47150076195777846 
1.1399999999998909, -0.4707257756846583 
1.1499999999998898, -0.4702802827515968 
1.1599999999998887, -0.47007632179380215 
1.1699999999998876, -0.47005641918609165 
1.1799999999998865, -0.47018584026469784 
1.1899999999998854, -0.47044784619805924 
1.1999999999998843, -0.47084115049441405 
1.2099999999998832, -0.47137863545854497 
1.219999999999882, -0.47208591788940496 
1.229999999999881, -0.47299762920262384 
1.2399999999998799, -0.47414871450199253 
1.2499999999998788, -0.47555852733693493 
1.2599999999998777, -0.4772085646617553 
1.2699999999998766, -0.47902197949057435 
1.2799999999998755, -0.4808617268462057 
1.2899999999998744, -0.4825616456116785 
1.2999999999998733, -0.4839805732848868 
1.3099999999998722, -0.4850442325126769 
1.319999999999871, -0.4857486866790615 
1.32999999999987, -0.4861334217196597 
1.3399999999998689, -0.48624915198437 
1.3499999999998678, -0.4861356529050672 
1.3599999999998666, -0.4858101325101857 
1.3699999999998655, -0.4852601592592256 
1.3799999999998644, -0.4844349059942328 
1.3899999999998633, -0.4832296951701175 
1.3999999999998622, -0.48146051761231573 
1.4099999999998611, -0.47883134709562275 
1.41999999999986, -0.47491804490272616 
1.429999999999859, -0.46923703363777064 
1.4399999999998578, -0.4614925180862765 
1.4499999999998567, -0.45195529927708755 
1.4599999999998556, -0.44160576947762414 
1.4699999999998545, -0.43171808163424874 
1.4799999999998534, -0.42322649983922556 
1.4899999999998523, -0.4164651020946689 
1.4999999999998512, -0.4113250147472656 
1.5099999999998501, -0.4075128990878111 
1.519999999999849, -0.4047194318879431 
1.529999999999848, -0.4026874688882991 
1.5399999999998468, -0.40122481615593353 
1.5499999999998457, -0.4001961736003271 
1.5599999999998446, -0.3995108437728234 
1.5699999999998435, -0.39911222314865585 
1.5799999999998424, -0.39897057847467693 
1.5899999999998413, -0.3990791024711932 
1.5999999999998402, -0.3994529289595124 
1.6099999999998391, -0.4001308150501335 
1.619999999999838, -0.4011791179631201 
1.629999999999837, -0.40269707817983463 
1.6399999999998358, -0.4048205775357895 
1.6499999999998347, -0.40771736748547305 
1.6599999999998336, -0.4115595126893935 
1.6699999999998325, -0.41645232903710944 
1.6799999999998314, -0.4223116602190108 
1.6899999999998303, -0.4287436555776617 
1.6999999999998292, -0.43506862184294565 
1.709999999999828, -0.44057896419312037 
1.719999999999827, -0.444859141510572 
1.729999999999826, -0.4478835355934957 
1.7399999999998248, -0.44987169726844467 
1.7499999999998237, -0.4511005442132044 
1.7599999999998226, -0.45180048559868047 
1.7699999999998215, -0.45212972993071104 
1.7799999999998204, -0.4521827784245551 
1.7899999999998193, -0.4520050009376357 
1.7999999999998182, -0.4516034707707708 
1.809999999999817, -0.450953433063167 
1.819999999999816, -0.4500039933804529 
1.8299999999998149, -0.44868964832861363 
1.8399999999998138, -0.44695552908338865 
1.8499999999998127, -0.444797647112597 
1.8599999999998116, -0.4423002154776935 
1.8699999999998105, -0.4396356243387487 
1.8799999999998094, -0.43701191505389075 
1.8899999999998083, -0.4346009497697364 
1.8999999999998072, -0.4324967180423423 
1.909999999999806, -0.4307182634922036 
1.919999999999805, -0.429236965353806 
1.9299999999998039, -0.42800498959773525 
1.9399999999998028, -0.42697472707697914 
1.9499999999998017, -0.4261089253667746 
1.9599999999998006, -0.42538468780643984 
1.9699999999997995, -0.4247946751131181 
1.9799999999997984, -0.4243480462970828 
1.9899999999997973, -0.4240728742205221 
1.9999999999997962, -0.42402132879137494 
2.0099999999998173, -0.42427892686057145 
2.0199999999998384, -0.4249794912248011 
2.0299999999998595, -0.42632775898917075 
2.0399999999998806, -0.4286307197065476 
2.0499999999999017, -0.432333610491054 
2.059999999999923, -0.43803951509095995 
2.069999999999944, -0.4464506365200459 
2.079999999999965, -0.45810927054419154 
2.089999999999986, -0.4728420816228162 
2.100000000000007, -0.4891797507947082 
2.1100000000000283, -0.5046036485325167 
2.1200000000000494, -0.5169517384274949 
2.1300000000000705, -0.5255881535350675 
2.1400000000000916, -0.5311398691870373 
2.1500000000001127, -0.5345827651282152 
2.160000000000134, -0.5367036944675745 
2.170000000000155, -0.5380087888274725 
2.180000000000176, -0.5387964824563345 
2.190000000000197, -0.539237695434743 
2.2000000000002182, -0.5394278821472276 
2.2100000000002393, -0.5394158050583017 
2.2200000000002604, -0.5392184619150382 
2.2300000000002815, -0.5388290224126893 
2.2400000000003026, -0.538222817376006 
2.2500000000003237, -0.5373660625151928 
2.260000000000345, -0.5362313201501416 
2.270000000000366, -0.5348194441074494 
2.280000000000387, -0.5331786207750254 
2.290000000000408, -0.5314046390598718 
2.3000000000004293, -0.5296156168430244 
2.3100000000004504, -0.5279154475318978 
2.3200000000004715, -0.5263690185838595 
2.3300000000004926, -0.5249992179237047 
2.3400000000005137, -0.5237991807572234 
2.3500000000005348, -0.5227484683054613 
2.360000000000556, -0.5218260087496348 
2.370000000000577, -0.5210178551986462 
2.380000000000598, -0.5203208712196242 
2.390000000000619, -0.5197444020648017 
2.4000000000006403, -0.5193117120186705 
2.4100000000006614, -0.5190623122930569 
2.4200000000006825, -0.5190557940733835 
2.4300000000007036, -0.5193775508533565 
2.4400000000007247, -0.520146676469043 
2.450000000000746, -0.5215260053790749 
2.460000000000767, -0.523733025759695 
2.470000000000788, -0.5270468760186765 
2.480000000000809, -0.5317985871805041 
2.49000000000083, -0.5383176570972086 
2.5000000000008513, -0.5467956284908327 
2.5100000000008724, -0.5570527291962402 
2.5200000000008935, -0.5683173824824193 
2.5300000000009146, -0.5792978032832623 
2.5400000000009357, -0.5887051592718726 
2.550000000000957, -0.5958553378359219 
2.560000000000978, -0.6007983860489944 
2.570000000000999, -0.6039970779578429 
2.58000000000102, -0.6059727618425624 
2.5900000000010412, -0.6071361056261063 
2.6000000000010624, -0.6077616334508178 
2.6100000000010835, -0.6080151959420286 
2.6200000000011046, -0.6079854486630253 
2.6300000000011257, -0.6077048129048144 
2.6400000000011468, -0.6071589220892246 
2.650000000001168, -0.6062870315070585 
2.660000000001189, -0.6049776842216372 
2.67000000000121, -0.6030686695081723 
2.680000000001231, -0.6003691979715676 
2.6900000000012523, -0.5967267972113782 
2.7000000000012734, -0.5921371499534146 
2.7100000000012945, -0.5868310762278857 
2.7200000000013156, -0.5812402948335442 
2.7300000000013367, -0.5758370522229086 
2.740000000001358, -0.5709712044535358 
2.750000000001379, -0.5668112356135759 
2.7600000000014, -0.5633798126318557 
2.770000000001421, -0.5606189520356486 
2.780000000001442, -0.5584416330904864 
2.7900000000014633, -0.5567604134559174 
2.8000000000014844, -0.5554990803116688 
2.8100000000015055, -0.554595238973784 
2.8200000000015266, -0.55399924396369 
2.8300000000015477, -0.5536723280773225 
2.840000000001569, -0.553585154133314 
2.85000000000159, -0.553717157221936 
2.860000000001611, -0.5540566473762917 
2.870000000001632, -0.5546014406099231 
2.8800000000016532, -0.5553595615923883 
2.8900000000016743, -0.5563491214802532 
2.9000000000016954, -0.5575957249622896 
2.9100000000017165, -0.5591249145530173 
2.9200000000017377, -0.5609470850147339 
2.9300000000017588, -0.5630348487479282 
2.94000000000178, -0.5653001499836036 
2.950000000001801, -0.5675886267767426 
2.960000000001822, -0.569709336281682 
2.970000000001843, -0.5714945265655951 
2.9800000000018643, -0.5728521698471036 
2.9900000000018854, -0.5737760854366847 
3.0000000000019065, -0.5743168445310223 
3.0100000000019276, -0.5745427199239888 
3.0200000000019487, -0.5745120726195599 
3.03000000000197, -0.5742600083572326 
3.040000000001991, -0.5737927888642012 
3.050000000002012, -0.5730828330375257 
3.060000000002033, -0.5720586487621131 
3.070000000002054, -0.5705842951657885 
3.0800000000020753, -0.5684220908913942 
3.0900000000020964, -0.5651746795454345 
3.1000000000021175, -0.5602233830596851 
3.1100000000021386, -0.5527490900172725 
3.1200000000021597, -0.5420288845899633 
3.130000000002181, -0.5281118813214615 
3.140000000002202, -0.5123701339731369 
3.150000000002223, -0.49703398107526137 
3.160000000002244, -0.48394537801291426 
3.1700000000022652, -0.4738322837762129 
3.1800000000022863, -0.46651607360677305 
3.1900000000023074, -0.4614327008087023 
3.2000000000023285, -0.4579880726402806 
3.2100000000023496, -0.4556970643805955 
3.2200000000023707, -0.45420389417504226 
3.230000000002392, -0.4532607109944222 
3.240000000002413, -0.4526994633240866 
3.250000000002434, -0.45240838754660684 
3.260000000002455, -0.45231502222019443 
3.2700000000024763, -0.45237484343755396 
3.2800000000024974, -0.452564186174936 
3.2900000000025185, -0.4528762921125352 
3.3000000000025396, -0.4533194237101828 
3.3100000000025607, -0.45391574656115485 
3.3200000000025818, -0.45469908933207515 
3.330000000002603, -0.455709001391138 
3.340000000002624, -0.4569783463914948 
3.350000000002645, -0.4585131732997313 
3.360000000002666, -0.4602687723872757 
3.3700000000026873, -0.46213518160513756 
3.3800000000027084, -0.4639511045970452 
3.3900000000027295, -0.4655513226769742 
3.4000000000027506, -0.4668215688350384 
3.4100000000027717, -0.46772330448745 
3.420000000002793, -0.46827864961078386 
3.430000000002814, -0.4685369483198555 
3.440000000002835, -0.4685460947591415 
3.450000000002856, -0.4683359253719631 
3.460000000002877, -0.4679096474845189 
3.4700000000028983, -0.46723669339971907 
3.4800000000029194, -0.4662415805638435 
3.4900000000029405, -0.46478529782312855 
3.5000000000029616, -0.4626401749893163 
3.5100000000029827, -0.45947304287932766 
3.520000000003004, -0.45488259943835185 
3.530000000003025, -0.4485651132270571 
3.540000000003046, -0.4406110939718023 
3.550000000003067, -0.4317001381180158 
3.5600000000030882, -0.4228795719563748 
3.5700000000031094, -0.41504884932160113 
3.5800000000031305, -0.40863687548087413 
3.5900000000031516, -0.4036500271451707 
3.6000000000031727, -0.39987913251457197 
3.6100000000031938, -0.39706495300440614 
3.620000000003215, -0.39497782113851787 
3.630000000003236, -0.3934405885706067 
3.640000000003257, -0.39232675406292167 
3.650000000003278, -0.3915514642755757 
3.6600000000032993, -0.3910627096216046 
3.6700000000033204, -0.3908350618088041 
3.6800000000033415, -0.3908664273916286 
3.6900000000033626, -0.391177796384906 
3.7000000000033837, -0.39181596052827794 
3.710000000003405, -0.3928591855861464 
3.720000000003426, -0.39442539099166984 
3.730000000003447, -0.3966807093284989 
3.740000000003468, -0.3998417948778591 
3.750000000003489, -0.4041557669418352 
3.7600000000035103, -0.4098282824783023 
3.7700000000035314, -0.4168708779723615 
3.7800000000035525, -0.42490274426278096 
3.7900000000035736, -0.4330878220023795 
3.8000000000035947, -0.440417783441471 
3.810000000003616, -0.4462043189328414 
3.820000000003637, -0.45032066183410074 
3.830000000003658, -0.4530381857140088 
3.840000000003679, -0.4547408561457291 
3.8500000000037002, -0.4557554321615398 
3.8600000000037213, -0.4563081589582162 
3.8700000000037424, -0.4565383301219653 
3.8800000000037635, -0.45652223169678596 
3.8900000000037847, -0.45629154678780576 
3.9000000000038058, -0.4558446882072748 
3.910000000003827, -0.45515432582565546 
3.920000000003848, -0.45417637512592685 
3.930000000003869, -0.452866704189027 
3.94000000000389, -0.45120893098857906 
3.9500000000039113, -0.449245530718178 
3.9600000000039324, -0.4470900168084665 
3.9700000000039535, -0.4449011399942474 
3.9800000000039746, -0.44283027665655317 
3.9900000000039957, -0.44097780204800274 
4.000000000004016, -0.4393816120672683 
4.010000000003993, -0.4380318476016405 
4.02000000000397, -0.43689387868215707 
4.030000000003946, -0.43592740881697595 
4.040000000003923, -0.4350982184955008 
4.0500000000039, -0.4343837559078135 
4.0600000000038765, -0.4337752054707272 
4.070000000003853, -0.4332785851351254 
4.08000000000383, -0.43291684918422224 
4.090000000003807, -0.4327344801386759 
4.100000000003783, -0.4328059465284464 
4.11000000000376, -0.4332497144284587 
4.120000000003737, -0.43424997602259124 
4.130000000003713, -0.43608806624312085 
4.14000000000369, -0.4391822037416831 
4.150000000003667, -0.4441212231400913 
4.1600000000036434, -0.4516426454415015 
4.17000000000362, -0.46244047542245525 
4.180000000003597, -0.47666014142596175 
4.1900000000035735, -0.493199318351655 
4.20000000000355, -0.5096017705332697 
4.210000000003527, -0.5232954182202256 
4.220000000003504, -0.5331391344088452 
4.23000000000348, -0.5395487427997593 
4.240000000003457, -0.5435429352244181 
4.250000000003434, -0.5460158936914816 
4.26000000000341, -0.5475558250629604 
4.270000000003387, -0.5485100252646997 
4.280000000003364, -0.5490775918870431 
4.2900000000033405, -0.5493716383768695 
4.300000000003317, -0.5494536357286386 
4.310000000003294, -0.5493510715940737 
4.320000000003271, -0.5490664348852163 
4.330000000003247, -0.5485827295293387 
4.340000000003224, -0.5478698508744034 
4.350000000003201, -0.5468960354091096 
4.360000000003177, -0.5456465362481789 
4.370000000003154, -0.54414488992266 
4.380000000003131, -0.5424633129014863 
4.390000000003107, -0.5407095269679616 
4.400000000003084, -0.5389941420233234 
4.410000000003061, -0.5373993507754654 
4.4200000000030375, -0.5359661438867139 
4.430000000003014, -0.5347004177578474 
4.440000000002991, -0.5335878869378301 
4.450000000002968, -0.5326085283011042 
4.460000000002944, -0.5317464330283646 
4.470000000002921, -0.5309950061309682 
4.480000000002898, -0.5303592667807242 
4.490000000002874, -0.5298571700930921 
4.500000000002851, -0.5295212951214113 
4.510000000002828, -0.5294016251981946 
4.520000000002804, -0.5295697875174653 
4.530000000002781, -0.5301249792168886 
4.540000000002758, -0.5312016350463654 
4.5500000000027345, -0.5329782130402896 
4.560000000002711, -0.5356843937712967 
4.570000000002688, -0.5395989442821886 
4.580000000002665, -0.5450207541878894 
4.590000000002641, -0.5521831594486379 
4.600000000002618, -0.5610845920119394 
4.610000000002595, -0.5712723695384281 
4.620000000002571, -0.5817605961640421 
4.630000000002548, -0.5913139839470958 
4.640000000002525, -0.5990079527874019 
4.6500000000025015, -0.6045794468686264 
4.660000000002478, -0.6083038374477461 
4.670000000002455, -0.610656000706306 
4.6800000000024315, -0.6120703534879428 
4.690000000002408, -0.6128607860908315 
4.700000000002385, -0.6132268552553714 
4.710000000002362, -0.6132820175140331 
4.720000000002338, -0.6130770969225295 
4.730000000002315, -0.6126128524476664 
4.740000000002292, -0.6118422782478251 
4.750000000002268, -0.6106653183385171 
4.760000000002245, -0.6089220830900086 
4.770000000002222, -0.6063992184261726 
4.7800000000021985, -0.602875883155108 
4.790000000002175, -0.5982312656421278 
4.800000000002152, -0.592580830292468 
4.810000000002129, -0.5863266746997303 
4.820000000002105, -0.5800323219261159 
4.830000000002082, -0.574202570922318 
4.840000000002059, -0.569140042271113 
4.850000000002035, -0.564940777486499 
4.860000000002012, -0.5615661273067232 
4.870000000001989, -0.5589170304580352 
4.880000000001965, -0.5568813337580718 
4.890000000001942, -0.5553559407319973 
4.900000000001919, -0.5542538928351559 
