t, s[1].omega / s[0].omega 
0, -0.6599977066631137 
0.009999999999999995, -0.6597627425234307 
0.019999999999999934, -0.6595120350399271 
0.029999999999999874, -0.6592343212534605 
0.04000000000000012, -0.6589174745253945 
0.050000000000000405, -0.6585542048450498 
0.06000000000000069, -0.6581451703055912 
0.07000000000000098, -0.6576995288155987 
0.08000000000000126, -0.6572347268817009 
0.09000000000000155, -0.6567773984014363 
0.10000000000000184, -0.6563663611211951 
0.11000000000000212, -0.6560577939553877 
0.12000000000000241, -0.6559320305950463 
0.130000000000002, -0.6561008369580756 
0.1400000000000009, -0.656713328899097 
0.1499999999999998, -0.6579576387014082 
0.1599999999999987, -0.6600537338673982 
0.1699999999999976, -0.6632300553761059 
0.1799999999999965, -0.667673616663698 
0.1899999999999954, -0.673444943333658 
0.1999999999999943, -0.6803683029387636 
0.2099999999999932, -0.6879546802883738 
0.2199999999999921, -0.6954587953524599 
0.229999999999991, -0.7021168850389822 
0.2399999999999899, -0.7074352611252077 
0.2499999999999888, -0.7113114871934448 
0.2599999999999877, -0.7139340079420355 
0.2699999999999866, -0.7156003515800288 
0.2799999999999855, -0.7165882494126145 
0.2899999999999844, -0.7171061417398599 
0.2999999999999833, -0.7172909228190772 
0.3099999999999822, -0.7172209624249628 
0.3199999999999811, -0.7169282991194609 
0.32999999999998, -0.7164045009774748 
0.3399999999999789, -0.7155987691046803 
0.3499999999999778, -0.7144078691999137 
0.35999999999997667, -0.7126586625278271 
0.36999999999997557, -0.7100891361640725 
0.37999999999997447, -0.7063480596706662 
0.38999999999997337, -0.7010570285818373 
0.39999999999997227, -0.693984106780114 
0.40999999999997117, -0.6852974636615181 
0.41999999999997006, -0.67570110578563 
0.42999999999996896, -0.666239110677921 
0.43999999999996786, -0.6578633142289314 
0.44999999999996676, -0.6511118485116978 
0.45999999999996566, -0.6460779095111042 
0.46999999999996456, -0.6425630083797961 
0.47999999999996346, -0.6402489289415337 
0.48999999999996235, -0.638811649177946 
0.49999999999996125, -0.637975205513527 
0.5099999999999602, -0.6375270004981815 
0.519999999999959, -0.6373137716679158 
0.529999999999958, -0.6372300671511505 
0.5399999999999568, -0.6372054387730252 
0.5499999999999557, -0.637193249680705 
0.5599999999999546, -0.637162262099775 
0.5699999999999535, -0.6370913543414236 
0.5799999999999524, -0.6369672812409509 
0.5899999999999513, -0.636784845228671 
0.5999999999999502, -0.6365479298034875 
0.6099999999999491, -0.6362690352572093 
0.619999999999948, -0.6359654596291198 
0.6299999999999469, -0.6356526517485865 
0.6399999999999458, -0.6353379419825013 
0.6499999999999447, -0.6350182744743773 
0.6599999999999436, -0.6346831367883726 
0.6699999999999425, -0.6343206492926059 
0.6799999999999414, -0.6339233231082567 
0.6899999999999403, -0.6334912092163859 
0.6999999999999392, -0.633032613419788 
0.7099999999999381, -0.6325641330398285 
0.719999999999937, -0.6321117842250968 
0.7299999999999359, -0.6317141897095134 
0.7399999999999348, -0.6314280303569619 
0.7499999999999337, -0.6313354409908389 
0.7599999999999326, -0.6315525373390879 
0.7699999999999315, -0.6322374830426423 
0.7799999999999304, -0.6335950642925019 
0.7899999999999293, -0.6358720593674735 
0.7999999999999282, -0.6393332247807334 
0.8099999999999271, -0.6442026818187581 
0.819999999999926, -0.6505575244084087 
0.8299999999999249, -0.6581881495258497 
0.8399999999999238, -0.6665065870580401 
0.8499999999999227, -0.6746373588169466 
0.8599999999999216, -0.6817294665430117 
0.8699999999999205, -0.6872898773594549 
0.8799999999999194, -0.6912771146012237 
0.8899999999999183, -0.6939452440185104 
0.8999999999999172, -0.6956333910666537 
0.9099999999999161, -0.6966379946512891 
0.919999999999915, -0.6971735782497767 
0.9299999999999139, -0.6973781664596278 
0.9399999999999128, -0.6973299669146116 
0.9499999999999117, -0.6970608992032857 
0.9599999999999106, -0.696562925177252 
0.9699999999999095, -0.6957866613418553 
0.9799999999999084, -0.6946327639808032 
0.9899999999999073, -0.6929385071547546 
0.9999999999999062, -0.6904683539441129 
1.0099999999999052, -0.6869309521663556 
1.019999999999904, -0.6820587948863385 
1.029999999999903, -0.675767691629082 
1.039999999999902, -0.6683241817329786 
1.0499999999999008, -0.6603588152633323 
1.0599999999998997, -0.6526502101173428 
1.0699999999998986, -0.6458328616613752 
1.0799999999998975, -0.6402397807208193 
1.0899999999998964, -0.6359226988518046 
1.0999999999998953, -0.6327564147718556 
1.1099999999998942, -0.6305391395259936 
1.119999999999893, -0.6290573348343295 
1.129999999999892, -0.6281184281827706 
1.1399999999998909, -0.627563257659699 
1.1499999999998898, -0.6272676837215864 
1.1599999999998887, -0.6271390108231413 
1.1699999999998876, -0.6271103421841114 
1.1799999999998865, -0.6271346570345815 
1.1899999999998854, -0.627179701170967 
1.1999999999998843, -0.6272243307078458 
1.2099999999998832, -0.6272564955624669 
1.219999999999882, -0.6272724111995924 
1.229999999999881, -0.6272756848882649 
1.2399999999998799, -0.6272747689446223 
1.2499999999998788, -0.6272779210201299 
1.2599999999998777, -0.6272869221407851 
1.2699999999998766, -0.6272927189243018 
1.2799999999998755, -0.6272760111915334 
1.2899999999998744, -0.6272131054471327 
1.2999999999998733, -0.6270838992940335 
1.3099999999998722, -0.6268776307212836 
1.319999999999871, -0.6265942151283557 
1.32999999999987, -0.6262423895579153 
1.3399999999998689, -0.6258375426594405 
1.3499999999998678, -0.6254016082157733 
1.3599999999998666, -0.6249662562261246 
1.3699999999998655, -0.6245799760505313 
1.3799999999998644, -0.6243195334957928 
1.3899999999998633, -0.6243061046033359 
1.3999999999998622, -0.6247253112914499 
1.4099999999998611, -0.6258472132014457 
1.41999999999986, -0.6280352457188416 
1.429999999999859, -0.6317205203954157 
1.4399999999998578, -0.6373034446747907 
1.4499999999998567, -0.6449506787908621 
1.4599999999998556, -0.6543317740143314 
1.4699999999998545, -0.664497825012772 
1.4799999999998534, -0.6741526136873834 
1.4899999999998523, -0.6822340278776621 
1.4999999999998512, -0.6883187652822884 
1.5099999999998501, -0.6925572254601392 
1.519999999999849, -0.6953588136682475 
1.529999999999848, -0.6971413562522818 
1.5399999999998468, -0.6982296871358427 
1.5499999999998457, -0.6988459750821066 
1.5599999999998446, -0.6991305335677672 
1.5699999999998435, -0.6991640915163988 
1.5799999999998424, -0.6989830721234848 
1.5899999999998413, -0.6985870794303767 
1.5999999999998402, -0.6979396841534654 
1.6099999999998391, -0.6969643088241664 
1.619999999999838, -0.6955391228492622 
1.629999999999837, -0.6935001207332571 
1.6399999999998358, -0.6906688792610272 
1.6499999999998347, -0.6869207490878052 
1.6599999999998336, -0.6822814712621802 
1.6699999999998325, -0.6769896404798453 
1.6799999999998314, -0.6714537451605732 
1.6899999999998303, -0.6661151863013177 
1.6999999999998292, -0.6613146211193723 
1.709999999999828, -0.657237422918332 
1.719999999999827, -0.6539326946129599 
1.729999999999826, -0.6513607745887274 
1.7399999999998248, -0.649436251109636 
1.7499999999998237, -0.6480564190414531 
1.7599999999998226, -0.6471173955132163 
1.7699999999998215, -0.6465226533178928 
1.7799999999998204, -0.6461874003059682 
1.7899999999998193, -0.6460405365588142 
1.7999999999998182, -0.6460249578530817 
1.809999999999817, -0.6460967000775553 
1.819999999999816, -0.6462234635777857 
1.8299999999998149, -0.6463830770808681 
1.8399999999998138, -0.6465622415664407 
1.8499999999998127, -0.6467553662480234 
1.8599999999998116, -0.6469626591653165 
1.8699999999998105, -0.6471864297865154 
1.8799999999998094, -0.6474254634099581 
1.8899999999998083, -0.6476692543518879 
1.8999999999998072, -0.64789545654633 
1.909999999999806, -0.6480732285867401 
1.919999999999805, -0.6481717124815266 
1.9299999999998039, -0.648169080579177 
1.9399999999998028, -0.6480571841034206 
1.9499999999998017, -0.6478404861824993 
1.9599999999998006, -0.6475319441801043 
1.9699999999997995, -0.6471495506799201 
1.9799999999997984, -0.6467159274621708 
1.9899999999997973, -0.6462619408170915 
1.9999999999997962, -0.6458348366502045 
2.0099999999998173, -0.6455115486598015 
2.0199999999998384, -0.6454177473144007 
2.0299999999998595, -0.6457517861353324 
2.0399999999998806, -0.6468084032088222 
2.0499999999999017, -0.6489876801330474 
2.059999999999923, -0.6527592028203358 
2.069999999999944, -0.6585369560209489 
2.079999999999965, -0.6664391538167365 
2.089999999999986, -0.6760140159172924 
2.100000000000007, -0.6861820336281582 
2.1100000000000283, -0.695615280450041 
2.1200000000000494, -0.7033452645013012 
2.1300000000000705, -0.7090759861704592 
2.1400000000000916, -0.7130311967990226 
2.1500000000001127, -0.7156322973407047 
2.160000000000134, -0.7172800380925134 
2.170000000000155, -0.7182777789780163 
2.180000000000176, -0.7188306831857925 
2.190000000000197, -0.7190671554243764 
2.2000000000002182, -0.7190593904369593 
2.2100000000002393, -0.7188367552702316 
2.2200000000002604, -0.7183915732292634 
2.2300000000002815, -0.7176782471368058 
2.2400000000003026, -0.7166074096173972 
2.2500000000003237, -0.7150393557753566 
2.260000000000345, -0.7127872979204736 
2.270000000000366, -0.7096496088397963 
2.280000000000387, -0.7054890308719337 
2.290000000000408, -0.7003435491125913 
2.3000000000004293, -0.6944948788141165 
2.3100000000004504, -0.6884138008736194 
2.3200000000004715, -0.6826003912547367 
2.3300000000004926, -0.6774330377762351 
2.3400000000005137, -0.6731098204186711 
2.3500000000005348, -0.6696724982506075 
2.360000000000556, -0.6670614533592732 
2.370000000000577, -0.6651652792116688 
2.380000000000598, -0.6638542857553718 
2.390000000000619, -0.6630002573390115 
2.4000000000006403, -0.6624872626435871 
2.4100000000006614, -0.6622169126166557 
2.4200000000006825, -0.6621099337880418 
2.4300000000007036, -0.6621052227357521 
2.4400000000007247, -0.6621574213803907 
2.450000000000746, -0.6622340545314432 
2.460000000000767, -0.6623131186696112 
2.470000000000788, -0.6623815763471154 
2.480000000000809, -0.662434469598674 
2.49000000000083, -0.6624735493716047 
2.5000000000008513, -0.6625040968424022 
2.5100000000008724, -0.6625296964195738 
2.5200000000008935, -0.662546793192158 
2.5300000000009146, -0.6625422212691748 
2.5400000000009357, -0.6624958393157689 
2.550000000000957, -0.6623872247946813 
2.560000000000978, -0.6622026052368318 
2.570000000000999, -0.6619384683238785 
2.58000000000102, -0.6616012839886918 
2.5900000000010412, -0.6612055316475611 
2.6000000000010624, -0.660772771951849 
2.6100000000010835, -0.6603334935132029 
2.6200000000011046, -0.6599323813534911 
2.6300000000011257, -0.65963705387642 
2.6400000000011468, -0.6595498650222972 
2.650000000001168, -0.659821490284344 
2.660000000001189, -0.6606631901797283 
2.67000000000121, -0.6623513659185958 
2.680000000001231, -0.6652128161102008 
2.6900000000012523, -0.6695726241092668 
2.7000000000012734, -0.6756447700248098 
2.7100000000012945, -0.6833663888825211 
2.7200000000013156, -0.6922436424989936 
2.7300000000013367, -0.7013628276063039 
2.740000000001358, -0.709680581230149 
2.750000000001379, -0.7164493487553292 
2.7600000000014, -0.7214440107731297 
2.770000000001421, -0.7248594225140624 
2.780000000001442, -0.727063580451833 
2.7900000000014633, -0.728413025832481 
2.8000000000014844, -0.7291795968397805 
2.8100000000015055, -0.7295452848975023 
2.8200000000015266, -0.7296198501754058 
2.8300000000015477, -0.7294586337519855 
2.840000000001569, -0.7290733432862699 
2.85000000000159, -0.7284345222534547 
2.860000000001611, -0.727465808665241 
2.870000000001632, -0.7260308078978835 
2.8800000000016532, -0.7239167506801751 
2.8900000000016743, -0.7208291454373225 
2.9000000000016954, -0.7164298647179909 
2.9100000000017165, -0.7104612180681084 
2.9200000000017377, -0.702951818752901 
2.9300000000017588, -0.6943749490058531 
2.94000000000178, -0.6855694700493693 
2.950000000001801, -0.6774202709611963 
2.960000000001822, -0.6705423863805152 
2.970000000001843, -0.6651728036952751 
2.9800000000018643, -0.6612486266496125 
2.9900000000018854, -0.6585445687616074 
3.0000000000019065, -0.6567846322796501 
3.0100000000019276, -0.6557074963353939 
3.0200000000019487, -0.6550954377485697 
3.03000000000197, -0.654781211025689 
3.040000000001991, -0.6546436143718071 
3.050000000002012, -0.6545983980761395 
3.060000000002033, -0.6545883708021454 
3.070000000002054, -0.6545748129194426 
3.0800000000020753, -0.6545312577114312 
3.0900000000020964, -0.6544400590990567 
3.1000000000021175, -0.6542915739573821 
3.1100000000021386, -0.6540849159123373 
3.1200000000021597, -0.6538282300317062 
3.130000000002181, -0.653536274260367 
3.140000000002202, -0.6532247820417588 
3.150000000002223, -0.6529038912467638 
3.160000000002244, -0.6525743559560447 
3.1700000000022652, -0.6522287422517862 
3.1800000000022863, -0.6518565929766729 
3.1900000000023074, -0.6514503499103232 
3.2000000000023285, -0.6510092557941619 
3.2100000000023496, -0.6505407101167744 
3.2200000000023707, -0.6500604719883896 
3.230000000002392, -0.64959348773017 
3.240000000002413, -0.649176412381341 
3.250000000002434, -0.6488620098704356 
3.260000000002455, -0.648724960149188 
3.2700000000024763, -0.6488680983671794 
3.2800000000024974, -0.6494275691223632 
3.2900000000025185, -0.6505745964516976 
3.3000000000025396, -0.6525102078333801 
3.3100000000025607, -0.6554468477216197 
3.3200000000025818, -0.6595676666401864 
3.330000000002603, -0.6649540515341461 
3.340000000002624, -0.6714852113071522 
3.350000000002645, -0.6787528577168047 
3.360000000002666, -0.6860820679767661 
3.3700000000026873, -0.6927249548719845 
3.3800000000027084, -0.6981417011175541 
3.3900000000027295, -0.702160507530433 
3.4000000000027506, -0.7049188704003296 
3.4100000000027717, -0.7066932747249889 
3.420000000002793, -0.7077603359521264 
3.430000000002814, -0.7083352116598135 
3.440000000002835, -0.7085627125264468 
3.450000000002856, -0.7085282165489352 
3.460000000002877, -0.7082699257981055 
3.4700000000028983, -0.7077855947048711 
3.4800000000029194, -0.7070318181905701 
3.4900000000029405, -0.70591532818106 
3.5000000000029616, -0.7042767820300045 
3.5100000000029827, -0.7018718323669335 
3.520000000003004, -0.6983668210347325 
3.530000000003025, -0.693388892552843 
3.540000000003046, -0.686680568285752 
3.550000000003067, -0.6783434198158445 
3.5600000000030882, -0.668997064531249 
3.5700000000031094, -0.6596318779273344 
3.5800000000031305, -0.6512035510193968 
3.5900000000031516, -0.6442952349392217 
3.6000000000031727, -0.6390541347452154 
3.6100000000031938, -0.6353247566906846 
3.620000000003215, -0.6328159584556604 
3.630000000003236, -0.6312172574668284 
3.640000000003257, -0.6302567566047369 
3.650000000003278, -0.6297201512924134 
3.6600000000032993, -0.6294495956558124 
3.6700000000033204, -0.6293342424458261 
3.6800000000033415, -0.6292987331467541 
3.6900000000033626, -0.6292926589953465 
3.7000000000033837, -0.6292823078095467 
3.710000000003405, -0.6292451759151574 
3.720000000003426, -0.6291672633177958 
3.730000000003447, -0.629042651717189 
3.740000000003468, -0.6288740400113825 
3.750000000003489, -0.6286721272219065 
3.7600000000035103, -0.6284520310582284 
3.7700000000035314, -0.6282269683782664 
3.7800000000035525, -0.6280020194077117 
3.7900000000035736, -0.6277715815221534 
3.8000000000035947, -0.6275221032340302 
3.810000000003616, -0.6272383978195353 
3.820000000003637, -0.6269099008465027 
3.830000000003658, -0.62653411405259 
3.840000000003679, -0.6261171008826488 
3.8500000000037002, -0.6256728911285554 
3.8600000000037213, -0.6252238989498405 
3.8700000000037424, -0.6248036660417703 
3.8800000000037635, -0.6244624485309073 
3.8900000000037847, -0.6242756973846526 
3.9000000000038058, -0.6243550718655541 
3.910000000003827, -0.624860814387117 
3.920000000003848, -0.6260125384415474 
3.930000000003869, -0.6280919220265112 
3.94000000000389, -0.6314245318038753 
3.9500000000039113, -0.6363198494121971 
3.9600000000039324, -0.6429471325029131 
3.9700000000039535, -0.6511545788383576 
3.9800000000039746, -0.6603255364302045 
3.9900000000039957, -0.6694517527492462 
4.000000000004016, -0.6775027399471453 
4.010000000003993, -0.6838539836641415 
4.02000000000397, -0.6884251551949134 
4.030000000003946, -0.6914981220254122 
4.040000000003923, -0.6934611846165312 
4.0500000000039, -0.6946548930324659 
4.0600000000038765, -0.6953259868456974 
4.070000000003853, -0.6956346391156392 
4.08000000000383, -0.6956747703966292 
4.090000000003807, -0.6954908466641799 
4.100000000003783, -0.6950869994126971 
4.11000000000376, -0.6944284061245549 
4.120000000003737, -0.6934359207733227 
4.130000000003713, -0.6919765056269954 
4.14000000000369, -0.6898570238050309 
4.150000000003667, -0.6868392415112418 
4.1600000000036434, -0.6827034597996946 
4.17000000000362, -0.6773725336587265 
4.180000000003597, -0.6710420921045255 
4.1900000000035735, -0.6641974240217865 
4.20000000000355, -0.6574582650090507 
4.210000000003527, -0.6513568317357804 
4.220000000003504, -0.6462053558785859 
4.23000000000348, -0.6420954466708975 
4.240000000003457, -0.6389680643247477 
4.250000000003434, -0.6366881673122065 
4.26000000000341, -0.6350966519609168 
4.270000000003387, -0.6340392596850354 
4.280000000003364, -0.633380136427604 
4.2900000000033405, -0.6330067199163684 
4.300000000003317, -0.6328299725444195 
4.310000000003294, -0.6327821533944493 
4.320000000003271, -0.6328134577465152 
4.330000000003247, -0.6328884932253762 
4.340000000003224, -0.6329833289031441 
4.350000000003201, -0.6330835213919318 
4.360000000003177, -0.6331829626910925 
4.370000000003154, -0.6332826588807002 
4.380000000003131, -0.6333880791931265 
4.390000000003107, -0.6335042554741833 
4.400000000003084, -0.6336296081088562 
4.410000000003061, -0.6337514549339878 
4.4200000000030375, -0.633846427376896 
4.430000000003014, -0.6338865661769479 
4.440000000002991, -0.6338480647635254 
4.450000000002968, -0.6337177783199835 
4.460000000002944, -0.6334946846718326 
4.470000000002921, -0.6331873870964997 
4.480000000002898, -0.6328108966568048 
4.490000000002874, -0.6323854668058908 
4.500000000002851, -0.631938889422617 
4.510000000002828, -0.6315128849547293 
4.520000000002804, -0.6311741690114521 
4.530000000002781, -0.6310308156596287 
4.540000000002758, -0.6312537535637586 
4.5500000000027345, -0.6321003327550611 
4.560000000002711, -0.6339298911318976 
4.570000000002688, -0.6371880160662037 
4.580000000002665, -0.6423191981720712 
4.590000000002641, -0.6495677404605306 
4.600000000002618, -0.6586964764152696 
4.610000000002595, -0.668818743170555 
4.620000000002571, -0.6786238739270423 
4.630000000002548, -0.6869666970991164 
4.640000000002525, -0.6933313869388945 
4.6500000000025015, -0.6978124992719341 
4.660000000002478, -0.7008027500610516 
4.670000000002455, -0.7027245609965245 
4.6800000000024315, -0.7039140907232739 
4.690000000002408, -0.7046048963076272 
4.700000000002385, -0.7049468334038127 
4.710000000002362, -0.7050283830631834 
4.720000000002338, -0.7048926521264831 
4.730000000002315, -0.7045457825583136 
4.740000000002292, -0.7039586955519403 
4.750000000002268, -0.7030637581044092 
4.760000000002245, -0.7017496785860903 
4.770000000002222, -0.6998624926013949 
4.7800000000021985, -0.6972275271438967 
4.790000000002175, -0.693708761263738 
4.800000000002152, -0.6893003622038566 
4.810000000002129, -0.6841978026618849 
4.820000000002105, -0.6787759905319121 
4.830000000002082, -0.6734681889648833 
4.840000000002059, -0.6686302216291244 
4.850000000002035, -0.664472594162512 
4.860000000002012, -0.6610680136396119 
4.870000000001989, -0.6583940710974914 
4.880000000001965, -0.6563760344502617 
4.890000000001942, -0.6549167070039428 
4.900000000001919, -0.6539140414047059 
4.9100000000018955, -0.6532708840243829 
4.920000000001872, -0.6529003111538708 
