t, s[1].omega / s[0].omega 
0, -0.719997684933628 
0.009999999999999995, -0.7197574641392823 
0.019999999999999934, -0.7194930925606091 
0.029999999999999874, -0.7191879241947139 
0.04000000000000012, -0.7188248334980402 
0.050000000000000405, -0.7183952514627999 
0.06000000000000069, -0.7179040776825443 
0.07000000000000098, -0.7173707792165249 
0.08000000000000126, -0.7168296636740668 
0.09000000000000155, -0.7163318483305049 
0.10000000000000184, -0.7159493031418983 
0.11000000000000212, -0.7157793320530739 
0.12000000000000241, -0.7159467824941623 
0.130000000000002, -0.7166014581853194 
0.1400000000000009, -0.7179097242013213 
0.1499999999999998, -0.7200413639915553 
0.1599999999999987, -0.7231535501294095 
0.1699999999999976, -0.727371597471834 
0.1799999999999965, -0.7327612816449809 
0.1899999999999954, -0.7392838796022925 
0.1999999999999943, -0.7467315596168904 
0.2099999999999932, -0.75466857509381 
0.2199999999999921, -0.7624466604634119 
0.229999999999991, -0.7693620605726359 
0.2399999999999899, -0.7749068586967124 
0.2499999999999888, -0.7789324034087162 
0.2599999999999877, -0.7816041491215373 
0.2699999999999866, -0.7832296486743237 
0.2799999999999855, -0.7841093797194462 
0.2899999999999844, -0.7844693193598637 
0.2999999999999833, -0.7844521499804641 
0.3099999999999822, -0.7841302841774787 
0.3199999999999811, -0.7835199312029267 
0.32999999999998, -0.7825899109584621 
0.3399999999999789, -0.7812667842852468 
0.3499999999999778, -0.7794433263045724 
0.35999999999997667, -0.7770039783079856 
0.36999999999997557, -0.7738865605683458 
0.37999999999997447, -0.7701879038173016 
0.38999999999997337, -0.7662588589295207 
0.39999999999997227, -0.7626342091539329 
0.40999999999997117, -0.7597236650926474 
0.41999999999997006, -0.7576436514462283 
0.42999999999996896, -0.7565551323108838 
0.43999999999996786, -0.7568027614215003 
0.44999999999996676, -0.758398175766225 
0.45999999999996566, -0.7607996917466162 
0.46999999999996456, -0.7633184526686327 
0.47999999999996346, -0.7654968185469051 
0.48999999999996235, -0.7671640569125395 
0.49999999999996125, -0.768327636055603 
0.5099999999999602, -0.7690630788585434 
0.519999999999959, -0.769449665136082 
0.529999999999958, -0.7695420137684915 
0.5399999999999568, -0.7693587767896809 
0.5499999999999557, -0.7688756199557351 
0.5599999999999546, -0.7680163267577845 
0.5699999999999535, -0.7666419869994842 
0.5799999999999524, -0.7645469686435217 
0.5899999999999513, -0.7614831966811332 
0.5999999999999502, -0.757240266994278 
0.6099999999999491, -0.7517780209260104 
0.619999999999948, -0.7453323728443428 
0.6299999999999469, -0.7383838254560962 
0.6399999999999458, -0.7314873222873414 
0.6499999999999447, -0.7250951946149783 
0.6599999999999436, -0.7194816595435477 
0.6699999999999425, -0.7147619214633745 
0.6799999999999414, -0.7109451171563375 
0.6899999999999403, -0.7079793713622676 
0.6999999999999392, -0.7057787134204979 
0.7099999999999381, -0.7042372506698662 
0.719999999999937, -0.7032382783173807 
0.7299999999999359, -0.7026628113797345 
0.7399999999999348, -0.7023982116783922 
0.7499999999999337, -0.7023453888150375 
0.7599999999999326, -0.702422994464867 
0.7699999999999315, -0.70256833930989 
0.7799999999999304, -0.7027361599005225 
0.7899999999999293, -0.7028968919070738 
0.7999999999999282, -0.7030354431024792 
0.8099999999999271, -0.703149887997579 
0.819999999999926, -0.7032480858686209 
0.8299999999999249, -0.7033406076768302 
0.8399999999999238, -0.7034311939041824 
0.8499999999999227, -0.7035092761765191 
0.8599999999999216, -0.7035495816663431 
0.8699999999999205, -0.7035201205621717 
0.8799999999999194, -0.7033942304813372 
0.8899999999999183, -0.7031597367301818 
0.8999999999999172, -0.7028215161828378 
0.9099999999999161, -0.7023995077324623 
0.919999999999915, -0.7019270325663438 
0.9299999999999139, -0.7014531342972758 
0.9399999999999128, -0.7010501507362736 
0.9499999999999117, -0.7008257376067534 
0.9599999999999106, -0.7009370207009045 
0.9699999999999095, -0.7016030103230434 
0.9799999999999084, -0.7031101211750299 
0.9899999999999073, -0.7058051579867105 
0.9999999999999062, -0.7100699346634244 
1.0099999999999052, -0.7162695424094397 
1.019999999999904, -0.724660936591681 
1.029999999999903, -0.7352477631868768 
1.039999999999902, -0.7475972351539472 
1.0499999999999008, -0.7607242116806889 
1.0599999999998997, -0.7732397079099996 
1.0699999999998986, -0.7838430216431627 
1.0799999999998975, -0.7918533139122792 
1.0899999999998964, -0.7973360237976881 
1.0999999999998953, -0.8008053987604077 
1.1099999999998942, -0.8028577210945766 
1.119999999999893, -0.8039722954283489 
1.129999999999892, -0.8044697076913352 
1.1399999999998909, -0.804537796448787 
1.1499999999998898, -0.8042667188242081 
1.1599999999998887, -0.8036720680357092 
1.1699999999998876, -0.8027023627178208 
1.1799999999998865, -0.8012317604994672 
1.1899999999998854, -0.7990394185645109 
1.1999999999998843, -0.7957785204739233 
1.2099999999998832, -0.7909434975750572 
1.219999999999882, -0.7838556144929842 
1.229999999999881, -0.7737135360106214 
1.2399999999998799, -0.7598301484665124 
1.2499999999998788, -0.7422697067157079 
1.2599999999998777, -0.7227404004673414 
1.2699999999998766, -0.7045078605220808 
1.2799999999998755, -0.6905238558533418 
1.2899999999998744, -0.6816926987499138 
1.2999999999998733, -0.677095300618248 
1.3099999999998722, -0.67521862594283 
1.319999999999871, -0.6747908021003461 
1.32999999999987, -0.6749970385131583 
1.3399999999998689, -0.6753947145436007 
1.3499999999998678, -0.6757720132890979 
1.3599999999998666, -0.6760385142942754 
1.3699999999998655, -0.67615789229329 
1.3799999999998644, -0.6761107295686148 
1.3899999999998633, -0.6758750229772572 
1.3999999999998622, -0.6754169110073638 
1.4099999999998611, -0.6746893950695071 
1.41999999999986, -0.6736408659324592 
1.429999999999859, -0.6722356362322669 
1.4399999999998578, -0.6704817361537929 
1.4499999999998567, -0.6684491168179293 
1.4599999999998556, -0.66625940438569 
1.4699999999998545, -0.6640485156289839 
1.4799999999998534, -0.6619270512757298 
1.4899999999998523, -0.6599617381141853 
1.4999999999998512, -0.6581801984003433 
1.5099999999998501, -0.6565870435630746 
1.519999999999849, -0.6551796549908727 
1.529999999999848, -0.6539583929716974 
1.5399999999998468, -0.6529309513737459 
1.5499999999998457, -0.6521125614264526 
1.5599999999998446, -0.6515238569553077 
1.5699999999998435, -0.6511877725775851 
1.5799999999998424, -0.6511265218953028 
1.5899999999998413, -0.6513595242286404 
1.5999999999998402, -0.6519028956578102 
1.6099999999998391, -0.6527706487134212 
1.619999999999838, -0.6539770632684777 
1.629999999999837, -0.6555388506156258 
1.6399999999998358, -0.6574747394900019 
1.6499999999998347, -0.659799092440256 
1.6599999999998336, -0.6625059139543834 
1.6699999999998325, -0.6655423720254844 
1.6799999999998314, -0.6687799882967653 
1.6899999999998303, -0.6720059660634875 
1.6999999999998292, -0.6749611263922952 
1.709999999999828, -0.6774213505455329 
1.719999999999827, -0.679271593629673 
1.729999999999826, -0.6805192926776371 
1.7399999999998248, -0.6812501650045103 
1.7499999999998237, -0.6815708544475343 
1.7599999999998226, -0.6815709495425462 
1.7699999999998215, -0.6813078573969036 
1.7799999999998204, -0.6808046194627763 
1.7899999999998193, -0.6800517428976562 
1.7999999999998182, -0.6790089127120109 
1.809999999999817, -0.6776061584876459 
1.819999999999816, -0.6757458026945342 
1.8299999999998149, -0.6733044159468748 
1.8399999999998138, -0.6701208708299212 
1.8499999999998127, -0.6659230293521745 
1.8599999999998116, -0.6601259022314896 
1.8699999999998105, -0.6516244101047712 
1.8799999999998094, -0.6392641084858977 
1.8899999999998083, -0.6234680830906757 
1.8999999999998072, -0.607114236915616 
1.909999999999806, -0.593567534602083 
1.919999999999805, -0.5843045181037587 
1.9299999999998039, -0.5788691593469034 
1.9399999999998028, -0.5760758205142481 
1.9499999999998017, -0.5748429700329154 
1.9599999999998006, -0.5744312742013593 
1.9699999999997995, -0.5744014669045555 
1.9799999999997984, -0.5745130411330861 
1.9899999999997973, -0.5746407036027246 
1.9999999999997962, -0.5747199754491444 
2.0099999999998173, -0.5747152745669928 
2.0199999999998384, -0.5746026127651604 
2.0299999999998595, -0.5743618350302577 
2.0399999999998806, -0.5739760577961589 
2.0499999999999017, -0.5734371303144715 
2.059999999999923, -0.5727545466079398 
2.069999999999944, -0.5719618513332588 
2.079999999999965, -0.5711133286488669 
2.089999999999986, -0.5702692366177657 
2.100000000000007, -0.5694769888038542 
2.1100000000000283, -0.5687589284721377 
2.1200000000000494, -0.5681118348720974 
2.1300000000000705, -0.567515851602451 
2.1400000000000916, -0.56694686598131 
2.1500000000001127, -0.5663868145810155 
2.160000000000134, -0.5658293633359858 
2.170000000000155, -0.5652818729069053 
2.180000000000176, -0.564766463038149 
2.190000000000197, -0.5643228843369505 
2.2000000000002182, -0.5640149424329102 
2.2100000000002393, -0.5639415227221191 
2.2200000000002604, -0.5642531009233476 
2.2300000000002815, -0.5651746674157213 
2.2400000000003026, -0.5670355429911842 
2.2500000000003237, -0.5703040623426581 
2.260000000000345, -0.5756167711203911 
2.270000000000366, -0.5837700285368929 
2.280000000000387, -0.5955987175893052 
2.290000000000408, -0.6116215551331147 
2.3000000000004293, -0.6314068950521973 
2.3100000000004504, -0.6530201641620967 
2.3200000000004715, -0.6734068567297526 
2.3300000000004926, -0.6899373383942868 
2.3400000000005137, -0.7017003123269288 
2.3500000000005348, -0.7093208300467937 
2.360000000000556, -0.7139808062940881 
2.370000000000577, -0.7167305020271374 
2.380000000000598, -0.718293977276763 
2.390000000000619, -0.7191137764182718 
2.4000000000006403, -0.7194403108710848 
2.4100000000006614, -0.7193994287318393 
2.4200000000006825, -0.7190298015765806 
2.4300000000007036, -0.7182950886451802 
2.4400000000007247, -0.7170746214572443 
2.450000000000746, -0.7151338670220904 
2.460000000000767, -0.712080122082489 
2.470000000000788, -0.7073319951684143 
2.480000000000809, -0.7001845556896027 
2.49000000000083, -0.6900943372665962 
2.5000000000008513, -0.6771745953483157 
2.5100000000008724, -0.6625090104341512 
2.5200000000008935, -0.6478033720980633 
2.5300000000009146, -0.6345857724778246 
2.5400000000009357, -0.6236823355591347 
2.550000000000957, -0.6152378343368774 
2.560000000000978, -0.6089970815051671 
2.570000000000999, -0.6045579681868526 
2.58000000000102, -0.6015132598639951 
2.5900000000010412, -0.5995082753104075 
2.6000000000010624, -0.5982553962609678 
2.6100000000010835, -0.5975310103888968 
2.6200000000011046, -0.5971666955709816 
2.6300000000011257, -0.5970392001376587 
2.6400000000011468, -0.597060903556453 
2.650000000001168, -0.5971715785849662 
2.660000000001189, -0.5973320443980122 
2.67000000000121, -0.5975200466155429 
2.680000000001231, -0.597728090202992 
2.6900000000012523, -0.5979618951119297 
2.7000000000012734, -0.5982371157962849 
2.7100000000012945, -0.5985721153008514 
2.7200000000013156, -0.5989767837891343 
2.7300000000013367, -0.5994409021266477 
2.740000000001358, -0.5999282177995025 
2.750000000001379, -0.6003817482770765 
2.7600000000014, -0.6007401261501388 
2.770000000001421, -0.600956562357068 
2.780000000001442, -0.60100938276666 
2.7900000000014633, -0.6009001888853945 
2.8000000000014844, -0.6006448889175815 
2.8100000000015055, -0.6002654075620344 
2.8200000000015266, -0.5997868123580997 
2.8300000000015477, -0.5992415899224379 
2.840000000001569, -0.5986825895172745 
2.85000000000159, -0.5982082697334621 
2.860000000001611, -0.5980070953679013 
2.870000000001632, -0.5984303275997683 
2.8800000000016532, -0.6000983759159394 
2.8900000000016743, -0.6040188552847618 
2.9000000000016954, -0.6116099588601374 
2.9100000000017165, -0.6243607022290382 
2.9200000000017377, -0.6428076724956924 
2.9300000000017588, -0.6651969450696266 
2.94000000000178, -0.6875800015086874 
2.950000000001801, -0.7062590898675174 
2.960000000001822, -0.7199159044663718 
2.970000000001843, -0.7291959887129982 
2.9800000000018643, -0.7353031445210038 
2.9900000000018854, -0.7392600337263323 
3.0000000000019065, -0.741785491991886 
3.0100000000019276, -0.7433573878504105 
3.0200000000019487, -0.7442846717496274 
3.03000000000197, -0.7447592582450724 
3.040000000001991, -0.7448898355820927 
3.050000000002012, -0.7447212881044103 
3.060000000002033, -0.74424196887353 
3.070000000002054, -0.7433803096522434 
3.0800000000020753, -0.741993427093826 
3.0900000000020964, -0.7398563526319004 
3.1000000000021175, -0.7366744162325704 
3.1100000000021386, -0.7321565495996404 
3.1200000000021597, -0.7261698813701177 
3.130000000002181, -0.7189074153660215 
3.140000000002202, -0.7109118135229797 
3.150000000002223, -0.7028859706715294 
3.160000000002244, -0.6954354558118954 
3.1700000000022652, -0.6889295218551619 
3.1800000000022863, -0.6835104925703009 
3.1900000000023074, -0.6791694767507523 
3.2000000000023285, -0.6758177919477223 
3.2100000000023496, -0.6733316882521075 
3.2200000000023707, -0.6715752264706918 
3.230000000002392, -0.6704117272757666 
3.240000000002413, -0.6697109614603087 
3.250000000002434, -0.6693549038090756 
3.260000000002455, -0.6692421272465098 
3.2700000000024763, -0.669290134800663 
3.2800000000024974, -0.6694354632267595 
3.2900000000025185, -0.6696322726190068 
3.3000000000025396, -0.6698505743223477 
3.3100000000025607, -0.6700748506525168 
3.3200000000025818, -0.6703026261770478 
3.330000000002603, -0.670541247502357 
3.340000000002624, -0.6708010862256202 
3.350000000002645, -0.6710855840274916 
3.360000000002666, -0.6713819976091432 
3.3700000000026873, -0.6716585431194643 
3.3800000000027084, -0.6718713953213216 
3.3900000000027295, -0.6719788716365406 
3.4000000000027506, -0.6719546652645084 
3.4100000000027717, -0.6717930692424802 
3.420000000002793, -0.6715061305778629 
3.430000000002814, -0.6711183294423433 
3.440000000002835, -0.6706645883576032 
3.450000000002856, -0.6701947922569271 
3.460000000002877, -0.6697861177366995 
3.4700000000028983, -0.669563992898383 
3.4800000000029194, -0.6697321752509329 
3.4900000000029405, -0.6706107294070045 
3.5000000000029616, -0.6726762534387358 
3.5100000000029827, -0.6765897967697041 
3.520000000003004, -0.68318144251683 
3.530000000003025, -0.6933336661515693 
3.540000000003046, -0.7076807324959886 
3.550000000003067, -0.7260869900965662 
3.5600000000030882, -0.7471160819762651 
3.5700000000031094, -0.7680921399995186 
3.5800000000031305, -0.7861878756685542 
3.5900000000031516, -0.799813002240132 
3.6000000000031727, -0.8090047936937633 
3.6100000000031938, -0.8147436180068108 
3.620000000003215, -0.8181440902560275 
3.630000000003236, -0.8200680174920205 
3.640000000003257, -0.8210747856983509 
3.650000000003278, -0.8214924469907734 
3.6600000000032993, -0.8214940946059462 
3.6700000000033204, -0.821147565627806 
3.6800000000033415, -0.8204372059105343 
3.6900000000033626, -0.8192608021652342 
3.7000000000033837, -0.8174009721753702 
3.710000000003405, -0.8144656434411657 
3.720000000003426, -0.8097929432723827 
3.730000000003447, -0.8023386458759904 
3.740000000003468, -0.790649925076103 
3.750000000003489, -0.7732116521330402 
3.7600000000035103, -0.7495268233551305 
3.7700000000035314, -0.721551445626041 
3.7800000000035525, -0.693677527153013 
3.7900000000035736, -0.6703169277563807 
3.8000000000035947, -0.6535014616708348 
3.810000000003616, -0.6427986673819837 
3.820000000003637, -0.636638959610062 
3.830000000003658, -0.6334117156499275 
3.840000000003679, -0.6318991505300513 
3.8500000000037002, -0.6313076478881602 
3.8600000000037213, -0.631163988808235 
3.8700000000037424, -0.6312023322106248 
3.8800000000037635, -0.631278823483841 
3.8900000000037847, -0.6313156756828594 
3.9000000000038058, -0.6312674058075505 
3.910000000003827, -0.6311020595929483 
3.920000000003848, -0.630792882330424 
3.930000000003869, -0.6303183170190609 
3.94000000000389, -0.629668808134057 
3.9500000000039113, -0.6288565510403052 
3.9600000000039324, -0.6279205835604393 
3.9700000000039535, -0.6269200223072349 
3.9800000000039746, -0.6259163732999561 
3.9900000000039957, -0.6249550657067017 
4.000000000004016, -0.6240565928787557 
4.010000000003993, -0.623219725325759 
4.02000000000397, -0.6224320685247802 
4.030000000003946, -0.6216814545524771 
4.040000000003923, -0.6209639970618273 
4.0500000000039, -0.6202881752911833 
4.0600000000038765, -0.6196766627004556 
4.070000000003853, -0.6191679273688776 
4.08000000000383, -0.6188186663824926 
4.090000000003807, -0.6187070697681152 
4.100000000003783, -0.6189363462098011 
4.11000000000376, -0.6196379058394348 
4.120000000003737, -0.6209738015169854 
4.130000000003713, -0.6231379319797109 
4.14000000000369, -0.6263541960785305 
4.150000000003667, -0.6308660151273194 
4.1600000000036434, -0.6369044958837036 
4.17000000000362, -0.6446142065993454 
4.180000000003597, -0.6539189782063832 
4.1900000000035735, -0.6643559592159902 
4.20000000000355, -0.6750102723038499 
4.210000000003527, -0.6847348544566656 
4.220000000003504, -0.6926240830174647 
4.23000000000348, -0.6983668024372787 
4.240000000003457, -0.7021917040467652 
4.250000000003434, -0.7045638246106023 
4.26000000000341, -0.7059320738835722 
4.270000000003387, -0.7066277285652963 
4.280000000003364, -0.7068593902237508 
4.2900000000033405, -0.7067376744041263 
4.300000000003317, -0.7062963569535765 
4.310000000003294, -0.7054990595441198 
4.320000000003271, -0.7042272991325038 
4.330000000003247, -0.7022443976119054 
4.340000000003224, -0.6991267767924266 
4.350000000003201, -0.6941601922736916 
4.360000000003177, -0.6862434056388611 
4.370000000003154, -0.6739775002775997 
4.380000000003131, -0.6562908701206698 
4.390000000003107, -0.6336637473918164 
4.400000000003084, -0.6088359594499237 
4.410000000003061, -0.5855884470088774 
4.4200000000030375, -0.5665871716779287 
4.430000000003014, -0.5525427930377795 
4.440000000002991, -0.5428447685577554 
4.450000000002968, -0.536446374868297 
4.460000000002944, -0.5323654355314114 
4.470000000002921, -0.5298423282458358 
4.480000000002898, -0.5283385180320478 
4.490000000002874, -0.5274886140969718 
4.500000000002851, -0.5270507452935381 
4.510000000002828, -0.5268673993545167 
4.520000000002804, -0.5268374314907767 
4.530000000002781, -0.5268971270097424 
4.540000000002758, -0.5270081425854226 
4.5500000000027345, -0.5271506382116387 
4.560000000002711, -0.5273201188885968 
4.570000000002688, -0.5275261237965854 
4.580000000002665, -0.5277901550824442 
4.590000000002641, -0.5281400585300736 
4.600000000002618, -0.528599491333552 
4.610000000002595, -0.529174096562959 
4.620000000002571, -0.529839405130941 
4.630000000002548, -0.5305377842200351 
4.640000000002525, -0.5311900913250912 
4.6500000000025015, -0.5317192344011472 
4.660000000002478, -0.5320725472184491 
4.670000000002455, -0.5322298993911491 
4.6800000000024315, -0.5321962979261351 
4.690000000002408, -0.5319878294210059 
4.700000000002385, -0.5316195701740518 
4.710000000002362, -0.5310985298582569 
4.720000000002338, -0.530420688381646 
4.730000000002315, -0.5295700647578355 
4.740000000002292, -0.5285174671419827 
4.750000000002268, -0.5272141017649574 
4.760000000002245, -0.5255653587476472 
4.770000000002222, -0.5233430398937652 
4.7800000000021985, -0.5199471688978391 
4.790000000002175, -0.5139497057457277 
4.800000000002152, -0.5028053143353826 
4.810000000002129, -0.4841321431010214 
4.820000000002105, -0.4590067546825599 
4.830000000002082, -0.4328560686827365 
4.840000000002059, -0.41109674410694313 
4.850000000002035, -0.3956031388547132 
4.860000000002012, -0.3855196236850874 
4.870000000001989, -0.37924136967031946 
4.880000000001965, -0.37540752160889557 
4.890000000001942, -0.3730896075428853 
4.900000000001919, -0.3717053644746374 
4.9100000000018955, -0.37090139813605727 
4.920000000001872, -0.37046593505784836 
