t, s[1].omega / s[0].omega 
0, -1.2600559811386056 
0.009999999999999995, -1.2693314933531588 
0.019999999999999934, -1.2818476288745817 
0.029999999999999874, -1.2925357632493333 
0.04000000000000012, -1.2996891351758113 
0.050000000000000405, -1.3038533792478924 
0.06000000000000069, -1.3060601634025604 
0.07000000000000098, -1.3071011849658705 
0.08000000000000126, -1.3074513942209383 
0.09000000000000155, -1.307364168204578 
0.10000000000000184, -1.3069681295492945 
0.11000000000000212, -1.306348623075808 
0.12000000000000241, -1.3056410251138069 
0.130000000000002, -1.3051468426684771 
0.1400000000000009, -1.305384865226195 
0.1499999999999998, -1.3068876296227077 
0.1599999999999987, -1.309781844566953 
0.1699999999999976, -1.313626691735101 
0.1799999999999965, -1.317727761811382 
0.1899999999999954, -1.3215176564543238 
0.1999999999999943, -1.3246838821244094 
0.2099999999999932, -1.3271176952157904 
0.2199999999999921, -1.328832313380774 
0.229999999999991, -1.3299052873026418 
0.2399999999999899, -1.3304426117444201 
0.2499999999999888, -1.330554894628629 
0.2599999999999877, -1.3303437095837245 
0.2699999999999866, -1.3299000282418265 
0.2799999999999855, -1.329313249317042 
0.2899999999999844, -1.32868169816227 
0.2999999999999833, -1.3281098051254498 
0.3099999999999822, -1.3276860601756746 
0.3199999999999811, -1.3274580710864157 
0.32999999999998, -1.327423596734027 
0.3399999999999789, -1.3275345926713222 
0.3499999999999778, -1.3277081004502949 
0.35999999999997667, -1.3278461053172377 
0.36999999999997557, -1.3278555068251665 
0.37999999999997447, -1.3276544780792825 
0.38999999999997337, -1.3271666069620192 
0.39999999999997227, -1.3263144252336645 
0.40999999999997117, -1.325020249620253 
0.41999999999997006, -1.3232148790292897 
0.42999999999996896, -1.3208515777452932 
0.43999999999996786, -1.3179261058963974 
0.44999999999996676, -1.3145099337151904 
0.45999999999996566, -1.3108023702224336 
0.46999999999996456, -1.307178749762629 
0.47999999999996346, -1.3041488611270189 
0.48999999999996235, -1.3021341287709698 
0.49999999999996125, -1.3011858722811351 
0.5099999999999602, -1.3009711267824702 
0.519999999999959, -1.3010523051821326 
0.529999999999958, -1.3011185630632642 
0.5399999999999568, -1.3010062640688627 
0.5499999999999557, -1.300614642363886 
0.5599999999999546, -1.2998168624852817 
0.5699999999999535, -1.298378198125935 
0.5799999999999524, -1.2958584741063304 
0.5899999999999513, -1.29149580983017 
0.5999999999999502, -1.28416777986196 
0.6099999999999491, -1.2727676091560582 
0.619999999999948, -1.2575129820957398 
0.6299999999999469, -1.241713824306265 
0.6399999999999458, -1.2309866227647261 
0.6499999999999447, -1.2284216677829982 
0.6599999999999436, -1.2317895004892865 
0.6699999999999425, -1.2368459606973081 
0.6799999999999414, -1.2410317193034839 
0.6899999999999403, -1.2437614069801208 
0.6999999999999392, -1.2453003096834403 
0.7099999999999381, -1.2460310847023686 
0.719999999999937, -1.2462270966558733 
0.7299999999999359, -1.2460366082463283 
0.7399999999999348, -1.2455148380495336 
0.7499999999999337, -1.2446638931308889 
0.7599999999999326, -1.2435019076092713 
0.7699999999999315, -1.2422203339048754 
0.7799999999999304, -1.2414644760366362 
0.7899999999999293, -1.2425278257579364 
0.7999999999999282, -1.2468713675390384 
0.8099999999999271, -1.254864910354102 
0.819999999999926, -1.2651287108560236 
0.8299999999999249, -1.2754703669307914 
0.8399999999999238, -1.284228860349819 
0.8499999999999227, -1.2907530597502643 
0.8599999999999216, -1.2951459599215873 
0.8699999999999205, -1.2978494572433574 
0.8799999999999194, -1.2993515855167026 
0.8899999999999183, -1.3000502895029729 
0.8999999999999172, -1.3002240759165153 
0.9099999999999161, -1.3000550450142776 
0.919999999999915, -1.2996706656580819 
0.9299999999999139, -1.299189348122188 
0.9399999999999128, -1.2987559035370693 
0.9499999999999117, -1.2985390187266668 
0.9599999999999106, -1.2986716662131141 
0.9699999999999095, -1.2991782560093266 
0.9799999999999084, -1.2999672364751371 
0.9899999999999073, -1.3008915714762619 
0.9999999999999062, -1.3018101801371658 
1.0099999999999052, -1.3026147758011608 
1.019999999999904, -1.3032321281540507 
1.029999999999903, -1.3036172485366553 
1.039999999999902, -1.3037451471085875 
1.0499999999999008, -1.3036045084441716 
1.0599999999998997, -1.3031942784829151 
1.0699999999998986, -1.302522868893237 
1.0799999999998975, -1.3016097035320526 
1.0899999999998964, -1.3004892895167477 
1.0999999999998953, -1.2992175245699178 
1.1099999999998942, -1.297878100497639 
1.119999999999893, -1.296584683283037 
1.129999999999892, -1.2954709925896282 
1.1399999999998909, -1.294656052111682 
1.1499999999998898, -1.2941861291308592 
1.1599999999998887, -1.293998099823491 
1.1699999999998876, -1.2939502153879574 
1.1799999999998865, -1.2938896371477173 
1.1899999999998854, -1.2936891233326668 
1.1999999999998843, -1.2932352691957822 
1.2099999999998832, -1.2923926204259077 
1.219999999999882, -1.2909659425655007 
1.229999999999881, -1.2886740388050375 
1.2399999999998799, -1.2851532585610859 
1.2499999999998788, -1.280019908544829 
1.2599999999998777, -1.2730227045370324 
1.2699999999998766, -1.2642946584640808 
1.2799999999998755, -1.254636268632318 
1.2899999999998744, -1.2455753581758007 
1.2999999999998733, -1.2388117010250705 
1.3099999999998722, -1.2351608784307997 
1.319999999999871, -1.2340696662668988 
1.32999999999987, -1.2343099097362509 
1.3399999999998689, -1.2348959613794592 
1.3499999999998678, -1.2353525583852003 
1.3599999999998666, -1.2355341219358837 
1.3699999999998655, -1.2354122633250861 
1.3799999999998644, -1.2349556218316946 
1.3899999999998633, -1.2340678998206767 
1.3999999999998622, -1.2325389262152515 
1.4099999999998611, -1.229994181395162 
1.41999999999986, -1.2258895031179373 
1.429999999999859, -1.2197355526144888 
1.4399999999998578, -1.2118908759222373 
1.4499999999998567, -1.204826511870785 
1.4599999999998556, -1.2029874377390715 
1.4699999999998545, -1.2091475482325156 
1.4799999999998534, -1.2209289008961137 
1.4899999999998523, -1.2331645403518063 
1.4999999999998512, -1.2425204842754973 
1.5099999999998501, -1.2484974262276975 
1.519999999999849, -1.2519194594976715 
1.529999999999848, -1.253716892398284 
1.5399999999998468, -1.2545413679347923 
1.5499999999998457, -1.2547733863708195 
1.5599999999998446, -1.254612522543719 
1.5699999999998435, -1.2541566579387333 
1.5799999999998424, -1.253470879279014 
1.5899999999998413, -1.2526762153775755 
1.5999999999998402, -1.25207824932882 
1.6099999999998391, -1.252265235794177 
1.619999999999838, -1.253958583419391 
1.629999999999837, -1.257525032575602 
1.6399999999998358, -1.2625999522601297 
1.6499999999998347, -1.2683035880577873 
1.6599999999998336, -1.2737650207575733 
1.6699999999998325, -1.2784270272983258 
1.6799999999998314, -1.282059147626411 
1.6899999999998303, -1.2846578919325742 
1.6999999999998292, -1.2863476406536307 
1.709999999999828, -1.2873058597835407 
1.719999999999827, -1.2877114167019243 
1.729999999999826, -1.2877165482162622 
1.7399999999998248, -1.2874419622425126 
1.7499999999998237, -1.286989781180162 
1.7599999999998226, -1.2864642718743053 
1.7699999999998215, -1.2859838443971876 
1.7799999999998204, -1.285665864622313 
1.7899999999998193, -1.2855868269851656 
1.7999999999998182, -1.2857529655856303 
1.809999999999817, -1.2861079226418732 
1.819999999999816, -1.2865619493349687 
1.8299999999998149, -1.2870178016377714 
1.8399999999998138, -1.287387388739392 
1.8499999999998127, -1.2876000103777427 
1.8599999999998116, -1.2876027645011345 
1.8699999999998105, -1.2873570181470266 
1.8799999999998094, -1.2868355542756862 
1.8899999999998083, -1.2860218881088539 
1.8999999999998072, -1.2849111964840425 
1.909999999999806, -1.2835130270053063 
1.919999999999805, -1.2818573194606298 
1.9299999999998039, -1.2800051134422543 
1.9399999999998028, -1.2780628200482678 
1.9499999999998017, -1.2761923366504484 
1.9599999999998006, -1.274596109264601 
1.9699999999997995, -1.2734511968348516 
1.9799999999997984, -1.2728111657806043 
1.9899999999997973, -1.2725664048263936 
1.9999999999997962, -1.2725152050387976 
2.0099999999998173, -1.2724665510228885 
2.0199999999998384, -1.272280236930709 
2.0299999999998595, -1.2718421273801022 
2.0399999999998806, -1.2710142959304682 
2.0499999999999017, -1.2695815385739084 
2.059999999999923, -1.2672003314428182 
2.069999999999944, -1.2633676169493522 
2.079999999999965, -1.2574614852022372 
2.089999999999986, -1.248942641850102 
2.100000000000007, -1.2377842064082483 
2.1100000000000283, -1.225012232052242 
2.1200000000000494, -1.212850513564945 
2.1300000000000705, -1.203807027848082 
2.1400000000000916, -1.1990412154853005 
2.1500000000001127, -1.1977401460265167 
2.160000000000134, -1.198200220715067 
2.170000000000155, -1.1991009808413262 
2.180000000000176, -1.199831868720032 
2.190000000000197, -1.2002285306243257 
2.2000000000002182, -1.200288833648997 
2.2100000000002393, -1.2000239923716418 
2.2200000000002604, -1.1993957734778908 
2.2300000000002815, -1.1982807370016 
2.2400000000003026, -1.1964353350419341 
2.2500000000003237, -1.193476679595141 
2.260000000000345, -1.18897375166769 
2.270000000000366, -1.182876982727911 
2.280000000000387, -1.1764650762923998 
2.290000000000408, -1.173063038205097 
2.3000000000004293, -1.176430205874706 
2.3100000000004504, -1.1869100310777587 
2.3200000000004715, -1.2004579299272458 
2.3300000000004926, -1.2124744021822358 
2.3400000000005137, -1.220963238030865 
2.3500000000005348, -1.2261763417833573 
2.360000000000556, -1.2290996982585816 
2.370000000000577, -1.2306052895368564 
2.380000000000598, -1.231261966581627 
2.390000000000619, -1.2313922192811506 
2.4000000000006403, -1.2311620108016506 
2.4100000000006614, -1.2306526877982358 
2.4200000000006825, -1.2299270043772004 
2.4300000000007036, -1.2291205627877484 
2.4400000000007247, -1.2285734307833773 
2.450000000000746, -1.2289187294923285 
2.460000000000767, -1.2309058562692088 
2.470000000000788, -1.2348920404701742 
2.480000000000809, -1.2404716438731866 
2.49000000000083, -1.2467066674809273 
2.5000000000008513, -1.252664019525542 
2.5100000000008724, -1.2577378295708703 
2.5200000000008935, -1.261675680775699 
2.5300000000009146, -1.2644794393621652 
2.5400000000009357, -1.266296299545237 
2.550000000000957, -1.26733100362989 
2.560000000000978, -1.2677848571344288 
2.570000000000999, -1.2678244775459508 
2.58000000000102, -1.2675778579528554 
2.5900000000010412, -1.2671498188716117 
2.6000000000010624, -1.2666460146310792 
2.6100000000010835, -1.266189361029108 
2.6200000000011046, -1.2659082808901518 
2.6300000000011257, -1.2658935243194753 
2.6400000000011468, -1.2661587318360992 
2.650000000001168, -1.2666429888808468 
2.660000000001189, -1.267245990430468 
2.67000000000121, -1.2678620276988686 
2.680000000001231, -1.268399190504368 
2.6900000000012523, -1.2687868016456232 
2.7000000000012734, -1.26897517406321 
2.7100000000012945, -1.2689316307859788 
2.7200000000013156, -1.2686365403361861 
2.7300000000013367, -1.2680810274280003 
2.740000000001358, -1.2672664312941238 
2.750000000001379, -1.2662056619829438 
2.7600000000014, -1.264927074935184 
2.770000000001421, -1.2634810551876374 
2.780000000001442, -1.261947863660302 
2.7900000000014633, -1.2604426270207336 
2.8000000000014844, -1.2591086533672642 
2.8100000000015055, -1.2580848927664041 
2.8200000000015266, -1.2574453436387834 
2.8300000000015477, -1.2571505221858685 
2.840000000001569, -1.257065022803609 
2.85000000000159, -1.2570268265201214 
2.860000000001611, -1.2568987545311017 
2.870000000001632, -1.2565695202892324 
2.8800000000016532, -1.2559232591594585 
2.8900000000016743, -1.2548026819203897 
2.9000000000016954, -1.2529797834902325 
2.9100000000017165, -1.250147535203424 
2.9200000000017377, -1.2459545142562984 
2.9300000000017588, -1.2401068607644123 
2.94000000000178, -1.2325460224739542 
2.950000000001801, -1.223671619898777 
2.960000000001822, -1.2144963126009702 
2.970000000001843, -1.2064918349228475 
2.9800000000018643, -1.2009381360112428 
2.9900000000018854, -1.19814954399004 
3.0000000000019065, -1.197404688184474 
3.0100000000019276, -1.1976477159705792 
3.0200000000019487, -1.1981163575178422 
3.03000000000197, -1.198452758372347 
3.040000000001991, -1.1985402481346967 
3.050000000002012, -1.1983418490911621 
3.060000000002033, -1.1978062057294157 
3.070000000002054, -1.196810271253341 
3.0800000000020753, -1.1951028210757617 
3.0900000000020964, -1.192233271975887 
3.1000000000021175, -1.187496521109551 
3.1100000000021386, -1.180041319943446 
3.1200000000021597, -1.169465969411459 
3.130000000002181, -1.1570601306957418 
3.140000000002202, -1.146556496774425 
3.150000000002223, -1.1421214171937115 
3.160000000002244, -1.1445743856582582 
3.1700000000022652, -1.1508784910650571 
3.1800000000022863, -1.157426907955084 
3.1900000000023074, -1.1624090073852649 
3.2000000000023285, -1.1656175108018094 
3.2100000000023496, -1.1674676665158366 
3.2200000000023707, -1.1684115800903723 
3.230000000002392, -1.168765585988639 
3.240000000002413, -1.168708944741377 
3.250000000002434, -1.1683186906813585 
3.260000000002455, -1.167601621432631 
3.2700000000024763, -1.1665300152546954 
3.2800000000024974, -1.1651178861561726 
3.2900000000025185, -1.1636031420603201 
3.3000000000025396, -1.1627672603719448 
3.3100000000025607, -1.1641647522949412 
3.3200000000025818, -1.169627723123891 
3.330000000002603, -1.179814778124272 
3.340000000002624, -1.193172650984317 
3.350000000002645, -1.2068004651062665 
3.360000000002666, -1.2182931452628853 
3.3700000000026873, -1.2266837326218538 
3.3800000000027084, -1.2321755815081705 
3.3900000000027295, -1.2354698227513954 
3.4000000000027506, -1.2372827063033132 
3.4100000000027717, -1.2381545527649478 
3.420000000002793, -1.2384357849900574 
3.430000000002814, -1.2383367708372746 
3.440000000002835, -1.2379873243677788 
3.450000000002856, -1.237494317467175 
3.460000000002877, -1.236998698329373 
3.4700000000028983, -1.2367158065799952 
3.4800000000029194, -1.2369099159994152 
3.4900000000029405, -1.2377739356931434 
3.5000000000029616, -1.2393012251842364 
3.5100000000029827, -1.241286882724226 
3.520000000003004, -1.2434494391883315 
3.530000000003025, -1.2455450271173332 
3.540000000003046, -1.2474086428240436 
3.550000000003067, -1.2489458056026925 
3.5600000000030882, -1.2501118800835285 
3.5700000000031094, -1.2508962826881622 
3.5800000000031305, -1.2513134634599212 
3.5900000000031516, -1.2513969106517837 
3.6000000000031727, -1.2511932993218289 
3.6100000000031938, -1.250757726967405 
3.620000000003215, -1.250152983670031 
3.630000000003236, -1.2494529334359321 
3.640000000003257, -1.2487440529545473 
3.650000000003278, -1.2481168753450462 
3.6600000000032993, -1.247647097490791 
3.6700000000033204, -1.247376848946601 
3.6800000000033415, -1.2473043896849312 
3.6900000000033626, -1.2473830689804408 
3.7000000000033837, -1.2475320653029087 
3.710000000003405, -1.2476578035846289 
3.720000000003426, -1.247673032913458 
3.730000000003447, -1.2475027580961127 
3.740000000003468, -1.2470804844191272 
3.750000000003489, -1.2463447331769233 
3.7600000000035103, -1.2452414783663435 
3.7700000000035314, -1.2437314899297691 
3.7800000000035525, -1.2417987592907234 
3.7900000000035736, -1.239458764391559 
3.8000000000035947, -1.2367699635967164 
3.810000000003616, -1.2338525932060098 
3.820000000003637, -1.2309104443999994 
3.830000000003658, -1.2282309939905351 
3.840000000003679, -1.2261204310465779 
3.8500000000037002, -1.224764830358069 
3.8600000000037213, -1.2241168561194886 
3.8700000000037424, -1.2239352973917383 
3.8800000000037635, -1.223938610268831 
3.8900000000037847, -1.223916010608912 
3.9000000000038058, -1.2237350506336282 
3.910000000003827, -1.2232928719441902 
3.920000000003848, -1.2224580416723057 
3.930000000003869, -1.2210134654951563 
3.94000000000389, -1.218597326700786 
3.9500000000039113, -1.214655259448746 
3.9600000000039324, -1.2084620168121059 
3.9700000000039535, -1.1993288466222292 
3.9800000000039746, -1.187100696067545 
3.9900000000039957, -1.17280791424117 
4.000000000004016, -1.1588628329304622 
4.010000000003993, -1.1480834749363122 
4.02000000000397, -1.1419500047075064 
4.030000000003946, -1.1398401077269091 
4.040000000003923, -1.1400054680416516 
4.0500000000039, -1.1409262775685645 
4.0600000000038765, -1.1418051314716662 
4.070000000003853, -1.1423770765072851 
4.08000000000383, -1.1426103988676248 
4.090000000003807, -1.142526153026182 
4.100000000003783, -1.1421187380132876 
4.11000000000376, -1.141317901139605 
4.120000000003737, -1.1399544067458904 
4.130000000003713, -1.1377153738615995 
4.14000000000369, -1.1341062327178195 
4.150000000003667, -1.1285064028498557 
4.1600000000036434, -1.1205251521945212 
4.17000000000362, -1.1108449142980197 
4.180000000003597, -1.1020516479677465 
4.1900000000035735, -1.097824729415445 
4.20000000000355, -1.1000077657090972 
4.210000000003527, -1.1068193955112504 
4.220000000003504, -1.1147352578049667 
4.23000000000348, -1.1212922902747908 
4.240000000003457, -1.1258004554108818 
4.250000000003434, -1.1285623458503398 
4.26000000000341, -1.1301055964044933 
4.270000000003387, -1.1308578863662575 
4.280000000003364, -1.1310906949366157 
4.2900000000033405, -1.1309480851270606 
4.300000000003317, -1.1304827100098804 
4.310000000003294, -1.129683229169871 
4.320000000003271, -1.128505956141716 
4.330000000003247, -1.1269484977149231 
4.340000000003224, -1.1252318747609622 
4.350000000003201, -1.1241327850506022 
4.360000000003177, -1.1252689835075014 
4.370000000003154, -1.1307033844936478 
4.380000000003131, -1.1414561092773445 
4.390000000003107, -1.1561173149231263 
4.400000000003084, -1.1714489979207543 
4.410000000003061, -1.1845109507096343 
4.4200000000030375, -1.1940325442438362 
4.430000000003014, -1.2002174375199712 
4.440000000002991, -1.2039011712711938 
4.450000000002968, -1.2059296596800373 
4.460000000002944, -1.2069264891873703 
4.470000000002921, -1.2072858536293345 
4.480000000002898, -1.2072367142359044 
4.490000000002874, -1.2069106250043236 
4.500000000002851, -1.2064022533602698 
4.510000000002828, -1.2058322002868764 
4.520000000002804, -1.2054123925894182 
4.530000000002781, -1.2054718873968482 
4.540000000002758, -1.2063647604051453 
4.5500000000027345, -1.2082655502294177 
4.560000000002711, -1.2110331321006111 
4.570000000002688, -1.2142913690770412 
4.580000000002665, -1.2176248069353555 
4.590000000002641, -1.220711601754811 
4.600000000002618, -1.2233526582232275 
4.610000000002595, -1.225450090364328 
4.620000000002571, -1.226980217945132 
4.630000000002548, -1.227973235035516 
4.640000000002525, -1.2284953671111452 
4.6500000000025015, -1.2286304159882655 
4.660000000002478, -1.228464374525127 
4.670000000002455, -1.2280790379880033 
4.6800000000024315, -1.2275563262785494 
4.690000000002408, -1.2269876703490084 
4.700000000002385, -1.2264759635755604 
4.710000000002362, -1.2261188597501238 
4.720000000002338, -1.2259791460233678 
4.730000000002315, -1.22606514739589 
4.740000000002292, -1.2263345250830484 
4.750000000002268, -1.2267123410231418 
4.760000000002245, -1.2271110014241695 
4.770000000002222, -1.2274470347508635 
4.7800000000021985, -1.227651259712483 
4.790000000002175, -1.2276711168960304 
4.800000000002152, -1.2274686830654267 
4.810000000002129, -1.2270186608241829 
4.820000000002105, -1.2263076974490836 
4.830000000002082, -1.2253344821363987 
4.840000000002059, -1.224110701430287 
4.850000000002035, -1.2226640600606615 
4.860000000002012, -1.2210442614734318 
4.870000000001989, -1.2193309507560421 
4.880000000001965, -1.217639571960515 
4.890000000001942, -1.216116337283259 
4.900000000001919, -1.2149088503614867 
4.9100000000018955, -1.2141086837675352 
4.920000000001872, -1.2136986258525384 
4.930000000001849, -1.2135573362337586 
4.940000000001826, -1.2135218723389742 
