t, s[1].omega / s[0].omega 
0, -0.4800599843014597 
0.009999999999999995, -0.48629908074734907 
0.019999999999999934, -0.4925834034248231 
0.029999999999999874, -0.49823532114474756 
0.04000000000000012, -0.5027748146650229 
0.050000000000000405, -0.5060775027919129 
0.06000000000000069, -0.5082972312858678 
0.07000000000000098, -0.509691795121112 
0.08000000000000126, -0.5104993988292882 
0.09000000000000155, -0.5108936740140029 
0.10000000000000184, -0.5109827893297914 
0.11000000000000212, -0.5108210176354735 
0.12000000000000241, -0.5104183070980429 
0.130000000000002, -0.5097441375147945 
0.1400000000000009, -0.5087270362480498 
0.1499999999999998, -0.5072554262205227 
0.1599999999999987, -0.5051918175165663 
0.1699999999999976, -0.5024171674893451 
0.1799999999999965, -0.4989099530875798 
0.1899999999999954, -0.49482107106073314 
0.1999999999999943, -0.4904684252659514 
0.2099999999999932, -0.4862247990021242 
0.2199999999999921, -0.4823805426221804 
0.229999999999991, -0.4790796536466383 
0.2399999999999899, -0.4763404189252829 
0.2499999999999888, -0.474110113199851 
0.2599999999999877, -0.4723120969868445 
0.2699999999999866, -0.47087322258613085 
0.2799999999999855, -0.4697355434224072 
0.2899999999999844, -0.4688592941786288 
0.2999999999999833, -0.4682222663157113 
0.3099999999999822, -0.46781846353156364 
0.3199999999999811, -0.4676574362323003 
0.32999999999998, -0.4677649346179954 
0.3399999999999789, -0.4681852091681139 
0.3499999999999778, -0.46898513850868123 
0.35999999999997667, -0.4702600667923223 
0.36999999999997557, -0.47214031523131067 
0.37999999999997447, -0.4747949571077366 
0.38999999999997337, -0.4784243398482778 
0.39999999999997227, -0.48322440017662327 
0.40999999999997117, -0.4892992708233095 
0.41999999999997006, -0.4965159023445951 
0.42999999999996896, -0.5043694615343017 
0.43999999999996786, -0.5120268433850277 
0.44999999999996676, -0.5186447599406824 
0.45999999999996566, -0.5237475242786813 
0.46999999999996456, -0.5273301677196172 
0.47999999999996346, -0.5296747133759807 
0.48999999999996235, -0.5311232622558464 
0.49999999999996125, -0.5319564140715963 
0.5099999999999602, -0.5323658310336656 
0.519999999999959, -0.5324665463098455 
0.529999999999958, -0.5323152573587373 
0.5399999999999568, -0.5319228042552384 
0.5499999999999557, -0.5312593215733947 
0.5599999999999546, -0.5302546582919483 
0.5699999999999535, -0.5288003433829066 
0.5799999999999524, -0.5267650716972296 
0.5899999999999513, -0.5240392129894725 
0.5999999999999502, -0.5206102450386775 
0.6099999999999491, -0.5166297527596586 
0.619999999999948, -0.5124024928449311 
0.6299999999999469, -0.5082793512938987 
0.6399999999999458, -0.5045321898857801 
0.6499999999999447, -0.5012975072495456 
0.6599999999999436, -0.4985960596341291 
0.6699999999999425, -0.4963826688914229 
0.6799999999999414, -0.4945892141231423 
0.6899999999999403, -0.49314992148621667 
0.6999999999999392, -0.4920123516943285 
0.7099999999999381, -0.49114028664568926 
0.719999999999937, -0.4905131661648549 
0.7299999999999359, -0.49012472610522406 
0.7399999999999348, -0.4899821270315813 
0.7499999999999337, -0.49010614532097563 
0.7599999999999326, -0.4905326770626239 
0.7699999999999315, -0.4913156135729042 
0.7799999999999304, -0.4925308081554462 
0.7899999999999293, -0.49427998683111146 
0.7999999999999282, -0.4966914687090883 
0.8099999999999271, -0.4999107367800244 
0.819999999999926, -0.5040684468229238 
0.8299999999999249, -0.5092112314294825 
0.8399999999999238, -0.5151971278914119 
0.8499999999999227, -0.5216110192371591 
0.8599999999999216, -0.5278132295002151 
0.8699999999999205, -0.533172416237123 
0.8799999999999194, -0.5373293462383828 
0.8899999999999183, -0.5402704961151281 
0.8999999999999172, -0.5422017306297018 
0.9099999999999161, -0.543383743748479 
0.919999999999915, -0.5440365841276614 
0.9299999999999139, -0.5443126521032694 
0.9399999999999128, -0.5443016384473973 
0.9499999999999117, -0.5440416476544794 
0.9599999999999106, -0.5435259595465165 
0.9699999999999095, -0.5427029765415484 
0.9799999999999084, -0.5414709241702612 
0.9899999999999073, -0.539673874994159 
0.9999999999999062, -0.537115099327717 
1.0099999999999052, -0.5336134080187707 
1.019999999999904, -0.5291148058331181 
1.029999999999903, -0.5238078982668208 
1.039999999999902, -0.5181265383108051 
1.0499999999999008, -0.5125906457168251 
1.0599999999998997, -0.5076051352377997 
1.0699999999998986, -0.5033675610596996 
1.0799999999998975, -0.4998998839598249 
1.0899999999998964, -0.4971270767423735 
1.0999999999998953, -0.494942134859161 
1.1099999999998942, -0.49324214105953457 
1.119999999999893, -0.49194256363119787 
1.129999999999892, -0.49098001646006395 
1.1399999999998909, -0.49031041682988263 
1.1499999999998898, -0.48990614838848556 
1.1599999999998887, -0.4897538020137972 
1.1699999999998876, -0.48985306471100165 
1.1799999999998865, -0.4902168947215061 
1.1899999999998854, -0.4908729036700425 
1.1999999999998843, -0.4918655860472397 
1.2099999999998832, -0.49325840196249393 
1.219999999999882, -0.49513336860913293 
1.229999999999881, -0.4975834247396541 
1.2399999999998799, -0.50068979850522 
1.2499999999998788, -0.5044761165271914 
1.2599999999998777, -0.5088418663100545 
1.2699999999998766, -0.5135093383043411 
1.2799999999998755, -0.5180509717287566 
1.2899999999998744, -0.5220303959061234 
1.2999999999998733, -0.5251736892234864 
1.3099999999998722, -0.5274350388547122 
1.319999999999871, -0.5289314414192414 
1.32999999999987, -0.529835641712588 
1.3399999999998689, -0.5303032720631669 
1.3499999999998678, -0.5304450603683523 
1.3599999999998666, -0.5303240158156638 
1.3699999999998655, -0.5299592076565792 
1.3799999999998644, -0.5293267773129254 
1.3899999999998633, -0.528354859720664 
1.3999999999998622, -0.5269130681889175 
1.4099999999998611, -0.5248036056888133 
1.41999999999986, -0.5217743460204871 
1.429999999999859, -0.5175896970560772 
1.4399999999998578, -0.512179694132185 
1.4499999999998567, -0.5057969986008294 
1.4599999999998556, -0.499014739210219 
1.4699999999998545, -0.4924995897625152 
1.4799999999998534, -0.48674186445415435 
1.4899999999998523, -0.4819505880184468 
1.4999999999998512, -0.47811462825746787 
1.5099999999998501, -0.4751129639488667 
1.519999999999849, -0.4727967772274485 
1.529999999999848, -0.4710306460992258 
1.5399999999998468, -0.4697064435899699 
1.5499999999998457, -0.4687441723381774 
1.5599999999998446, -0.4680882770330858 
1.5699999999998435, -0.46770345183526923 
1.5799999999998424, -0.4675715030459462 
1.5899999999998413, -0.46768973437270034 
1.5999999999998402, -0.46807090739519264 
1.6099999999998391, -0.4687446473086626 
1.619999999999838, -0.469759896859815 
1.629999999999837, -0.471187344424765 
1.6399999999998358, -0.47311924440309594 
1.6499999999998347, -0.47566129043028527 
1.6599999999998336, -0.47890756270059487 
1.6699999999998325, -0.48288874570804563 
1.6799999999998314, -0.4874964818232301 
1.6899999999998303, -0.49242413687105585 
1.6999999999998292, -0.49720195211624285 
1.709999999999828, -0.5013605736631931 
1.719999999999827, -0.5046193582700005 
1.729999999999826, -0.5069472476901458 
1.7399999999998248, -0.5084812658301472 
1.7499999999998237, -0.5094090764131072 
1.7599999999998226, -0.5098946411449895 
1.7699999999998215, -0.5100527057483923 
1.7799999999998204, -0.509948349456548 
1.7899999999998193, -0.5096024317291248 
1.7999999999998182, -0.5089941065115455 
1.809999999999817, -0.5080580951248794 
1.819999999999816, -0.506678853104615 
1.8299999999998149, -0.5046903239990614 
1.8399999999998138, -0.5019006223544749 
1.8499999999998127, -0.4981664805532092 
1.8599999999998116, -0.49351353812646226 
1.8699999999998105, -0.48822307189322284 
1.8799999999998094, -0.482773521661104 
1.8899999999998083, -0.47764757977283717 
1.8999999999998072, -0.4731614521484393 
1.909999999999806, -0.46942666963515645 
1.919999999999805, -0.46641088802711234 
1.9299999999998039, -0.46401631454458236 
1.9399999999998028, -0.4621333836199598 
1.9499999999998017, -0.46066662890482923 
1.9599999999998006, -0.45954301378919016 
1.9699999999997995, -0.4587120840241842 
1.9799999999997984, -0.45814348188626297 
1.9899999999997973, -0.45782448927619335 
1.9999999999997962, -0.457758712281786 
2.0099999999998173, -0.4579663341587409 
2.0199999999998384, -0.4584861085883353 
2.0299999999998595, -0.4593791042420274 
2.0399999999998806, -0.46073381027794413 
2.0499999999999017, -0.46267107276759256 
2.059999999999923, -0.46534462885337546 
2.069999999999944, -0.4689277406977229 
2.079999999999965, -0.4735691880409478 
2.089999999999986, -0.47930078814419 
2.100000000000007, -0.4859072112799131 
2.1100000000000283, -0.4928463604811616 
2.1200000000000494, -0.49936341742188917 
2.1300000000000705, -0.5048055400457531 
2.1400000000000916, -0.5088892570388054 
2.1500000000001127, -0.5117006330864557 
2.160000000000134, -0.5135099406288461 
2.170000000000155, -0.5146009078320282 
2.180000000000176, -0.5151934197489912 
2.190000000000197, -0.5154320721385155 
2.2000000000002182, -0.515398453253134 
2.2100000000002393, -0.5151246859204566 
2.2200000000002604, -0.5146012158623845 
2.2300000000002815, -0.513778855643366 
2.2400000000003026, -0.5125689364181933 
2.2500000000003237, -0.510850299680611 
2.260000000000345, -0.5084976689507628 
2.270000000000366, -0.5054432175527774 
2.280000000000387, -0.5017549492646524 
2.290000000000408, -0.4976709432303362 
2.3000000000004293, -0.49353439483292466 
2.3100000000004504, -0.4896638780158911 
2.3200000000004715, -0.48625774397746235 
2.3300000000004926, -0.4833821610643231 
2.3400000000005137, -0.4810133758118568 
2.3500000000005348, -0.47908719398547817 
2.360000000000556, -0.4775328981196987 
2.370000000000577, -0.4762902257924512 
2.380000000000598, -0.4753153622992287 
2.390000000000619, -0.4745816159750157 
2.4000000000006403, -0.4740783637538318 
2.4100000000006614, -0.4738101424521039 
2.4200000000006825, -0.4737967667613742 
2.4300000000007036, -0.4740748982723918 
2.4400000000007247, -0.4747013026993535 
2.450000000000746, -0.4757578337060022 
2.460000000000767, -0.4773575993456827 
2.470000000000788, -0.47965016615658856 
2.480000000000809, -0.4828199763228495 
2.49000000000083, -0.4870653071166612 
2.5000000000008513, -0.4925368451013865 
2.5100000000008724, -0.49921826961154514 
2.5200000000008935, -0.5067772243034465 
2.5300000000009146, -0.5145133179963289 
2.5400000000009357, -0.5215578808713126 
2.550000000000957, -0.5272582003118149 
2.560000000000978, -0.5314185763555184 
2.570000000000999, -0.534221193431412 
2.58000000000102, -0.5359960621831286 
2.5900000000010412, -0.5370519684682786 
2.6000000000010624, -0.5376151737507536 
2.6100000000010835, -0.5378294061607903 
2.6200000000011046, -0.5377731608726039 
2.6300000000011257, -0.5374746334155106 
2.6400000000011468, -0.5369193293226089 
2.650000000001168, -0.5360512774811905 
2.660000000001189, -0.5347721755758645 
2.67000000000121, -0.5329479421031802 
2.680000000001231, -0.5304387189130635 
2.6900000000012523, -0.527165821337992 
2.7000000000012734, -0.5231982639920594 
2.7100000000012945, -0.5187917403790785 
2.7200000000013156, -0.5143186708236624 
2.7300000000013367, -0.5101266824030212 
2.740000000001358, -0.5064340707029402 
2.750000000001379, -0.5033163164923422 
2.7600000000014, -0.5007514106971795 
2.770000000001421, -0.4986729200374313 
2.780000000001442, -0.4970062221620041 
2.7900000000014633, -0.4956865120848707 
2.8000000000014844, -0.4946650200729019 
2.8100000000015055, -0.4939094953728719 
2.8200000000015266, -0.4934027289461337 
2.8300000000015477, -0.4931410428160241 
2.840000000001569, -0.4931336069003399 
2.85000000000159, -0.49340293541799696 
2.860000000001611, -0.49398667573610966 
2.870000000001632, -0.49494056795125296 
2.8800000000016532, -0.4963419290310148 
2.8900000000016743, -0.49829178022855825 
2.9000000000016954, -0.5009112174072612 
2.9100000000017165, -0.5043235106688226 
2.9200000000017377, -0.5086095583849468 
2.9300000000017588, -0.5137291588194748 
2.94000000000178, -0.5194306723604089 
2.950000000001801, -0.5252269055076535 
2.960000000001822, -0.5305241576975965 
2.970000000001843, -0.5348628712662784 
2.9800000000018643, -0.5380793752138953 
2.9900000000018854, -0.540272668890993 
3.0000000000019065, -0.5416617333484772 
3.0100000000019276, -0.5424660736939465 
3.0200000000019487, -0.5428529404472193 
3.03000000000197, -0.5429291715702952 
3.040000000001991, -0.5427486292637425 
3.050000000002012, -0.5423193993063308 
3.060000000002033, -0.5416051255673041 
3.070000000002054, -0.5405198860017169 
3.0800000000020753, -0.5389201684409036 
3.0900000000020964, -0.5366055053776778 
3.1000000000021175, -0.5333523483807324 
3.1100000000021386, -0.5290095736498734 
3.1200000000021597, -0.5236413836461037 
3.130000000002181, -0.5176109678417172 
3.140000000002202, -0.5114831110125493 
3.150000000002223, -0.5057915619124287 
3.160000000002244, -0.5008624740878524 
3.1700000000022652, -0.49679452205431884 
3.1800000000022863, -0.4935369718763029 
3.1900000000023074, -0.4909756776291057 
3.2000000000023285, -0.4889879717452953 
3.2100000000023496, -0.48746755672657044 
3.2200000000023707, -0.4863316017473842 
3.230000000002392, -0.4855199211171004 
3.240000000002413, -0.48499175317843857 
3.250000000002434, -0.48472265646165313 
3.260000000002455, -0.48470247708896813 
3.2700000000024763, -0.48493465451754086 
3.2800000000024974, -0.48543684963937644 
3.2900000000025185, -0.4862426722127613 
3.3000000000025396, -0.4874038741769414 
3.3100000000025607, -0.4889914401123286 
3.3200000000025818, -0.491092184024732 
3.330000000002603, -0.4937946722273763 
3.340000000002624, -0.4971559967580673 
3.350000000002645, -0.5011448736088053 
3.360000000002666, -0.5055772920599415 
3.3700000000026873, -0.5100976764226545 
3.3800000000027084, -0.5142653097559344 
3.3900000000027295, -0.5177229268174988 
3.4000000000027506, -0.5203211525918174 
3.4100000000027717, -0.5221095520547787 
3.420000000002793, -0.5232402250818708 
3.430000000002814, -0.523876783180446 
3.440000000002835, -0.5241480479387027 
3.450000000002856, -0.5241361442944092 
3.460000000002877, -0.5238783933619383 
3.4700000000028983, -0.5233699042437886 
3.4800000000029194, -0.5225612799190932 
3.4900000000029405, -0.5213503566646496 
3.5000000000029616, -0.5195717140579366 
3.5100000000029827, -0.5169976369809226 
3.520000000003004, -0.5133801414667999 
3.530000000003025, -0.5085666546759802 
3.540000000003046, -0.5026652691955827 
3.550000000003067, -0.49612377759617826 
3.5600000000030882, -0.4895887805491449 
3.5700000000031094, -0.48362993297809115 
3.5800000000031305, -0.478560604207226 
3.5900000000031516, -0.4744435934106407 
3.6000000000031727, -0.4711921766788847 
3.6100000000031938, -0.4686654781976207 
3.620000000003215, -0.4667238069513789 
3.630000000003236, -0.46525110774585343 
3.640000000003257, -0.4641596489383769 
3.650000000003278, -0.4633875741676614 
3.6600000000032993, -0.462894778465366 
3.6700000000033204, -0.4626594167279996 
3.6800000000033415, -0.46267584271713125 
3.6900000000033626, -0.4629541713811339 
3.7000000000033837, -0.46352143232806525 
3.710000000003405, -0.4644240874772406 
3.720000000003426, -0.4657312013579924 
3.730000000003447, -0.46753635854820014 
3.740000000003468, -0.4699539671913067 
3.750000000003489, -0.4731016007016532 
3.7600000000035103, -0.47705643474564985 
3.7700000000035314, -0.4817791713600806 
3.7800000000035525, -0.4870291685596121 
3.7900000000035736, -0.4923471611398833 
3.8000000000035947, -0.49718424038065195 
3.810000000003616, -0.5011271130098889 
3.820000000003637, -0.5040384521564765 
3.830000000003658, -0.506016584592256 
3.840000000003679, -0.5072627176470322 
3.8500000000037002, -0.5079746498392979 
3.8600000000037213, -0.5083012690430102 
3.8700000000037424, -0.5083360403072602 
3.8800000000037635, -0.5081236001647811 
3.8900000000037847, -0.5076658220785332 
3.9000000000038058, -0.5069229220616677 
3.910000000003827, -0.505810209873398 
3.920000000003848, -0.5041960026667605 
3.930000000003869, -0.5019142291344469 
3.94000000000389, -0.4988130552821503 
3.9500000000039113, -0.49484954647939833 
3.9600000000039324, -0.4901874998511939 
3.9700000000039535, -0.48520092008306265 
3.9800000000039746, -0.48033959655592884 
3.9900000000039957, -0.4759556480636561 
4.000000000004016, -0.472221114013061 
4.010000000003993, -0.46915380319679745 
4.02000000000397, -0.46668595455788786 
4.030000000003946, -0.4647221371345 
4.040000000003923, -0.46317187899848306 
4.0500000000039, -0.46196289759728426 
4.0600000000038765, -0.4610439290989258 
4.070000000003853, -0.4603834206881099 
4.08000000000383, -0.45996743790015665 
4.090000000003807, -0.4597983240081159 
4.100000000003783, -0.4598947581232876 
4.11000000000376, -0.4602935039176078 
4.120000000003737, -0.46105298721134036 
4.130000000003713, -0.4622585731990447 
4.14000000000369, -0.4640285955929479 
4.150000000003667, -0.4665180631490829 
4.1600000000036434, -0.46991238003191044 
4.17000000000362, -0.47439574384046646 
4.180000000003597, -0.48007251846215315 
4.1900000000035735, -0.4868340167292361 
4.20000000000355, -0.4942293600701414 
4.210000000003527, -0.5014920527366307 
4.220000000003504, -0.5078223624914805 
4.23000000000348, -0.5127448659429402 
4.240000000003457, -0.516226043349058 
4.250000000003434, -0.5185162788891393 
4.26000000000341, -0.5199356322615507 
4.270000000003387, -0.520752371845729 
4.280000000003364, -0.5211519140309266 
4.2900000000033405, -0.5212462175472936 
4.300000000003317, -0.5210904895500237 
4.310000000003294, -0.520694975299148 
4.320000000003271, -0.5200299728437432 
4.330000000003247, -0.5190265676185397 
4.340000000003224, -0.5175794089886007 
4.350000000003201, -0.5155633793870368 
4.360000000003177, -0.5128787110683706 
4.370000000003154, -0.5095243036047609 
4.380000000003131, -0.5056585603125016 
4.390000000003107, -0.5015818928956728 
4.400000000003084, -0.49762970352262165 
4.410000000003061, -0.4940546557955018 
4.4200000000030375, -0.49097811328422286 
4.430000000003014, -0.4884126113659028 
4.440000000002991, -0.48631044410652724 
4.450000000002968, -0.48460431561009576 
4.460000000002944, -0.48323084650182874 
4.470000000002921, -0.48214062728122603 
4.480000000002898, -0.4813007900613765 
4.490000000002874, -0.4806944970569623 
4.500000000002851, -0.4803198454765978 
4.510000000002828, -0.4801894142148866 
4.520000000002804, -0.480331019479726 
4.530000000002781, -0.48078996625077436 
4.540000000002758, -0.4816329147789385 
4.5500000000027345, -0.48295312206523605 
4.560000000002711, -0.48487580448433265 
4.570000000002688, -0.4875599132829954 
4.580000000002665, -0.4911876652199725 
4.590000000002641, -0.49592574596414163 
4.600000000002618, -0.5018384508967522 
4.610000000002595, -0.5087544214910469 
4.620000000002571, -0.5161609208109936 
4.630000000002548, -0.5232754308189158 
4.640000000002525, -0.5293510797432812 
4.6500000000025015, -0.5339978743131668 
4.660000000002478, -0.5372437306830996 
4.670000000002455, -0.5393578231972611 
4.6800000000024315, -0.5406522759460616 
4.690000000002408, -0.541379693691407 
4.700000000002385, -0.5417111665267555 
4.710000000002362, -0.5417473742464121 
4.720000000002338, -0.5415340785500242 
4.730000000002315, -0.5410718662139362 
4.740000000002292, -0.540318734269462 
4.750000000002268, -0.5391879821014275 
4.760000000002245, -0.5375482480170681 
4.770000000002222, -0.535239922481219 
4.7800000000021985, -0.5321275341827153 
4.790000000002175, -0.5281918072227889 
4.800000000002152, -0.5236128410606828 
4.810000000002129, -0.518756333968731 
4.820000000002105, -0.514040471919212 
4.830000000002082, -0.5097834989795347 
4.840000000002059, -0.5061392746344027 
4.850000000002035, -0.5031250440466649 
4.860000000002012, -0.5006826293238178 
4.870000000001989, -0.49872890051277663 
4.880000000001965, -0.4971842515540056 
4.890000000001942, -0.4959842755136571 
4.900000000001919, -0.49508231039087847 
