t, s[1].omega / s[0].omega 
0, -0.629997718459703 
0.009999999999999995, -0.6297814055473766 
0.019999999999999934, -0.629579062375307 
0.029999999999999874, -0.6293668045963848 
0.04000000000000012, -0.629116951737436 
0.050000000000000405, -0.6288088850996896 
0.06000000000000069, -0.6284352424640129 
0.07000000000000098, -0.6280028853325866 
0.08000000000000126, -0.6275318228450966 
0.09000000000000155, -0.6270559175165851 
0.10000000000000184, -0.6266278189763488 
0.11000000000000212, -0.6263291970675434 
0.12000000000000241, -0.6262866496825181 
0.130000000000002, -0.6266931852228276 
0.1400000000000009, -0.6278341917455224 
0.1499999999999998, -0.6301144107093091 
0.1599999999999987, -0.6340768528208792 
0.1699999999999976, -0.6403921626555206 
0.1799999999999965, -0.6497734535942767 
0.1899999999999954, -0.6627446729169192 
0.1999999999999943, -0.6792149075912224 
0.2099999999999932, -0.6980076728561659 
0.2199999999999921, -0.7168476922834339 
0.229999999999991, -0.733242919141353 
0.2399999999999899, -0.7457168232819659 
0.2499999999999888, -0.7542268819245689 
0.2599999999999877, -0.7596042045062593 
0.2699999999999866, -0.7628328217938438 
0.2799999999999855, -0.7646878942518234 
0.2899999999999844, -0.765679375366253 
0.2999999999999833, -0.7661100239910132 
0.3099999999999822, -0.7661417619243363 
0.3199999999999811, -0.7658395443843442 
0.32999999999998, -0.7651903633138513 
0.3399999999999789, -0.7640993396463579 
0.3499999999999778, -0.7623615736539812 
0.35999999999997667, -0.7596050994533674 
0.36999999999997557, -0.7552057628646012 
0.37999999999997447, -0.748211143996684 
0.38999999999997337, -0.7374117599814383 
0.39999999999997227, -0.7218205766314185 
0.40999999999997117, -0.7016343472857811 
0.41999999999997006, -0.6789266109193332 
0.42999999999996896, -0.6569354646856095 
0.43999999999996786, -0.6383379591199436 
0.44999999999996676, -0.6242280946477781 
0.45999999999996566, -0.6143616378605494 
0.46999999999996456, -0.6078782454554045 
0.47999999999996346, -0.6038344345234345 
0.48999999999996235, -0.6014380100191646 
0.49999999999996125, -0.6001001163346987 
0.5099999999999602, -0.5994122382025757 
0.519999999999959, -0.599103513436431 
0.529999999999958, -0.5989999876643464 
0.5399999999999568, -0.5989921709703586 
0.5499999999999557, -0.5990115514539379 
0.5599999999999546, -0.5990150254696377 
0.5699999999999535, -0.598975989180409 
0.5799999999999524, -0.5988808689982391 
0.5899999999999513, -0.5987293464121303 
0.5999999999999502, -0.5985352537942328 
0.6099999999999491, -0.5983242241283696 
0.619999999999948, -0.5981257224721321 
0.6299999999999469, -0.5979612941993587 
0.6399999999999458, -0.5978345735682489 
0.6499999999999447, -0.5977285527695775 
0.6599999999999436, -0.5976118889324742 
0.6699999999999425, -0.5974509864901862 
0.6799999999999414, -0.5972213988933821 
0.6899999999999403, -0.5969134751772842 
0.6999999999999392, -0.5965320982912659 
0.7099999999999381, -0.5960943033792592 
0.719999999999937, -0.5956290237794791 
0.7299999999999359, -0.5951817535033156 
0.7399999999999348, -0.5948258860199528 
0.7499999999999337, -0.5946826042514408 
0.7599999999999326, -0.5949518885314653 
0.7699999999999315, -0.5959573751267992 
0.7799999999999304, -0.5982053941385833 
0.7899999999999293, -0.6024486677903614 
0.7999999999999282, -0.6097171061199531 
0.8099999999999271, -0.6212169159496281 
0.819999999999926, -0.6379192875176265 
0.8299999999999249, -0.6597162284225552 
0.8399999999999238, -0.6845472167336295 
0.8499999999999227, -0.7086762862587183 
0.8599999999999216, -0.7286292093052865 
0.8699999999999205, -0.7430074943914959 
0.8799999999999194, -0.7524048544018581 
0.8899999999999183, -0.7581976472783183 
0.8999999999999172, -0.7616526720560554 
0.9099999999999161, -0.7636580262094801 
0.919999999999915, -0.7647647799985615 
0.9299999999999139, -0.765292584406519 
0.9399999999999128, -0.7654131682807422 
0.9499999999999117, -0.7651998380981274 
0.9599999999999106, -0.7646490557140538 
0.9699999999999095, -0.763679473425723 
0.9799999999999084, -0.7621098894543098 
0.9899999999999073, -0.759616903682223 
0.9999999999999062, -0.7556842685032954 
1.0099999999999052, -0.749594382376557 
1.019999999999904, -0.7405785374327036 
1.029999999999903, -0.7282419772530683 
1.039999999999902, -0.7131116005185862 
1.0499999999999008, -0.6967501204260202 
1.0599999999998997, -0.6811089542968585 
1.0699999999998986, -0.6676610634622874 
1.0799999999998975, -0.657031739296747 
1.0899999999998964, -0.6491631309062609 
1.0999999999998953, -0.643643473260665 
1.1099999999998942, -0.6399578177540992 
1.119999999999893, -0.6376200885132057 
1.129999999999892, -0.6362248404730949 
1.1399999999998909, -0.6354577438682252 
1.1499999999998898, -0.6350877005687716 
1.1599999999998887, -0.6349519081925126 
1.1699999999998876, -0.6349394569746062 
1.1799999999998865, -0.6349764542638312 
1.1899999999998854, -0.6350143490106718 
1.1999999999998843, -0.6350222932349062 
1.2099999999998832, -0.6349836117899439 
1.219999999999882, -0.6348953206264262 
1.229999999999881, -0.6347680767703799 
1.2399999999998799, -0.6346230586127526 
1.2499999999998788, -0.6344838581092928 
1.2599999999998777, -0.6343654787657385 
1.2699999999998766, -0.634265874918837 
1.2799999999998755, -0.6341650576068709 
1.2899999999998744, -0.6340326933729695 
1.2999999999998733, -0.6338400342286933 
1.3099999999998722, -0.6335696992989777 
1.319999999999871, -0.6332194422838746 
1.32999999999987, -0.6328011271447929 
1.3399999999998689, -0.6323391081361328 
1.3499999999998678, -0.6318717868931362 
1.3599999999998666, -0.631458414494639 
1.3699999999998655, -0.6311920861331821 
1.3799999999998644, -0.6312194626369075 
1.3899999999998633, -0.6317672595549895 
1.3999999999998622, -0.633174033014814 
1.4099999999998611, -0.6359219631062907 
1.41999999999986, -0.640654515213879 
1.429999999999859, -0.6481471949731593 
1.4399999999998578, -0.6591673585290445 
1.4499999999998567, -0.674137475941728 
1.4599999999998556, -0.6925991221738441 
1.4699999999998545, -0.7127933424516791 
1.4799999999998534, -0.7320052037245215 
1.4899999999998523, -0.7478304643385638 
1.4999999999998512, -0.7593013617125136 
1.5099999999998501, -0.7668476723419226 
1.519999999999849, -0.7715009367306969 
1.529999999999848, -0.7742463950015924 
1.5399999999998468, -0.7757929671484287 
1.5499999999998457, -0.7765851377759049 
1.5599999999998446, -0.7768777314915438 
1.5699999999998435, -0.7767993305254788 
1.5799999999998424, -0.7763890441985385 
1.5899999999998413, -0.775608291166179 
1.5999999999998402, -0.7743292251398162 
1.6099999999998391, -0.7722971163001965 
1.619999999999838, -0.7690618869142462 
1.629999999999837, -0.7638857250923945 
1.6399999999998358, -0.7556875101224516 
1.6499999999998347, -0.7432095612655691 
1.6599999999998336, -0.7256788554980774 
1.6699999999998325, -0.7038513077830644 
1.6799999999998314, -0.6803957304831336 
1.6899999999998303, -0.6586943966874493 
1.6999999999998292, -0.6410771962804328 
1.709999999999828, -0.6281737729293382 
1.719999999999827, -0.6194307921609846 
1.729999999999826, -0.6138599408208456 
1.7399999999998248, -0.6104993118985733 
1.7499999999998237, -0.6085853539963327 
1.7599999999998226, -0.6075710899938078 
1.7699999999998215, -0.6070883137154316 
1.7799999999998204, -0.606899475170788 
1.7899999999998193, -0.6068557124081806 
1.7999999999998182, -0.6068650312168657 
1.809999999999817, -0.6068702259197989 
1.819999999999816, -0.6068350386181398 
1.8299999999998149, -0.6067371196142269 
1.8399999999998138, -0.606566387063338 
1.8499999999998127, -0.6063265884680222 
1.8599999999998116, -0.6060363543078128 
1.8699999999998105, -0.6057255839828739 
1.8799999999998094, -0.6054257434087359 
1.8899999999998083, -0.6051575931743404 
1.8999999999998072, -0.6049227272940384 
1.909999999999806, -0.6047035324071562 
1.919999999999805, -0.6044714243160333 
1.9299999999998039, -0.6041987047528232 
1.9399999999998028, -0.6038679851691415 
1.9499999999998017, -0.6034759664119496 
1.9599999999998006, -0.6030329370746794 
1.9699999999997995, -0.6025618441149215 
1.9799999999997984, -0.602100378132231 
1.9899999999997973, -0.6017081226762523 
1.9999999999997962, -0.6014800376848448 
2.0099999999998173, -0.601567499296792 
2.0199999999998384, -0.6022081070320852 
2.0299999999998595, -0.603764441260272 
2.0399999999998806, -0.6067679345149813 
2.0499999999999017, -0.6119525401714433 
2.059999999999923, -0.6202355715962465 
2.069999999999944, -0.6325539260442674 
2.079999999999965, -0.649426530096427 
2.089999999999986, -0.6702410560631178 
2.100000000000007, -0.6927502007256334 
2.1100000000000283, -0.7136773925275327 
2.1200000000000494, -0.7304172288606646 
2.1300000000000705, -0.74221736235908 
2.1400000000000916, -0.7498236512810104 
2.1500000000001127, -0.7544638199856335 
2.160000000000134, -0.7571965415122293 
2.170000000000155, -0.7587452076616664 
2.180000000000176, -0.7595514117766202 
2.190000000000197, -0.7598652717478875 
2.2000000000002182, -0.7598124765627722 
2.2100000000002393, -0.7594311660068163 
2.2200000000002604, -0.7586834321311586 
2.2300000000002815, -0.7574443607649818 
2.2400000000003026, -0.755467852162841 
2.2500000000003237, -0.7523298386143735 
2.260000000000345, -0.7473686439158336 
2.270000000000366, -0.7397001266620113 
2.280000000000387, -0.7284702372675418 
2.290000000000408, -0.7134553790898864 
2.3000000000004293, -0.6956805530083201 
2.3100000000004504, -0.6772913159064207 
2.3200000000004715, -0.6605350722097592 
2.3300000000004926, -0.6467959573416391 
2.3400000000005137, -0.6364119492802519 
2.3500000000005348, -0.6290393143908503 
2.360000000000556, -0.6240669567847364 
2.370000000000577, -0.6208702083099056 
2.380000000000598, -0.6189182784851435 
2.390000000000619, -0.617800312481265 
2.4000000000006403, -0.6172163806107395 
2.4100000000006614, -0.6169567547758897 
2.4200000000006825, -0.6168796175603244 
2.4300000000007036, -0.6168913478862971 
2.4400000000007247, -0.6169309954632567 
2.450000000000746, -0.6169594696373365 
2.460000000000767, -0.6169534094251359 
2.470000000000788, -0.6169030659566821 
2.480000000000809, -0.6168123752438707 
2.49000000000083, -0.6166980397120543 
2.5000000000008513, -0.6165843999924334 
2.5100000000008724, -0.6164935586754766 
2.5200000000008935, -0.6164343649357058 
2.5300000000009146, -0.6163960504809015 
2.5400000000009357, -0.6163505427962305 
2.550000000000957, -0.6162627261832201 
2.560000000000978, -0.6161031031334574 
2.570000000000999, -0.6158562633655027 
2.58000000000102, -0.6155225731768585 
2.5900000000010412, -0.6151157305296817 
2.6000000000010624, -0.6146608783142249 
2.6100000000010835, -0.6141968537822667 
2.6200000000011046, -0.6137845568694116 
2.6300000000011257, -0.613522894550971 
2.6400000000011468, -0.6135740612669119 
2.650000000001168, -0.614200038957949 
2.660000000001189, -0.6158107030011948 
2.67000000000121, -0.6190180148973347 
2.680000000001231, -0.6246743343574572 
2.6900000000012523, -0.6338353967332492 
2.7000000000012734, -0.6475271290821533 
2.7100000000012945, -0.6661719430392312 
2.7200000000013156, -0.6887595406582773 
2.7300000000013367, -0.7124801337182654 
2.740000000001358, -0.733765407908405 
2.750000000001379, -0.7502213130747285 
2.7600000000014, -0.7615159148674938 
2.770000000001421, -0.7686696039219129 
2.780000000001442, -0.7729877201261386 
2.7900000000014633, -0.7755111528773815 
2.8000000000014844, -0.7769259726474793 
2.8100000000015055, -0.7776431263272106 
2.8200000000015266, -0.777891580023024 
2.8300000000015477, -0.7777819921227002 
2.840000000001569, -0.7773395907058864 
2.85000000000159, -0.7765117171594841 
2.860000000001611, -0.7751521825861157 
2.870000000001632, -0.7729806545903232 
2.8800000000016532, -0.7695175470872069 
2.8900000000016743, -0.764018052627517 
2.9000000000016954, -0.7554971882236012 
2.9100000000017165, -0.7430335833824999 
2.9200000000017377, -0.7264636245062752 
2.9300000000017588, -0.7070512040135096 
2.94000000000178, -0.6872599608931154 
2.950000000001801, -0.6695507875709473 
2.960000000001822, -0.6553358988196629 
2.970000000001843, -0.6448522759392377 
2.9800000000018643, -0.6376162005966807 
2.9900000000018854, -0.6328933995619163 
3.0000000000019065, -0.6299719411803807 
3.0100000000019276, -0.6282691187237237 
3.0200000000019487, -0.627349592854333 
3.03000000000197, -0.6269070652468873 
3.040000000001991, -0.6267353987189758 
3.050000000002012, -0.6267003038357237 
3.060000000002033, -0.6267158451700532 
3.070000000002054, -0.6267270255223693 
3.0800000000020753, -0.6266984887461414 
3.0900000000020964, -0.6266088899870619 
3.1000000000021175, -0.6264498904947604 
3.1100000000021386, -0.6262274466452399 
3.1200000000021597, -0.6259615500979422 
3.130000000002181, -0.6256808312908658 
3.140000000002202, -0.6254119424300069 
3.150000000002223, -0.6251682952321038 
3.160000000002244, -0.6249443081333004 
3.1700000000022652, -0.6247184010502063 
3.1800000000022863, -0.6244629107008914 
3.1900000000023074, -0.6241553384597627 
3.2000000000023285, -0.6237855725259738 
3.2100000000023496, -0.6233576998374623 
3.2200000000023707, -0.6228890946480133 
3.230000000002392, -0.6224106521912682 
3.240000000002413, -0.6219708872811075 
3.250000000002434, -0.621645195451457 
3.260000000002455, -0.6215508209429388 
3.2700000000024763, -0.6218676750444784 
3.2800000000024974, -0.6228643785897072 
3.2900000000025185, -0.624926878806209 
3.3000000000025396, -0.6285820311573966 
3.3100000000025607, -0.634497062348246 
3.3200000000025818, -0.6434128822391039 
3.330000000002603, -0.6559383639003362 
3.340000000002624, -0.6721397642186966 
3.350000000002645, -0.6910268624914604 
3.360000000002666, -0.7104086107140305 
3.3700000000026873, -0.7276616483639227 
3.3800000000027084, -0.7410401884232336 
3.3900000000027295, -0.7502938249116101 
3.4000000000027506, -0.7561941026358536 
3.4100000000027717, -0.7597607786405922 
3.420000000002793, -0.7618281113245832 
3.430000000002814, -0.7629550344326028 
3.440000000002835, -0.7634777196163974 
3.450000000002856, -0.7635800441695572 
3.460000000002877, -0.7633427054013726 
3.4700000000028983, -0.762766728872503 
3.4800000000029194, -0.761773760186158 
3.4900000000029405, -0.7601827857523249 
3.5000000000029616, -0.7576593553398727 
3.5100000000029827, -0.7536369484588874 
3.520000000003004, -0.7472398391518469 
3.530000000003025, -0.7373245880371968 
3.540000000003046, -0.7228782938390309 
3.550000000003067, -0.7038909641715692 
3.5600000000030882, -0.6821037354189508 
3.5700000000031094, -0.6605303246423027 
3.5800000000031305, -0.6418783616537469 
3.5900000000031516, -0.6274313112736749 
3.6000000000031727, -0.61713287702638 
3.6100000000031938, -0.610239456970319 
3.620000000003215, -0.6058586612783892 
3.630000000003236, -0.6032093913695663 
3.640000000003257, -0.6016946660424152 
3.650000000003278, -0.6008910144564681 
3.6600000000032993, -0.6005121724215419 
3.6700000000033204, -0.6003711516149325 
3.6800000000033415, -0.6003486348940801 
3.6900000000033626, -0.6003693037668762 
3.7000000000033837, -0.6003855972767733 
3.710000000003405, -0.6003679324027075 
3.720000000003426, -0.6003003480761753 
3.730000000003447, -0.6001800661341645 
3.740000000003468, -0.6000182658544212 
3.750000000003489, -0.5998383043763633 
3.7600000000035103, -0.5996686363406882 
3.7700000000035314, -0.5995314854870217 
3.7800000000035525, -0.5994323005351957 
3.7900000000035736, -0.5993557384647086 
3.8000000000035947, -0.5992707639369931 
3.810000000003616, -0.5991423939636332 
3.820000000003637, -0.598943769428012 
3.830000000003658, -0.5986628081430513 
3.840000000003679, -0.5983024598675256 
3.8500000000037002, -0.5978780766542088 
3.8600000000037213, -0.5974163822354276 
3.8700000000037424, -0.5969591171149027 
3.8800000000037635, -0.5965732179179258 
3.8900000000037847, -0.5963693758046928 
3.9000000000038058, -0.5965315502315819 
3.910000000003827, -0.5973604296961902 
3.920000000003848, -0.5993320636390017 
3.930000000003869, -0.6031645621746186 
3.94000000000389, -0.6098608928241873 
3.9500000000039113, -0.6206387140900057 
3.9600000000039324, -0.6365738529550184 
3.9700000000039535, -0.6578002518991646 
3.9800000000039746, -0.6825599268266629 
3.9900000000039957, -0.7072308291902563 
4.000000000004016, -0.7281084803573288 
4.010000000003993, -0.7434257170765458 
4.02000000000397, -0.7535554229538443 
4.030000000003946, -0.7598425158498133 
4.040000000003923, -0.763608898736121 
4.0500000000039, -0.765806591151925 
4.0600000000038765, -0.7670342701943698 
4.070000000003853, -0.7676425614845442 
4.08000000000383, -0.7678230494399912 
4.090000000003807, -0.7676629457815553 
4.100000000003783, -0.7671706740132694 
4.11000000000376, -0.766278301950347 
4.120000000003737, -0.7648228068637539 
4.130000000003713, -0.7625064925628336 
4.14000000000369, -0.7588452238027334 
4.150000000003667, -0.7531461552577179 
4.1600000000036434, -0.7446213241391788 
4.17000000000362, -0.7327679408698515 
4.180000000003597, -0.717930985153169 
4.1900000000035735, -0.7015356434888381 
4.20000000000355, -0.6855501742837733 
4.210000000003527, -0.6715865888541481 
4.220000000003504, -0.6604187364837398 
4.23000000000348, -0.652080219780173 
4.240000000003457, -0.6461925594436673 
4.250000000003434, -0.6422391461176966 
4.26000000000341, -0.6397173874252357 
4.270000000003387, -0.638201848211888 
4.280000000003364, -0.637359894960986 
4.2900000000033405, -0.6369456576147815 
4.300000000003317, -0.636785352618284 
4.310000000003294, -0.6367604111326356 
4.320000000003271, -0.6367918313647947 
4.330000000003247, -0.6368276456011466 
4.340000000003224, -0.6368344638920702 
4.350000000003201, -0.6367932930450336 
4.360000000003177, -0.6366987746193018 
4.370000000003154, -0.6365594381309594 
4.380000000003131, -0.6363954146138451 
4.390000000003107, -0.6362311626916015 
4.400000000003084, -0.6360845885047473 
4.410000000003061, -0.6359577088601999 
4.4200000000030375, -0.6358342589204466 
4.430000000003014, -0.6356859515854776 
4.440000000002991, -0.6354839595318778 
4.450000000002968, -0.6352092929744042 
4.460000000002944, -0.6348576105600365 
4.470000000002921, -0.6344389057782506 
4.480000000002898, -0.6339759377699071 
4.490000000002874, -0.6335052949609343 
4.500000000002851, -0.6330833361271635 
4.510000000002828, -0.6327979664315349 
4.520000000002804, -0.6327866385607649 
4.530000000002781, -0.6332604486704507 
4.540000000002758, -0.6345328800963462 
4.5500000000027345, -0.6370485852668961 
4.560000000002711, -0.6414004721915992 
4.570000000002688, -0.6483081914568298 
4.580000000002665, -0.6585045371819405 
4.590000000002641, -0.6724526881546862 
4.600000000002618, -0.6898694955216487 
4.610000000002595, -0.709283712486791 
4.620000000002571, -0.728202326138368 
4.630000000002548, -0.7441880138367719 
4.640000000002525, -0.7560390772743343 
4.6500000000025015, -0.7639676442535946 
4.660000000002478, -0.7689110297879947 
4.670000000002455, -0.7718497480394071 
4.6800000000024315, -0.7735187133215724 
4.690000000002408, -0.7743890105507779 
4.700000000002385, -0.7747351130467102 
4.710000000002362, -0.7746993550229797 
4.720000000002338, -0.774331643205828 
4.730000000002315, -0.7736043135774623 
4.740000000002292, -0.7724038738322212 
4.750000000002268, -0.7704974065931605 
4.760000000002245, -0.7674683989426127 
4.770000000002222, -0.7626247046954623 
4.7800000000021985, -0.7549257730438635 
4.790000000002175, -0.7430923962187131 
4.800000000002152, -0.7261821893608011 
4.810000000002129, -0.7046423676755201 
4.820000000002105, -0.6809186764705215 
4.830000000002082, -0.6584797969610201 
4.840000000002059, -0.6399543284747123 
4.850000000002035, -0.6262276957256596 
4.860000000002012, -0.6168537312723037 
4.870000000001989, -0.6108445807300709 
4.880000000001965, -0.6071975511220129 
4.890000000001942, -0.60510428859409 
4.900000000001919, -0.60398188596497 
4.9100000000018955, -0.6034366889040075 
4.920000000001872, -0.6032142616748188 
