t, s[1].omega / s[0].omega 
0, -0.5799842885534648 
0.009999999999999995, -0.5784608192344144 
0.019999999999999934, -0.5770582887461055 
0.029999999999999874, -0.5757930305393877 
0.04000000000000012, -0.574660563569341 
0.050000000000000405, -0.5736487229832685 
0.06000000000000069, -0.5727475439525141 
0.07000000000000098, -0.5719548688814773 
0.08000000000000126, -0.5712788805174956 
0.09000000000000155, -0.5707392238452655 
0.10000000000000184, -0.570367898973679 
0.11000000000000212, -0.5702104809343507 
0.12000000000000241, -0.5703278408144505 
0.130000000000002, -0.5707984125026021 
0.1400000000000009, -0.5717209619911372 
0.1499999999999998, -0.573217432987488 
0.1599999999999987, -0.5754342654678133 
0.1699999999999976, -0.5785379288742257 
0.1799999999999965, -0.5826957472527703 
0.1899999999999954, -0.5880277628928691 
0.1999999999999943, -0.5945172308128995 
0.2099999999999932, -0.6018950477171333 
0.2199999999999921, -0.6095783734615823 
0.229999999999991, -0.6167854212004789 
0.2399999999999899, -0.6228335807536544 
0.2499999999999888, -0.6274059873123317 
0.2599999999999877, -0.6305723773787676 
0.2699999999999866, -0.6326138369059973 
0.2799999999999855, -0.6338414532290602 
0.2899999999999844, -0.634504257185144 
0.2999999999999833, -0.634769820274198 
0.3099999999999822, -0.6347346769604167 
0.3199999999999811, -0.6344380777477847 
0.32999999999998, -0.6338687731175778 
0.3399999999999789, -0.6329617243456719 
0.3499999999999778, -0.6315838338702766 
0.35999999999997667, -0.6295104827787974 
0.36999999999997557, -0.6264046683635027 
0.37999999999997447, -0.6218354269181627 
0.38999999999997337, -0.615402785967653 
0.39999999999997227, -0.6070058519287281 
0.40999999999997117, -0.5971126348367086 
0.41999999999997006, -0.5867217246157014 
0.42999999999996896, -0.5769366012776894 
0.43999999999996786, -0.5685168700105429 
0.44999999999996676, -0.5617430463973709 
0.45999999999996566, -0.5565461923613785 
0.46999999999996456, -0.5526935095420411 
0.47999999999996346, -0.5499158157391093 
0.48999999999996235, -0.5479679582931639 
0.49999999999996125, -0.5466479536314981 
0.5099999999999602, -0.5457973884044274 
0.519999999999959, -0.5452954715857057 
0.529999999999958, -0.5450520791095123 
0.5399999999999568, -0.5450016338726695 
0.5499999999999557, -0.5450982719451168 
0.5599999999999546, -0.5453123130068406 
0.5699999999999535, -0.5456279135114036 
0.5799999999999524, -0.5460415624834923 
0.5899999999999513, -0.5465605983346993 
0.5999999999999502, -0.54720025687278 
0.6099999999999491, -0.5479773814143192 
0.619999999999948, -0.5488996371417368 
0.6299999999999469, -0.549951591230301 
0.6399999999999458, -0.5510832635328298 
0.6499999999999447, -0.5522103175828956 
0.6599999999999436, -0.5532322164865795 
0.6699999999999425, -0.5540622380589486 
0.6799999999999414, -0.554651282993263 
0.6899999999999403, -0.5549915131566927 
0.6999999999999392, -0.5551025018140301 
0.7099999999999381, -0.5550125492532345 
0.719999999999937, -0.5547444472496361 
0.7299999999999359, -0.5543073509704212 
0.7399999999999348, -0.5536921086540756 
0.7499999999999337, -0.5528665006735458 
0.7599999999999326, -0.5517666811291869 
0.7699999999999315, -0.5502795688378428 
0.7799999999999304, -0.5482067236672082 
0.7899999999999293, -0.5451947878341352 
0.7999999999999282, -0.5406262972871161 
0.8099999999999271, -0.5335421349640772 
0.819999999999926, -0.5228712832852656 
0.8299999999999249, -0.5083031271307281 
0.8399999999999238, -0.491287277626694 
0.8499999999999227, -0.47463184417402493 
0.8599999999999216, -0.4607115959292837 
0.8699999999999205, -0.45036859673236573 
0.8799999999999194, -0.44324956175392327 
0.8899999999999183, -0.4385694006815412 
0.8999999999999172, -0.4355770910553349 
0.9099999999999161, -0.43370283503449814 
0.919999999999915, -0.4325552750421243 
0.9299999999999139, -0.4318779573568195 
0.9399999999999128, -0.43150684016479585 
0.9499999999999117, -0.4313388041034287 
0.9599999999999106, -0.4313106730000628 
0.9699999999999095, -0.4313861086973538 
0.9799999999999084, -0.43154801342768695 
0.9899999999999073, -0.4317946697215471 
0.9999999999999062, -0.43213811645463185 
1.0099999999999052, -0.43260306203927906 
1.019999999999904, -0.43322415797253955 
1.029999999999903, -0.4340391664032343 
1.039999999999902, -0.4350760711683548 
1.0499999999999008, -0.4363343719509232 
1.0599999999998997, -0.4377659269877018 
1.0699999999998986, -0.4392679485817993 
1.0799999999998975, -0.4407018643527424 
1.0899999999998964, -0.44193593545374676 
1.0999999999998953, -0.44288617779506395 
1.1099999999998942, -0.44352906072056764 
1.119999999999893, -0.44388488984219227 
1.129999999999892, -0.4439906788338425 
1.1399999999998909, -0.44387830428016056 
1.1499999999998898, -0.44356138517290084 
1.1599999999998887, -0.44302684559797606 
1.1699999999998876, -0.4422256448029877 
1.1799999999998865, -0.44105807991952617 
1.1899999999998854, -0.439351340321575 
1.1999999999998843, -0.4368344048472473 
1.2099999999998832, -0.4331366701560211 
1.219999999999882, -0.4278735567032507 
1.229999999999881, -0.4208831116167401 
1.2399999999998799, -0.41252252855266125 
1.2499999999998788, -0.403695332582138 
1.2599999999998777, -0.39543723193694774 
1.2699999999998766, -0.38843126975706493 
1.2799999999998755, -0.3828722622551918 
1.2899999999998744, -0.37862938667589874 
1.2999999999998733, -0.3754506638437797 
1.3099999999998722, -0.37308555787561176 
1.319999999999871, -0.3713312936132996 
1.32999999999987, -0.37003960004064773 
1.3399999999998689, -0.3691093962835665 
1.3499999999998678, -0.36847726262706204 
1.3599999999998666, -0.36810997068007595 
1.3699999999998655, -0.3680002310075074 
1.3799999999998644, -0.3681658645373299 
1.3899999999998633, -0.36865253270957615 
1.3999999999998622, -0.36954034779902667 
1.4099999999998611, -0.3709546839947013 
1.41999999999986, -0.37308058218542517 
1.429999999999859, -0.3761765778888081 
1.4399999999998578, -0.3805740935163635 
1.4499999999998567, -0.3866286889878864 
1.4599999999998556, -0.3945670965571038 
1.4699999999998545, -0.40420307454409177 
1.4799999999998534, -0.41467587941183737 
1.4899999999998523, -0.42459839333592786 
1.4999999999998512, -0.4327431507959246 
1.5099999999998501, -0.4386491344334589 
1.519999999999849, -0.4425705385559974 
1.529999999999848, -0.44504026575130695 
1.5399999999998468, -0.44654619439091336 
1.5499999999998457, -0.4474314501528774 
1.5599999999998446, -0.4479094988752078 
1.5699999999998435, -0.44810370525671717 
1.5799999999998424, -0.4480790111117239 
1.5899999999998413, -0.4478617553626652 
1.5999999999998402, -0.4474514994899185 
1.6099999999998391, -0.4468299031781136 
1.619999999999838, -0.44597165002203426 
1.629999999999837, -0.4448611119458346 
1.6399999999998358, -0.4435133535817175 
1.6499999999998347, -0.4419891599378564 
1.6599999999998336, -0.4403896650350038 
1.6699999999998325, -0.4388278522989874 
1.6799999999998314, -0.4373938518970033 
1.6899999999998303, -0.43613511934255966 
1.6999999999998292, -0.4350575630534223 
1.709999999999828, -0.43413939531077095 
1.719999999999827, -0.43334728030848524 
1.729999999999826, -0.43264884442277624 
1.7399999999998248, -0.43201997529303504 
1.7499999999998237, -0.4314478975525729 
1.7599999999998226, -0.43093215754749936 
1.7699999999998215, -0.43048576659810694 
1.7799999999998204, -0.4301383727095258 
1.7899999999998193, -0.4299430806531174 
1.7999999999998182, -0.4299887792062661 
1.809999999999817, -0.430420518664491 
1.819999999999816, -0.4314710105731573 
1.8299999999998149, -0.43350462529326483 
1.8399999999998138, -0.4370651702131962 
1.8499999999998127, -0.44288566616965597 
1.8599999999998116, -0.45174414623499654 
1.8699999999998105, -0.4639765820530407 
1.8799999999998094, -0.4786610696237795 
1.8899999999998083, -0.4932945568761976 
1.8999999999998072, -0.505098949316287 
1.909999999999806, -0.5129652209556188 
1.919999999999805, -0.517620415246876 
1.9299999999998039, -0.5203257654481901 
1.9399999999998028, -0.5219938613572621 
1.9499999999998017, -0.5231015545400004 
1.9599999999998006, -0.523868435610829 
1.9699999999997995, -0.5243976518747895 
1.9799999999997984, -0.524743406330425 
1.9899999999997973, -0.5249369705855019 
1.9999999999997962, -0.5249955746029719 
2.0099999999998173, -0.5249253775637778 
2.0199999999998384, -0.5247230418716573 
2.0299999999998595, -0.5243781712160198 
2.0399999999998806, -0.5238783552372257 
2.0499999999999017, -0.5232178093632319 
2.059999999999923, -0.5224080753349012 
2.069999999999944, -0.5214852668494585 
2.079999999999965, -0.5205069283887487 
2.089999999999986, -0.5195371348589082 
2.100000000000007, -0.518627586381258 
2.1100000000000283, -0.5178053796868244 
2.1200000000000494, -0.5170722304829551 
2.1300000000000705, -0.5164124858357741 
2.1400000000000916, -0.5158041820422488 
2.1500000000001127, -0.515228346683248 
2.160000000000134, -0.5146744302241146 
2.170000000000155, -0.5141424412390331 
2.180000000000176, -0.513643858440719 
2.190000000000197, -0.5132034939687811 
2.2000000000002182, -0.5128639402865351 
2.2100000000002393, -0.5126938586297812 
2.2200000000002604, -0.5128014326630683 
2.2300000000002815, -0.5133545912187374 
2.2400000000003026, -0.5146093992369508 
2.2500000000003237, -0.516945576183343 
2.260000000000345, -0.5208991615258627 
2.270000000000366, -0.5271585996397504 
2.280000000000387, -0.5364449531096833 
2.290000000000408, -0.5491593601761162 
2.3000000000004293, -0.5647952268557225 
2.3100000000004504, -0.581553860672181 
2.3200000000004715, -0.5969221314751707 
2.3300000000004926, -0.6090619309506716 
2.3400000000005137, -0.6175968510026008 
2.3500000000005348, -0.623178223545263 
2.360000000000556, -0.6267012123806545 
2.370000000000577, -0.6288895900295837 
2.380000000000598, -0.6302262332674522 
2.390000000000619, -0.6310085270102498 
2.4000000000006403, -0.6314123048823398 
2.4100000000006614, -0.6315357624616149 
2.4200000000006825, -0.6314246302575786 
2.4300000000007036, -0.6310845454525142 
2.4400000000007247, -0.6304855734994477 
2.450000000000746, -0.6295635218226373 
2.460000000000767, -0.6282247027806755 
2.470000000000788, -0.6263642940378233 
2.480000000000809, -0.6239075913312723 
2.49000000000083, -0.6208676325646321 
2.5000000000008513, -0.6173835548374529 
2.5100000000008724, -0.6136973027472625 
2.5200000000008935, -0.6100729612098723 
2.5300000000009146, -0.6067160345521057 
2.5400000000009357, -0.6037405552304462 
2.550000000000957, -0.6011823249270051 
2.560000000000978, -0.59903006840354 
2.570000000000999, -0.5972527867174073 
2.58000000000102, -0.5958163468818897 
2.5900000000010412, -0.5946908290855261 
2.6000000000010624, -0.5938523121469158 
2.6100000000010835, -0.5932821663562907 
2.6200000000011046, -0.5929657742122522 
2.6300000000011257, -0.5928916814217808 
2.6400000000011468, -0.5930515770573096 
2.650000000001168, -0.5934411124945511 
2.660000000001189, -0.5940612828395744 
2.67000000000121, -0.594919796215261 
2.680000000001231, -0.5960314074865674 
2.6900000000012523, -0.5974155094119485 
2.7000000000012734, -0.5990885679158264 
2.7100000000012945, -0.6010491629101121 
2.7200000000013156, -0.6032563192407479 
2.7300000000013367, -0.6056092950159614 
2.740000000001358, -0.607946251139874 
2.750000000001379, -0.6100775462156267 
2.7600000000014, -0.611844915071478 
2.770000000001421, -0.6131690106857568 
2.780000000001442, -0.6140541644306622 
2.7900000000014633, -0.61455708417245 
2.8000000000014844, -0.6147485602560554 
2.8100000000015055, -0.614687626125621 
2.8200000000015266, -0.6144098344306396 
2.8300000000015477, -0.6139231097331954 
2.840000000001569, -0.6132046011585834 
2.85000000000159, -0.6121937734387657 
2.860000000001611, -0.6107774095334025 
2.870000000001632, -0.6087606230539556 
2.8800000000016532, -0.6058158143507623 
2.8900000000016743, -0.6014071696822955 
2.9000000000016954, -0.5947308375067397 
2.9100000000017165, -0.5848343448358182 
2.9200000000017377, -0.5711875579746121 
2.9300000000017588, -0.5545877925851019 
2.94000000000178, -0.5373441942918242 
2.950000000001801, -0.5220349785446097 
2.960000000001822, -0.5100997665502219 
2.970000000001843, -0.501629723186827 
2.9800000000018643, -0.49598602046434886 
2.9900000000018854, -0.49238226264168194 
3.0000000000019065, -0.49015481108301245 
3.0100000000019276, -0.48882114983600555 
3.0200000000019487, -0.4880547531551633 
3.03000000000197, -0.4876427710528842 
3.040000000001991, -0.48744938013589084 
3.050000000002012, -0.4873892253026145 
3.060000000002033, -0.4874097012145778 
3.070000000002054, -0.4874798761672225 
3.0800000000020753, -0.48758421287133824 
3.0900000000020964, -0.487719620567758 
3.1000000000021175, -0.487894333417198 
3.1100000000021386, -0.4881266655463098 
3.1200000000021597, -0.4884413726837352 
3.130000000002181, -0.4888619802095372 
3.140000000002202, -0.4893994097277634 
3.150000000002223, -0.4900401164092008 
3.160000000002244, -0.49073971828133234 
3.1700000000022652, -0.4914285111898075 
3.1800000000022863, -0.49202993365501096 
3.1900000000023074, -0.4924831763721652 
3.2000000000023285, -0.49275656203617696 
3.2100000000023496, -0.492845746244886 
3.2200000000023707, -0.49276192935330954 
3.230000000002392, -0.49251872140343 
3.240000000002413, -0.4921222821655661 
3.250000000002434, -0.4915644910162034 
3.260000000002455, -0.49081635830317216 
3.2700000000024763, -0.4898176627687253 
3.2800000000024974, -0.4884568370780764 
3.2900000000025185, -0.4865311056315287 
3.3000000000025396, -0.48367293111570986 
3.3100000000025607, -0.47924166082673525 
3.3200000000025818, -0.4722617205582405 
3.330000000002603, -0.4616850491037308 
3.340000000002624, -0.4472747719846132 
3.350000000002645, -0.43053381484695896 
3.360000000002666, -0.4142057010637064 
3.3700000000026873, -0.4005195533385937 
3.3800000000027084, -0.39022152680096706 
3.3900000000027295, -0.3829611886232981 
3.4000000000027506, -0.3780130809094943 
3.4100000000027717, -0.3746934092648621 
3.420000000002793, -0.37248480014769936 
3.430000000002814, -0.37103045756737335 
3.440000000002835, -0.3700948281305227 
3.450000000002856, -0.36952637407630834 
3.460000000002877, -0.3692304690242906 
3.4700000000028983, -0.36915173068822055 
3.4800000000029194, -0.3692634523724701 
3.4900000000029405, -0.36956212181978987 
3.5000000000029616, -0.37006558608524853 
3.5100000000029827, -0.37081367560255174 
3.520000000003004, -0.37186977707545943 
3.530000000003025, -0.37332066147769943 
3.540000000003046, -0.37526948253554326 
3.550000000003067, -0.3778134576175358 
3.5600000000030882, -0.38099662466513434 
3.5700000000031094, -0.3847397136415233 
3.5800000000031305, -0.38878485693002485 
3.5900000000031516, -0.3927277607936773 
3.6000000000031727, -0.39616512426567074 
3.6100000000031938, -0.39885823391024816 
3.620000000003215, -0.4007801645068992 
3.630000000003236, -0.40204272969764904 
3.640000000003257, -0.40279783075962194 
3.650000000003278, -0.4031768934527099 
3.6600000000032993, -0.4032704687349383 
3.6700000000033204, -0.40312796575757764 
3.6800000000033415, -0.40276248983495533 
3.6900000000033626, -0.40215483177248723 
3.7000000000033837, -0.4012569171612407 
3.710000000003405, -0.39999963550906414 
3.720000000003426, -0.39831348266126454 
3.730000000003447, -0.39616807875725557 
3.740000000003468, -0.39361980434958727 
3.750000000003489, -0.39083148713495586 
3.7600000000035103, -0.38803133683202157 
3.7700000000035314, -0.38543028305276483 
3.7800000000035525, -0.38315820590529165 
3.7900000000035736, -0.3812534911389156 
3.8000000000035947, -0.3796903054850419 
3.810000000003616, -0.3784131080442129 
3.820000000003637, -0.37736186808942784 
3.830000000003658, -0.37648577620137436 
3.840000000003679, -0.37574883592536457 
3.8500000000037002, -0.37513125112770174 
3.8600000000037213, -0.3746296758719063 
3.8700000000037424, -0.37425851893904116 
3.8800000000037635, -0.37405397226621695 
3.8900000000037847, -0.37408242706359945 
3.9000000000038058, -0.3744554828636136 
3.910000000003827, -0.3753546202086526 
3.920000000003848, -0.3770688093775065 
3.930000000003869, -0.3800443678842406 
3.94000000000389, -0.3849279579360581 
3.9500000000039113, -0.39252870813333995 
3.9600000000039324, -0.40352163999895174 
3.9700000000039535, -0.4176979165594896 
3.9800000000039746, -0.43311574922883916 
3.9900000000039957, -0.4465607447493065 
4.000000000004016, -0.45580452483028316 
4.010000000003993, -0.4610081980774082 
4.02000000000397, -0.4636476882324699 
4.030000000003946, -0.46502688548100696 
4.040000000003923, -0.46585129675204506 
4.0500000000039, -0.4664151496610546 
4.0600000000038765, -0.4668252198896801 
4.070000000003853, -0.4671195007275727 
4.08000000000383, -0.467313395163954 
4.090000000003807, -0.46741423128437853 
4.100000000003783, -0.4674248275338148 
4.11000000000376, -0.4673442844632062 
4.120000000003737, -0.4671690787452283 
4.130000000003713, -0.4668958377181719 
4.14000000000369, -0.46652628423777764 
4.150000000003667, -0.46607335269002925 
4.1600000000036434, -0.46556530477625346 
4.17000000000362, -0.46504371093728 
4.180000000003597, -0.46455382646817195 
4.1900000000035735, -0.46413111182980876 
4.20000000000355, -0.4637905610320051 
4.210000000003527, -0.4635235950100472 
4.220000000003504, -0.4633031378257001 
4.23000000000348, -0.46309404577831836 
4.240000000003457, -0.4628640990133858 
4.250000000003434, -0.46259108022159195 
4.26000000000341, -0.4622643445256708 
4.270000000003387, -0.4618826135577403 
4.280000000003364, -0.46145104131502446 
4.2900000000033405, -0.46097989153913305 
4.300000000003317, -0.46048603074891653 
4.310000000003294, -0.45999791013560776 
4.320000000003271, -0.4595646250012491 
4.330000000003247, -0.4592688013546778 
4.340000000003224, -0.45923846670433105 
4.350000000003201, -0.45963781329359366 
4.360000000003177, -0.460580855292524 
4.370000000003154, -0.46187000712265647 
4.380000000003131, -0.4625556537988902 
4.390000000003107, -0.46082751315121107 
4.400000000003084, -0.4551967505292557 
4.410000000003061, -0.4463201387623359 
4.4200000000030375, -0.43674326996907675 
4.430000000003014, -0.42869364810088884 
4.440000000002991, -0.42292948566615013 
4.450000000002968, -0.41918713902905563 
4.460000000002944, -0.41689899576235606 
4.470000000002921, -0.41555664273955706 
4.480000000002898, -0.4147983166679713 
4.490000000002874, -0.4143905542608569 
4.500000000002851, -0.41418957940925577 
4.510000000002828, -0.4141091029497831 
4.520000000002804, -0.4140985589439722 
4.530000000002781, -0.41412984389827134 
4.540000000002758, -0.41419006074882614 
4.5500000000027345, -0.4142783278535841 
4.560000000002711, -0.41440504685712265 
4.570000000002688, -0.4145918398641758 
4.580000000002665, -0.414869955979729 
4.590000000002641, -0.4152749919434425 
4.600000000002618, -0.4158368007687042 
4.610000000002595, -0.4165654718079856 
4.620000000002571, -0.4174372785675103 
4.630000000002548, -0.4183882597311047 
4.640000000002525, -0.41932404041544735 
4.6500000000025015, -0.42014638535022336 
4.660000000002478, -0.420782618439662 
4.670000000002455, -0.4211997638708948 
4.6800000000024315, -0.42139826782484197 
4.690000000002408, -0.42139476827505645 
4.700000000002385, -0.4212051620582864 
4.710000000002362, -0.42083228592694405 
4.720000000002338, -0.4202564048283378 
4.730000000002315, -0.41942420612714654 
4.740000000002292, -0.41823149142623217 
4.750000000002268, -0.41649554534931355 
4.760000000002245, -0.4139190823713784 
4.770000000002222, -0.41007020291639823 
4.7800000000021985, -0.40445298011861597 
4.790000000002175, -0.39677437913161795 
4.800000000002152, -0.38735185359875196 
4.810000000002129, -0.3772407292198814 
4.820000000002105, -0.3677447530268839 
4.830000000002082, -0.35974594958472783 
4.840000000002059, -0.353490134296397 
4.850000000002035, -0.34880017523791323 
4.860000000002012, -0.34535115322729987 
4.870000000001989, -0.3428293517186995 
4.880000000001965, -0.34098712796608777 
