t, s[1].omega / s[0].omega 
0, -1.6799809104312302 
0.009999999999999995, -1.6776199818207096 
0.019999999999999934, -1.674214704825736 
0.029999999999999874, -1.6696421600871294 
0.04000000000000012, -1.6642390734392705 
0.050000000000000405, -1.6592642077207853 
0.06000000000000069, -1.6563783863051653 
0.07000000000000098, -1.6558406512914474 
0.08000000000000126, -1.6563853622953246 
0.09000000000000155, -1.6569263660086435 
0.10000000000000184, -1.6571037540688613 
0.11000000000000212, -1.6568788550269626 
0.12000000000000241, -1.6562338377744232 
0.130000000000002, -1.6551058352946413 
0.1400000000000009, -1.6535437470051726 
0.1499999999999998, -1.6522494736578976 
0.1599999999999987, -1.653072993295326 
0.1699999999999976, -1.6574945981223324 
0.1799999999999965, -1.664211944206165 
0.1899999999999954, -1.6706487544402333 
0.1999999999999943, -1.675490190315466 
0.2099999999999932, -1.6786666094401947 
0.2199999999999921, -1.6805333919556809 
0.229999999999991, -1.6814584668602026 
0.2399999999999899, -1.681719443221915 
0.2499999999999888, -1.6815049588987425 
0.2599999999999877, -1.6809426624682455 
0.2699999999999866, -1.6801334876464225 
0.2799999999999855, -1.6791800164694881 
0.2899999999999844, -1.6782011971337667 
0.2999999999999833, -1.677343041391446 
0.3099999999999822, -1.676757877393974 
0.3199999999999811, -1.6764927985034692 
0.32999999999998, -1.6764105247640582 
0.3399999999999789, -1.6762887698740336 
0.3499999999999778, -1.6759304021822907 
0.35999999999997667, -1.675130973302997 
0.36999999999997557, -1.6735431622240693 
0.37999999999997447, -1.670465412690957 
0.38999999999997337, -1.6645779607509283 
0.39999999999997227, -1.654089112190876 
0.40999999999997117, -1.6391510512287664 
0.41999999999997006, -1.6271368975328198 
0.42999999999996896, -1.6281764535761383 
0.43999999999996786, -1.6389162032240256 
0.44999999999996676, -1.6491249511727522 
0.45999999999996566, -1.6552751576562408 
0.46999999999996456, -1.6583224865932924 
0.47999999999996346, -1.65962845932826 
0.48999999999996235, -1.660012164385612 
0.49999999999996125, -1.659883275872279 
0.5099999999999602, -1.6594607711176494 
0.519999999999959, -1.6589364840657974 
0.529999999999958, -1.6585646278176043 
0.5399999999999568, -1.6585840521803223 
0.5499999999999557, -1.6590214563313104 
0.5599999999999546, -1.6596844719853059 
0.5699999999999535, -1.6603505328849824 
0.5799999999999524, -1.6608671218504643 
0.5899999999999513, -1.6611374790906877 
0.5999999999999502, -1.6610901333243526 
0.6099999999999491, -1.660654118014374 
0.619999999999948, -1.659737182363847 
0.6299999999999469, -1.6582106661190341 
0.6399999999999458, -1.6559059081106955 
0.6499999999999447, -1.6526400109309745 
0.6599999999999436, -1.64833214544486 
0.6699999999999425, -1.6433143128396512 
0.6799999999999414, -1.63870476813178 
0.6899999999999403, -1.6359553583504625 
0.6999999999999392, -1.635335705101912 
0.7099999999999381, -1.6357637804633363 
0.719999999999937, -1.63623925755068 
0.7299999999999359, -1.636392124787239 
0.7399999999999348, -1.6361598689761165 
0.7499999999999337, -1.6355060059555666 
0.7599999999999326, -1.6343382017289887 
0.7699999999999315, -1.6326265133851041 
0.7799999999999304, -1.6309287001190707 
0.7899999999999293, -1.6311537459802596 
0.7999999999999282, -1.6354766760741235 
0.8099999999999271, -1.6431183162063399 
0.819999999999926, -1.6509787894995327 
0.8299999999999249, -1.6570719208805436 
0.8399999999999238, -1.6611168188350434 
0.8499999999999227, -1.663528276263533 
0.8599999999999216, -1.6647874150104343 
0.8699999999999205, -1.6652634876850143 
0.8799999999999194, -1.6652052127711463 
0.8899999999999183, -1.6647754204178906 
0.8999999999999172, -1.664093933238976 
0.9099999999999161, -1.6632728206487073 
0.919999999999915, -1.6624288021431046 
0.9299999999999139, -1.6616808664036875 
0.9399999999999128, -1.6611439020276866 
0.9499999999999117, -1.6608726039215314 
0.9599999999999106, -1.6607839674388736 
0.9699999999999095, -1.6606938792690773 
0.9799999999999084, -1.660414855044694 
0.9899999999999073, -1.6597609516045986 
0.9999999999999062, -1.6584504749705888 
1.0099999999999052, -1.6559388597010074 
1.019999999999904, -1.6511811786460728 
1.029999999999903, -1.6424835460816485 
1.039999999999902, -1.628389026745475 
1.0499999999999008, -1.611463013038349 
1.0599999999998997, -1.6011880332637396 
1.0699999999998986, -1.6033201110278086 
1.0799999999998975, -1.6111917280939767 
1.0899999999998964, -1.6176767745819578 
1.0999999999998953, -1.621361508325338 
1.1099999999998942, -1.623103372542409 
1.119999999999893, -1.6237494643513433 
1.129999999999892, -1.6237796624553027 
1.1399999999998909, -1.6234370280468347 
1.1499999999998898, -1.6228884285616914 
1.1599999999998887, -1.6223670761699236 
1.1699999999998876, -1.622218897083614 
1.1799999999998865, -1.6226987815374045 
1.1899999999998854, -1.6237076475609715 
1.1999999999998843, -1.624901521061356 
1.2099999999998832, -1.6259831744440145 
1.219999999999882, -1.626795616474432 
1.229999999999881, -1.6272720345736584 
1.2399999999998799, -1.6273822783363727 
1.2499999999998788, -1.6271029388132803 
1.2599999999998777, -1.6264023153260692 
1.2699999999998766, -1.6252349430689665 
1.2799999999998755, -1.6235452366441236 
1.2899999999998744, -1.621288680345669 
1.2999999999998733, -1.6184962735177184 
1.3099999999998722, -1.615415078176523 
1.319999999999871, -1.6126432764360525 
1.32999999999987, -1.610895417306374 
1.3399999999998689, -1.6103322963513804 
1.3499999999998678, -1.6104266598088077 
1.3599999999998666, -1.6105925614503422 
1.3699999999998655, -1.6105342418468047 
1.3799999999998644, -1.6101275735083316 
1.3899999999998633, -1.6092366032158711 
1.3999999999998622, -1.6076035264759798 
1.4099999999998611, -1.6048716806740924 
1.41999999999986, -1.6011234757340478 
1.429999999999859, -1.5985468857823049 
1.4399999999998578, -1.6020673738771005 
1.4499999999998567, -1.6134804418899893 
1.4599999999998556, -1.627409834774602 
1.4699999999998545, -1.63845698082353 
1.4799999999998534, -1.6454503923250208 
1.4899999999998523, -1.649355671594859 
1.4999999999998512, -1.6513211316970136 
1.5099999999998501, -1.6521423044102346 
1.519999999999849, -1.6522877362286554 
1.529999999999848, -1.6520232002422695 
1.5399999999998468, -1.651520213562975 
1.5499999999998457, -1.6509289796032989 
1.5599999999998446, -1.6503934716498083 
1.5699999999998435, -1.6500116461199454 
1.5799999999998424, -1.6498126455320716 
1.5899999999998413, -1.6497729458063166 
1.5999999999998402, -1.6498146495278359 
1.6099999999998391, -1.6498098051310834 
1.619999999999838, -1.6496157006619405 
1.629999999999837, -1.649081523403884 
1.6399999999998358, -1.647999270987004 
1.6499999999998347, -1.6460197142010382 
1.6599999999998336, -1.6425524687527642 
1.6699999999998325, -1.6367027910777066 
1.6799999999998314, -1.627478695771226 
1.6899999999998303, -1.614876934923691 
1.6999999999998292, -1.6019917705485736 
1.709999999999828, -1.5944207365104301 
1.719999999999827, -1.5937896124739253 
1.729999999999826, -1.5962559171864927 
1.7399999999998248, -1.5985455733702119 
1.7499999999998237, -1.5998546387256691 
1.7599999999998226, -1.600367262216751 
1.7699999999998215, -1.6003418335282884 
1.7799999999998204, -1.5999263927455467 
1.7899999999998193, -1.599211641399635 
1.7999999999998182, -1.5983868464435074 
1.809999999999817, -1.5979568040351617 
1.819999999999816, -1.5986724457305228 
1.8299999999998149, -1.6008190304700367 
1.8399999999998138, -1.6037808520227526 
1.8499999999998127, -1.606688694035017 
1.8599999999998116, -1.6090492038388402 
1.8699999999998105, -1.6107378730321507 
1.8799999999998094, -1.6117954469016897 
1.8899999999998083, -1.6123043241949286 
1.8999999999998072, -1.6123427410902313 
1.909999999999806, -1.611973013682859 
1.919999999999805, -1.6112431360909234 
1.9299999999998039, -1.6101968115190837 
1.9399999999998028, -1.6088917579962552 
1.9499999999998017, -1.607427749065596 
1.9599999999998006, -1.6059848371855665 
1.9699999999997995, -1.6048266679690522 
1.9799999999997984, -1.6041622062375116 
1.9899999999997973, -1.603944047159955 
1.9999999999997962, -1.6039070876781103 
2.0099999999998173, -1.6037866787060224 
2.0199999999998384, -1.6033974761416279 
2.0299999999998595, -1.6025488030951376 
2.0399999999998806, -1.600900221306843 
2.0499999999999017, -1.5977750796417287 
2.059999999999923, -1.5919972792767203 
2.069999999999944, -1.5823493342443355 
2.079999999999965, -1.5703192361043175 
2.089999999999986, -1.5638654834518262 
2.100000000000007, -1.5703994586438448 
2.1100000000000283, -1.584393679136757 
2.1200000000000494, -1.5963710821204489 
2.1300000000000705, -1.6035822460418452 
2.1400000000000916, -1.6072617596360494 
2.1500000000001127, -1.6089335567543155 
2.160000000000134, -1.6095334165497541 
2.170000000000155, -1.6095421552720577 
2.180000000000176, -1.6092075886943753 
2.190000000000197, -1.608706578028881 
2.2000000000002182, -1.6082504537001292 
2.2100000000002393, -1.6080795922020468 
2.2200000000002604, -1.6083144709113661 
2.2300000000002815, -1.6088590386689223 
2.2400000000003026, -1.60951153100453 
2.2500000000003237, -1.6100991603878743 
2.260000000000345, -1.6105046098600901 
2.270000000000366, -1.6106462491448699 
2.280000000000387, -1.6104575379957127 
2.290000000000408, -1.6098676911944256 
2.3000000000004293, -1.6087865937789982 
2.3100000000004504, -1.6070980947060605 
2.3200000000004715, -1.604666479946489 
2.3300000000004926, -1.6013757550794345 
2.3400000000005137, -1.5972549161281209 
2.3500000000005348, -1.5927402367313277 
2.360000000000556, -1.588861151702615 
2.370000000000577, -1.5866809352772715 
2.380000000000598, -1.5862101039949545 
2.390000000000619, -1.586535173784837 
2.4000000000006403, -1.5868801468403722 
2.4100000000006614, -1.5869418946215055 
2.4200000000006825, -1.5866423971450332 
2.4300000000007036, -1.5859091712915359 
2.4400000000007247, -1.5845906745683433 
2.450000000000746, -1.5825260804805388 
2.460000000000767, -1.5800295425306021 
2.470000000000788, -1.5789998941071117 
2.480000000000809, -1.5827921376348226 
2.49000000000083, -1.5921207158146449 
2.5000000000008513, -1.6031867445689376 
2.5100000000008724, -1.6122985576457924 
2.5200000000008935, -1.6184418664699165 
2.5300000000009146, -1.622117702388774 
2.5400000000009357, -1.6241001168825016 
2.550000000000957, -1.625000369352247 
2.560000000000978, -1.625218923346332 
2.570000000000999, -1.62500164194767 
2.58000000000102, -1.6245095405283965 
2.5900000000010412, -1.6238768811329227 
2.6000000000010624, -1.6232358311247945 
2.6100000000010835, -1.6226973838049823 
2.6200000000011046, -1.6223280269634999 
2.6300000000011257, -1.6221479974641775 
2.6400000000011468, -1.622113699000333 
2.650000000001168, -1.6221076654181221 
2.660000000001189, -1.6219801049637794 
2.67000000000121, -1.621580662357638 
2.680000000001231, -1.6207262940295493 
2.6900000000012523, -1.619120949290004 
2.7000000000012734, -1.6162478436749925 
2.7100000000012945, -1.611262303268926 
2.7200000000013156, -1.6030342680600558 
2.7300000000013367, -1.5908382281343558 
2.740000000001358, -1.5763482260188246 
2.750000000001379, -1.5650467645666415 
2.7600000000014, -1.5614488428608773 
2.770000000001421, -1.5633731410294598 
2.780000000001442, -1.5663205723499585 
2.7900000000014633, -1.5683439978486757 
2.8000000000014844, -1.569352570901854 
2.8100000000015055, -1.569658468016519 
2.8200000000015266, -1.5694931325165735 
2.8300000000015477, -1.568975513841216 
2.840000000001569, -1.5682053289774167 
2.85000000000159, -1.5674404927435805 
2.860000000001611, -1.5672742699999784 
2.870000000001632, -1.5684014814353093 
2.8800000000016532, -1.5708791973306646 
2.8900000000016743, -1.573972957454989 
2.9000000000016954, -1.57688274986822 
2.9100000000017165, -1.5792049628749112 
2.9200000000017377, -1.5808546383492215 
2.9300000000017588, -1.5818817523131414 
2.94000000000178, -1.58236955505907 
2.950000000001801, -1.5823972658401644 
2.960000000001822, -1.5820303922981727 
2.970000000001843, -1.5813226414972552 
2.9800000000018643, -1.580325816284939 
2.9900000000018854, -1.5791064258961058 
3.0000000000019065, -1.5777674430395288 
3.0100000000019276, -1.576473602946479 
3.0200000000019487, -1.5754463275270487 
3.03000000000197, -1.5748513894622376 
3.040000000001991, -1.5746428921884776 
3.050000000002012, -1.57459257076389 
3.060000000002033, -1.5744627955385735 
3.070000000002054, -1.5740753978201496 
3.0800000000020753, -1.573242257236993 
3.0900000000020964, -1.5716351235133186 
3.1000000000021175, -1.5686064882363788 
3.1100000000021386, -1.5629824517161415 
3.1200000000021597, -1.5531888206206812 
3.130000000002181, -1.5390198497372274 
3.140000000002202, -1.525738423659354 
3.150000000002223, -1.5227520112092667 
3.160000000002244, -1.5309156159837358 
3.1700000000022652, -1.5416137890546788 
3.1800000000022863, -1.549246006715378 
3.1900000000023074, -1.553482442462005 
3.2000000000023285, -1.5555316905253953 
3.2100000000023496, -1.5563629940113426 
3.2200000000023707, -1.5565165293958863 
3.230000000002392, -1.5562654668841809 
3.240000000002413, -1.555774173312091 
3.250000000002434, -1.5552293213037982 
3.260000000002455, -1.5549196986730487 
3.2700000000024763, -1.555143937914888 
3.2800000000024974, -1.5559610051155783 
3.2900000000025185, -1.557129816305287 
3.3000000000025396, -1.5583336981597293 
3.3100000000025607, -1.5593567674295605 
3.3200000000025818, -1.5600914278143385 
3.330000000002603, -1.5604910059037829 
3.340000000002624, -1.5605342375762672 
3.350000000002645, -1.5602058228087068 
3.360000000002666, -1.5594875816107951 
3.3700000000026873, -1.5583570939140803 
3.3800000000027084, -1.556794074311217 
3.3900000000027295, -1.5548005058161862 
3.4000000000027506, -1.552448338842217 
3.4100000000027717, -1.5499640102349916 
3.420000000002793, -1.5477829715844205 
3.430000000002814, -1.546373058755466 
3.440000000002835, -1.5458345357053425 
3.450000000002856, -1.5458157079197477 
3.460000000002877, -1.5458839817851742 
3.4700000000028983, -1.5457769717785175 
3.4800000000029194, -1.5453514871938197 
3.4900000000029405, -1.5444435900116043 
3.5000000000029616, -1.542739110989702 
3.5100000000029827, -1.539663091139739 
3.520000000003004, -1.5344707326776257 
3.530000000003025, -1.5273101434883587 
3.540000000003046, -1.521967086798965 
3.550000000003067, -1.5257189138286886 
3.5600000000030882, -1.5397822502269736 
3.5700000000031094, -1.5560383844885168 
3.5800000000031305, -1.5680181329372784 
3.5900000000031516, -1.5750415270756721 
3.6000000000031727, -1.578683537444163 
3.6100000000031938, -1.58038786861435 
3.620000000003215, -1.5810300583420023 
3.630000000003236, -1.581075312496971 
3.640000000003257, -1.5807718724488562 
3.650000000003278, -1.5802909436231127 
3.6600000000032993, -1.5798154006490246 
3.6700000000033204, -1.5795423116511764 
3.6800000000033415, -1.5795829511888697 
3.6900000000033626, -1.579891677948263 
3.7000000000033837, -1.5803310307752028 
3.710000000003405, -1.5807616567818648 
3.720000000003426, -1.5810681084833544 
3.730000000003447, -1.5811558479338943 
3.740000000003468, -1.5809422743279584 
3.750000000003489, -1.580339905708191 
3.7600000000035103, -1.579238921485624 
3.7700000000035314, -1.577497647640945 
3.7800000000035525, -1.5749468173382197 
3.7900000000035736, -1.5714245460219451 
3.8000000000035947, -1.566892208910277 
3.810000000003616, -1.5617003071817963 
3.820000000003637, -1.5568741021145889 
3.830000000003658, -1.5537491562887258 
3.840000000003679, -1.5527347599733183 
3.8500000000037002, -1.5529682301421903 
3.8600000000037213, -1.5534425916893542 
3.8700000000037424, -1.5536851230782818 
3.8800000000037635, -1.5535795584847305 
3.8900000000037847, -1.5530859299166233 
3.9000000000038058, -1.5521092933095573 
3.910000000003827, -1.5504890601253885 
3.920000000003848, -1.5482101079918758 
3.930000000003869, -1.5461456908047466 
3.94000000000389, -1.5469374827532298 
3.9500000000039113, -1.5532713211558002 
3.9600000000039324, -1.5638458833966888 
3.9700000000039535, -1.5745025306356324 
3.9800000000039746, -1.5826318900976157 
3.9900000000039957, -1.58792450667042 
4.000000000004016, -1.5910251484755429 
4.010000000003993, -1.5926521846602726 
4.02000000000397, -1.593339765235029 
4.030000000003946, -1.5934324367216708 
4.040000000003923, -1.5931440578810743 
4.0500000000039, -1.5926230695509975 
4.0600000000038765, -1.5920032496604795 
4.070000000003853, -1.5914164549993137 
4.08000000000383, -1.5909636467249197 
4.090000000003807, -1.5906917021171139 
4.100000000003783, -1.5905965873135135 
4.11000000000376, -1.5906160887282215 
4.120000000003737, -1.590631569287328 
4.130000000003713, -1.5905045177638595 
4.14000000000369, -1.5900960903764878 
4.150000000003667, -1.5892359456229277 
4.1600000000036434, -1.5876589334665432 
4.17000000000362, -1.5849314702804118 
4.180000000003597, -1.580396002497987 
4.1900000000035735, -1.573236165831043 
4.20000000000355, -1.5629559699715518 
4.210000000003527, -1.550648136024372 
4.220000000003504, -1.540086264916439 
4.23000000000348, -1.535169782965572 
4.240000000003457, -1.5353732511829299 
4.250000000003434, -1.5373366129720811 
4.26000000000341, -1.5389783312727485 
4.270000000003387, -1.5398695099342927 
4.280000000003364, -1.5401479944494667 
4.2900000000033405, -1.5399758414736904 
4.300000000003317, -1.5394326586542466 
4.310000000003294, -1.5385644835654932 
4.320000000003271, -1.5375485456927387 
4.330000000003247, -1.5369796577854844 
4.340000000003224, -1.537897614983533 
4.350000000003201, -1.5409133753238613 
4.360000000003177, -1.545339675944002 
4.370000000003154, -1.549870947725907 
4.380000000003131, -1.553651548414254 
4.390000000003107, -1.5564333391925576 
4.400000000003084, -1.5582828233949122 
4.410000000003061, -1.559359805404664 
4.4200000000030375, -1.5598255093550177 
4.430000000003014, -1.5598149195243913 
4.440000000002991, -1.5594340784610392 
4.450000000002968, -1.5587699503630428 
4.460000000002944, -1.557907426931032 
4.470000000002921, -1.5569439363780166 
4.480000000002898, -1.5559943173212647 
4.490000000002874, -1.5551886400250783 
4.500000000002851, -1.5546446051589256 
4.510000000002828, -1.5543895145776667 
4.520000000002804, -1.554311840010338 
4.530000000002781, -1.5542276476346186 
4.540000000002758, -1.553965174104168 
4.5500000000027345, -1.5533600219463692 
4.560000000002711, -1.5521763597288758 
4.570000000002688, -1.5499860560793135 
4.580000000002665, -1.5460090697636977 
4.590000000002641, -1.538983313472907 
4.600000000002618, -1.5274476641611936 
4.610000000002595, -1.5113895740753522 
4.620000000002571, -1.4952186429320322 
4.630000000002548, -1.4864821977313785 
4.640000000002525, -1.4870923590519756 
4.6500000000025015, -1.4917494289830633 
4.660000000002478, -1.4959035342415725 
4.670000000002455, -1.4984309146484096 
4.6800000000024315, -1.4996786887959808 
4.690000000002408, -1.5001225108503025 
4.700000000002385, -1.5000602962922704 
4.710000000002362, -1.4996434112255526 
4.720000000002338, -1.4989726294844332 
4.730000000002315, -1.498236658795666 
4.740000000002292, -1.4978699976924195 
4.750000000002268, -1.4984927857786565 
4.760000000002245, -1.500407444094976 
4.770000000002222, -1.503216464048372 
4.7800000000021985, -1.5061906006305805 
4.790000000002175, -1.5088001550739452 
4.800000000002152, -1.5108284500042122 
4.810000000002129, -1.5122486045268295 
4.820000000002105, -1.513110088553027 
4.830000000002082, -1.513483000176024 
4.840000000002059, -1.5134367911071296 
4.850000000002035, -1.5130340348138664 
4.860000000002012, -1.512332345205476 
4.870000000001989, -1.5113931698102887 
4.880000000001965, -1.510294459661604 
4.890000000001942, -1.5091419624556697 
4.900000000001919, -1.5080758958535592 
4.9100000000018955, -1.5072548621666617 
4.920000000001872, -1.5067797055223997 
4.930000000001849, -1.5066019247478462 
4.940000000001826, -1.5065453027193676 
