t, s[1].omega / s[0].omega 
0, -1.2799954102389957 
0.009999999999999995, -1.2793588947669803 
0.019999999999999934, -1.2783715733328656 
0.029999999999999874, -1.2770355789103385 
0.04000000000000012, -1.2753548915414095 
0.050000000000000405, -1.2733362134873143 
0.06000000000000069, -1.2709900254496558 
0.07000000000000098, -1.2683316985179274 
0.08000000000000126, -1.2653825309025146 
0.09000000000000155, -1.2621705852338543 
0.10000000000000184, -1.2587312535822506 
0.11000000000000212, -1.255107612740794 
0.12000000000000241, -1.2513508359867194 
0.130000000000002, -1.2475210629938434 
0.1400000000000009, -1.243688953956056 
0.1499999999999998, -1.239937477585579 
0.1599999999999987, -1.2363624215062017 
0.1699999999999976, -1.2330692452639709 
0.1799999999999965, -1.2301641037059965 
0.1899999999999954, -1.2277387900583523 
0.1999999999999943, -1.2258526260392713 
0.2099999999999932, -1.2245172464639102 
0.2199999999999921, -1.223690505721633 
0.229999999999991, -1.2232824035164866 
0.2399999999999899, -1.2231706663216078 
0.2499999999999888, -1.2232197340001774 
0.2599999999999877, -1.2232965766729964 
0.2699999999999866, -1.2232794604618082 
0.2799999999999855, -1.2230592222500234 
0.2899999999999844, -1.2225349155441685 
0.2999999999999833, -1.2216063910874566 
0.3099999999999822, -1.2201660518091182 
0.3199999999999811, -1.2180914404148917 
0.32999999999998, -1.2152399425587552 
0.3399999999999789, -1.211446802233056 
0.3499999999999778, -1.206527663463214 
0.35999999999997667, -1.200286654949719 
0.36999999999997557, -1.1925303186329712 
0.37999999999997447, -1.1830863577365285 
0.38999999999997337, -1.1718245559311256 
0.39999999999997227, -1.158676015456662 
0.40999999999997117, -1.1436468604191146 
0.41999999999997006, -1.1268240261792744 
0.42999999999996896, -1.1083731290244194 
0.43999999999996786, -1.0885305274804913 
0.44999999999996676, -1.0675925559981514 
0.45999999999996566, -1.0459043004929076 
0.46999999999996456, -1.023848735416399 
0.47999999999996346, -1.0018354324704073 
0.48999999999996235, -0.9802871281082359 
0.49999999999996125, -0.959622573626677 
0.5099999999999602, -0.9402352491614225 
0.519999999999959, -0.9224692997475609 
0.529999999999958, -0.906595791409701 
0.5399999999999568, -0.8927933817844977 
0.5499999999999557, -0.8811372793407891 
0.5599999999999546, -0.8715989139358926 
0.5699999999999535, -0.8640565257129575 
0.5799999999999524, -0.858314632188279 
0.5899999999999513, -0.8541287351452785 
0.5999999999999502, -0.8512310597167734 
0.6099999999999491, -0.8493535781251218 
0.619999999999948, -0.8482457560593006 
0.6299999999999469, -0.8476859226399764 
0.6399999999999458, -0.8474864838538732 
0.6499999999999447, -0.8474941023624339 
0.6599999999999436, -0.8475863749805523 
0.6699999999999425, -0.8476665333166201 
0.6799999999999414, -0.8476574349385502 
0.6899999999999403, -0.8474957673695075 
0.6999999999999392, -0.8471270748461291 
0.7099999999999381, -0.8465019961239152 
0.719999999999937, -0.8455739732396467 
0.7299999999999359, -0.8442986171369726 
0.7399999999999348, -0.842634831340205 
0.7499999999999337, -0.8405476276866384 
0.7599999999999326, -0.8380122716782203 
0.7699999999999315, -0.83501899139636 
0.7799999999999304, -0.8315770993291578 
0.7899999999999293, -0.8277172235870612 
0.7999999999999282, -0.8234906195116254 
0.8099999999999271, -0.8189652587727927 
0.819999999999926, -0.8142193364165411 
0.8299999999999249, -0.8093335960640033 
0.8399999999999238, -0.8043841205750869 
0.8499999999999227, -0.7994369147091795 
0.8599999999999216, -0.7945449391169326 
0.8699999999999205, -0.7897475645620672 
0.8799999999999194, -0.7850719355808792 
0.8899999999999183, -0.780535532003017 
0.8999999999999172, -0.7761492378834981 
0.9099999999999161, -0.7719203703137054 
0.919999999999915, -0.7678553006520527 
0.9299999999999139, -0.7639614675170511 
0.9399999999999128, -0.760248712366821 
0.9499999999999117, -0.7567299595239472 
0.9599999999999106, -0.7534213168620807 
0.9699999999999095, -0.7503416994156527 
0.9799999999999084, -0.7475120859447073 
0.9899999999999073, -0.7449545170211787 
0.9999999999999062, -0.7426909385608361 
1.0099999999999052, -0.7407419894244047 
1.019999999999904, -0.7391258255861068 
1.029999999999903, -0.7378570651312544 
1.039999999999902, -0.7369459269581728 
1.0499999999999008, -0.736397621360953 
1.0599999999998997, -0.736212033251573 
1.0699999999998986, -0.7363837195220756 
1.0799999999998975, -0.7369022217622865 
1.0899999999998964, -0.7377526749859576 
1.0999999999998953, -0.7389166731171672 
1.1099999999998942, -0.7403733340440997 
1.119999999999893, -0.7421004924916283 
1.129999999999892, -0.7440759387514335 
1.1399999999998909, -0.7462786152315565 
1.1499999999998898, -0.7486896792580608 
1.1599999999998887, -0.7512933372645672 
1.1699999999998876, -0.7540773509180968 
1.1799999999998865, -0.7570331109494741 
1.1899999999998854, -0.760155174400932 
1.1999999999998843, -0.7634401741560047 
1.2099999999998832, -0.7668850462134754 
1.219999999999882, -0.7704845896476917 
1.229999999999881, -0.7742284829124577 
1.2399999999998799, -0.7780980289004239 
1.2499999999998788, -0.782063079936077 
1.2599999999998777, -0.786079771073503 
1.2699999999998766, -0.7900897999232575 
1.2799999999998755, -0.7940219344180974 
1.2899999999998744, -0.7977961094402108 
1.2999999999998733, -0.8013298717221871 
1.3099999999998722, -0.8045461915293295 
1.319999999999871, -0.80738107859134 
1.32999999999987, -0.8097893367610087 
1.3399999999998689, -0.8117472897391391 
1.3499999999998678, -0.8132522180643387 
1.3599999999998666, -0.8143191627912557 
1.3699999999998655, -0.814976311380792 
1.3799999999998644, -0.8152602606500553 
1.3899999999998633, -0.8152121690193337 
1.3999999999998622, -0.8148753923597798 
1.4099999999998611, -0.8142948333754256 
1.41999999999986, -0.8135180087398757 
1.429999999999859, -0.8125977439324819 
1.4399999999998578, -0.8115963864100314 
1.4499999999998567, -0.8105914150718597 
1.4599999999998556, -0.809682258007677 
1.4699999999998545, -0.8089979684034325 
1.4799999999998534, -0.8087051305542085 
1.4899999999998523, -0.8090149862124513 
1.4999999999998512, -0.810188339027737 
1.5099999999998501, -0.8125364093898286 
1.519999999999849, -0.8164156073881929 
1.529999999999848, -0.82221431564352 
1.5399999999998468, -0.8303303600734246 
1.5499999999998457, -0.8411389883335734 
1.5599999999998446, -0.8549528938161327 
1.5699999999998435, -0.8719780036920382 
1.5799999999998424, -0.8922710342905376 
1.5899999999998413, -0.9157065089202738 
1.5999999999998402, -0.9419610799038736 
1.6099999999998391, -0.970520812523176 
1.619999999999838, -1.0007126193829243 
1.629999999999837, -1.0317555741126732 
1.6399999999998358, -1.0628235210081962 
1.6499999999998347, -1.0931089892391357 
1.6599999999998336, -1.1218801171835557 
1.6699999999998325, -1.1485256334297431 
1.6799999999998314, -1.1725859098559437 
1.6899999999998303, -1.1937695387179217 
1.6999999999998292, -1.2119551166391533 
1.709999999999828, -1.2271782252819325 
1.719999999999827, -1.2396050115061494 
1.729999999999826, -1.249496141941883 
1.7399999999998248, -1.2571670061543765 
1.7499999999998237, -1.262950564719079 
1.7599999999998226, -1.2671678284816554 
1.7699999999998215, -1.2701083762905567 
1.7799999999998204, -1.2720207806629682 
1.7899999999998193, -1.2731111762105356 
1.7999999999998182, -1.2735476635130325 
1.809999999999817, -1.273468471572061 
1.819999999999816, -1.2729923026031311 
1.8299999999998149, -1.2722296026545472 
1.8399999999998138, -1.2712933510354378 
1.8499999999998127, -1.2703073077815186 
1.8599999999998116, -1.2694088804666765 
1.8699999999998105, -1.2687437575505978 
1.8799999999998094, -1.2684512727740624 
1.8899999999998083, -1.2686433434255167 
1.8999999999998072, -1.269384065664081 
1.909999999999806, -1.270678461656211 
1.919999999999805, -1.272475424070642 
1.9299999999998039, -1.2746832530107668 
1.9399999999998028, -1.2771907508179756 
1.9499999999998017, -1.2798859236523252 
1.9599999999998006, -1.2826675391672007 
1.9699999999997995, -1.2854491777348511 
1.9799999999997984, -1.2881583333154616 
1.9899999999997973, -1.2907337274878015 
1.9999999999997962, -1.2931229891769405 
2.0099999999998173, -1.2952814187298043 
2.0199999999998384, -1.2971715664154375 
2.0299999999998595, -1.2987630540455253 
2.0399999999998806, -1.30003222995487 
2.0499999999999017, -1.3009615282077696 
2.059999999999923, -1.3015385902728986 
2.069999999999944, -1.3017552676630426 
2.079999999999965, -1.3016066176858445 
2.089999999999986, -1.3010899919428496 
2.100000000000007, -1.3002043173065945 
2.1100000000000283, -1.298949667580464 
2.1200000000000494, -1.2973272019413913 
2.1300000000000705, -1.2953395000592167 
2.1400000000000916, -1.292991266478291 
2.1500000000001127, -1.2902903256764957 
2.160000000000134, -1.2872487946419477 
2.170000000000155, -1.2838843074680626 
2.180000000000176, -1.2802211904484146 
2.190000000000197, -1.2762915750111168 
2.2000000000002182, -1.2721366062165012 
2.2100000000002393, -1.26780809769849 
2.2200000000002604, -1.2633710111987873 
2.2300000000002815, -1.258906726644688 
2.2400000000003026, -1.2545160623697296 
2.2500000000003237, -1.250319659666586 
2.260000000000345, -1.2464524848225598 
2.270000000000366, -1.243049975618373 
2.280000000000387, -1.2402264591298606 
2.290000000000408, -1.2380510640956692 
2.3000000000004293, -1.2365297426968789 
2.3100000000004504, -1.2356011439708063 
2.3200000000004715, -1.2351484038340539 
2.3300000000004926, -1.2350217306163223 
2.3400000000005137, -1.2350626428397937 
2.3500000000005348, -1.2351218641950383 
2.360000000000556, -1.235067304022736 
2.370000000000577, -1.234782873888786 
2.380000000000598, -1.2341611054612882 
2.390000000000619, -1.2330926904760433 
2.4000000000006403, -1.231455233625185 
2.4100000000006614, -1.229102683602037 
2.4200000000006825, -1.225856571589276 
2.4300000000007036, -1.2215003911225775 
2.4400000000007247, -1.2157789800356424 
2.450000000000746, -1.2084052109778147 
2.460000000000767, -1.1990761269593277 
2.470000000000788, -1.1874993670889697 
2.480000000000809, -1.1734281843144496 
2.49000000000083, -1.1567001835475308 
2.5000000000008513, -1.137272488694723 
2.5100000000008724, -1.115245843990215 
2.5200000000008935, -1.0908726307463346 
2.5300000000009146, -1.0645478463938534 
2.5400000000009357, -1.0367857661857296 
2.550000000000957, -1.0081868095841184 
2.560000000000978, -0.979398989960284 
2.570000000000999, -0.9510772927028359 
2.58000000000102, -0.9238435742736953 
2.5900000000010412, -0.8982495698246744 
2.6000000000010624, -0.8747459831167506 
2.6100000000010835, -0.8536606880594253 
2.6200000000011046, -0.8351882973549717 
2.6300000000011257, -0.8193917932657551 
2.6400000000011468, -0.8062150665941699 
2.650000000001168, -0.7955036824404051 
2.660000000001189, -0.7870303809829793 
2.67000000000121, -0.7805217899873401 
2.680000000001231, -0.7756833839005192 
2.6900000000012523, -0.7722205947401974 
2.7000000000012734, -0.7698549199539831 
2.7100000000012945, -0.7683347197316626 
2.7200000000013156, -0.7674410613894334 
2.7300000000013367, -0.7669894135154796 
2.740000000001358, -0.7668282172328096 
2.750000000001379, -0.7668353961722659 
2.7600000000014, -0.7669137627255469 
2.770000000001421, -0.7669860976783962 
2.780000000001442, -0.766990480552426 
2.7900000000014633, -0.7668762700881594 
2.8000000000014844, -0.7666009978927896 
2.8100000000015055, -0.7661283411581261 
2.8200000000015266, -0.7654272621081242 
2.8300000000015477, -0.7644723108438625 
2.840000000001569, -0.7632449537167596 
2.85000000000159, -0.7617355996505305 
2.860000000001611, -0.7599457803201756 
2.870000000001632, -0.7578897749133584 
2.8800000000016532, -0.7555949635512786 
2.8900000000016743, -0.7531004231849228 
2.9000000000016954, -0.7504537248160613 
2.9100000000017165, -0.7477064069987448 
2.9200000000017377, -0.7449089815093891 
2.9300000000017588, -0.74210642196302 
2.94000000000178, -0.7393348859070383 
2.950000000001801, -0.7366200476094318 
2.960000000001822, -0.7339770363169851 
2.970000000001843, -0.7314116983228003 
2.9800000000018643, -0.728922763914349 
2.9900000000018854, -0.7265044768933777 
3.0000000000019065, -0.724149292729887 
3.0100000000019276, -0.7218503387146062 
3.0200000000019487, -0.7196034354365911 
3.03000000000197, -0.71740858773469 
3.040000000001991, -0.7152709481871835 
3.050000000002012, -0.7132013218100343 
3.060000000002033, -0.7112163090360714 
3.070000000002054, -0.7093381783923977 
3.0800000000020753, -0.7075945328491362 
3.0900000000020964, -0.7060178003752278 
3.1000000000021175, -0.7046445534383785 
3.1100000000021386, -0.703514652093511 
3.1200000000021597, -0.7026702126594929 
3.130000000002181, -0.7021544252427777 
3.140000000002202, -0.7020102715732685 
3.150000000002223, -0.7022792215244392 
3.160000000002244, -0.7030000047880656 
3.1700000000022652, -0.7042075583476651 
3.1800000000022863, -0.7059322388671638 
3.1900000000023074, -0.7081993634507786 
3.2000000000023285, -0.7110291064366108 
3.2100000000023496, -0.7144367388947305 
3.2200000000023707, -0.7184331556353298 
3.230000000002392, -0.7230255944386944 
3.240000000002413, -0.7282184145952346 
3.250000000002434, -0.7340137660519932 
3.260000000002455, -0.740411945886138 
3.2700000000024763, -0.7474112068042309 
3.2800000000024974, -0.7550067585732905 
3.2900000000025185, -0.7631887005344653 
3.3000000000025396, -0.7719386645966624 
3.3100000000025607, -0.7812250686338026 
3.3200000000025818, -0.7909971254809938 
3.330000000002603, -0.8011781647003199 
3.340000000002624, -0.8116594060262013 
3.350000000002645, -0.8222959778174571 
3.360000000002666, -0.8329074390100155 
3.3700000000026873, -0.8432849149716471 
3.3800000000027084, -0.8532057823535842 
3.3900000000027295, -0.8624545978996598 
3.4000000000027506, -0.8708463493664909 
3.4100000000027717, -0.8782464325531013 
3.420000000002793, -0.8845822097729583 
3.430000000002814, -0.8898436532843848 
3.440000000002835, -0.8940741381893851 
3.450000000002856, -0.897355149803138 
3.460000000002877, -0.8997894681961043 
3.4700000000028983, -0.9014864716565809 
3.4800000000029194, -0.9025515066860468 
3.4900000000029405, -0.9030797300969139 
3.5000000000029616, -0.9031539009459845 
3.5100000000029827, -0.9028453005192919 
3.520000000003004, -0.9022170798074202 
3.530000000003025, -0.9013296430175883 
3.540000000003046, -0.9002479988314311 
3.550000000003067, -0.899051233182105 
3.5600000000030882, -0.8978442892811438 
3.5700000000031094, -0.8967719929258864 
3.5800000000031305, -0.8960346442629191 
3.5900000000031516, -0.8959034607153192 
3.6000000000031727, -0.8967327645388989 
3.6100000000031938, -0.8989643320140936 
3.620000000003215, -0.9031182842917405 
3.630000000003236, -0.9097650323442521 
3.640000000003257, -0.9194748450827607 
3.650000000003278, -0.932746074978519 
3.6600000000032993, -0.9499197715597176 
3.6700000000033204, -0.9710960165317284 
3.6800000000033415, -0.996072983323006 
3.6900000000033626, -1.024329538685965 
3.7000000000033837, -1.0550632647478477 
3.710000000003405, -1.0872794164257185 
3.720000000003426, -1.119909432444037 
3.730000000003447, -1.151929125174896 
3.740000000003468, -1.1824509509675802 
3.750000000003489, -1.2107781519061205 
3.7600000000035103, -1.2364227083367696 
3.7700000000035314, -1.2590973522543474 
3.7800000000035525, -1.2786930223719912 
3.7900000000035736, -1.2952498355744368 
3.8000000000035947, -1.3089255920469842 
3.810000000003616, -1.319963376237506 
3.820000000003637, -1.3286593878717778 
3.830000000003658, -1.3353328134906346 
3.840000000003679, -1.3403000877421123 
3.8500000000037002, -1.3438555860164763 
3.8600000000037213, -1.3462597240493663 
3.8700000000037424, -1.347734185306263 
3.8800000000037635, -1.3484630924434748 
3.8900000000037847, -1.3485985804519838 
3.9000000000038058, -1.3482692618568588 
3.910000000003827, -1.3475901638512862 
3.920000000003848, -1.3466725493094722 
3.930000000003869, -1.3456315145770823 
3.94000000000389, -1.3445887209970935 
3.9500000000039113, -1.343667900343068 
3.9600000000039324, -1.3429827937069938 
3.9700000000039535, -1.342620855272578 
3.9800000000039746, -1.3426293897641077 
3.9900000000039957, -1.343010831259595 
4.000000000004016, -1.3437295457865965 
4.010000000003993, -1.344726490312776 
4.02000000000397, -1.3459345852169082 
4.030000000003946, -1.3472887952075152 
4.040000000003923, -1.3487290724322054 
4.0500000000039, -1.3501983059393767 
4.0600000000038765, -1.3516390576946766 
4.070000000003853, -1.3529919681860951 
4.08000000000383, -1.3541965923459551 
4.090000000003807, -1.3551936882176285 
4.100000000003783, -1.3559274809543294 
4.11000000000376, -1.3563469670649106 
4.120000000003737, -1.3564061660874902 
4.130000000003713, -1.356063768727691 
4.14000000000369, -1.355282709387508 
4.150000000003667, -1.3540299626844405 
4.1600000000036434, -1.3522765654202713 
4.17000000000362, -1.3499976697429432 
4.180000000003597, -1.3471724073455835 
4.1900000000035735, -1.3437834650637916 
4.20000000000355, -1.339816460030497 
4.210000000003527, -1.335259368729483 
4.220000000003504, -1.3301023541308685 
4.23000000000348, -1.3243383510439233 
4.240000000003457, -1.3179647635546994 
4.250000000003434, -1.310986666230465 
4.26000000000341, -1.3034220100506442 
4.270000000003387, -1.2953094350364736 
4.280000000003364, -1.2867191329766658 
4.2900000000033405, -1.2777663649172806 
4.300000000003317, -1.268625310133506 
4.310000000003294, -1.2595379622110408 
4.320000000003271, -1.2508099570701974 
4.330000000003247, -1.2427851050368512 
4.340000000003224, -1.2357959868058772 
4.350000000003201, -1.23009961552691 
4.360000000003177, -1.2258194217347886 
4.370000000003154, -1.222917927777958 
4.380000000003131, -1.2212126898868314 
4.390000000003107, -1.2204274655854102 
4.400000000003084, -1.2202554017430025 
4.410000000003061, -1.2204107082007791 
4.4200000000030375, -1.2206565983561142 
4.430000000003014, -1.2208100560668682 
4.440000000002991, -1.2207309922574348 
4.450000000002968, -1.2203039363169308 
4.460000000002944, -1.2194176092730304 
4.470000000002921, -1.2179445070201476 
4.480000000002898, -1.215720395629399 
4.490000000002874, -1.2125226199736028 
4.500000000002851, -1.2080461969144771 
4.510000000002828, -1.2018777783907422 
4.520000000002804, -1.1934699929095824 
4.530000000002781, -1.1821228337919139 
4.540000000002758, -1.1669847587220399 
4.5500000000027345, -1.1470927569353149 
4.560000000002711, -1.1214738247223202 
4.570000000002688, -1.089322608850599 
4.580000000002665, -1.0502433178417994 
4.590000000002641, -1.0044986575066122 
4.600000000002618, -0.953165125092813 
4.610000000002595, -0.8980923452165366 
4.620000000002571, -0.841632580819215 
4.630000000002548, -0.7862189068339206 
4.640000000002525, -0.7339487827396787 
4.6500000000025015, -0.6863141186994294 
4.660000000002478, -0.6441290364383909 
4.670000000002455, -0.6076153742980698 
4.6800000000024315, -0.5765657266324399 
4.690000000002408, -0.5505137333579577 
4.700000000002385, -0.5288724405295141 
4.710000000002362, -0.5110294489221402 
4.720000000002338, -0.49640349777715753 
4.730000000002315, -0.4844727347458212 
4.740000000002292, -0.47478475123208314 
4.750000000002268, -0.466956133397676 
4.760000000002245, -0.4606667320747947 
4.770000000002222, -0.4556518220132887 
4.7800000000021985, -0.4516939205836551 
4.790000000002175, -0.44861515693911097 
4.800000000002152, -0.4462705691998199 
4.810000000002129, -0.4445424278531774 
4.820000000002105, -0.4433355447616864 
4.830000000002082, -0.4425734683662001 
4.840000000002059, -0.44219544985409537 
4.850000000002035, -0.4421540704990223 
4.860000000002012, -0.4424134346392454 
4.870000000001989, -0.4429478487778731 
4.880000000001965, -0.44374092093580064 
4.890000000001942, -0.4447850231059543 
4.900000000001919, -0.4460810617795087 
4.9100000000018955, -0.44763849606621553 
4.920000000001872, -0.44947552964015064 
4.930000000001849, -0.45161938194875295 
