t, s[1].omega / s[0].omega 
0, -0.619997721832094 
0.009999999999999995, -0.619783109583142 
0.019999999999999934, -0.6195851700883857 
0.029999999999999874, -0.6193799567380581 
0.04000000000000012, -0.6191395087393825 
0.050000000000000405, -0.6188425990106444 
0.06000000000000069, -0.6184809011475618 
0.07000000000000098, -0.6180599267058146 
0.08000000000000126, -0.617597804216705 
0.09000000000000155, -0.6171256857978122 
0.10000000000000184, -0.6166922930345873 
0.11000000000000212, -0.61637385844976 
0.12000000000000241, -0.6162901947487379 
0.130000000000002, -0.6166273847026668 
0.1400000000000009, -0.617666815647129 
0.1499999999999998, -0.6198178639287912 
0.1599999999999987, -0.6236452367790672 
0.1699999999999976, -0.6298673045610473 
0.1799999999999965, -0.639273312311125 
0.1899999999999954, -0.6524732710005068 
0.1999999999999943, -0.669419632658277 
0.2099999999999932, -0.6888708109878239 
0.2199999999999921, -0.7083802159190655 
0.229999999999991, -0.7252945957405317 
0.2399999999999899, -0.7380950955044203 
0.2499999999999888, -0.7467918134246172 
0.2599999999999877, -0.7522806359578038 
0.2699999999999866, -0.7555849042892527 
0.2799999999999855, -0.7574978180183225 
0.2899999999999844, -0.7585376161579435 
0.2999999999999833, -0.7590121663794502 
0.3099999999999822, -0.7590880268444224 
0.3199999999999811, -0.7588356697961076 
0.32999999999998, -0.7582499149465604 
0.3399999999999789, -0.7572484663989069 
0.3499999999999778, -0.7556485169514204 
0.35999999999997667, -0.7531192496969328 
0.36999999999997557, -0.749115224503817 
0.37999999999997447, -0.7428303925137764 
0.38999999999997337, -0.7332942569276234 
0.39999999999997227, -0.7197993610748249 
0.40999999999997117, -0.7026391421444556 
0.41999999999997006, -0.683529786244378 
0.42999999999996896, -0.6649863416491126 
0.43999999999996786, -0.6490740292912904 
0.44999999999996676, -0.6367021396058768 
0.45999999999996566, -0.6277812772584065 
0.46999999999996456, -0.6217173117953788 
0.47999999999996346, -0.6177995898031431 
0.48999999999996235, -0.6153929438708114 
0.49999999999996125, -0.613998172574853 
0.5099999999999602, -0.6132506355754622 
0.519999999999959, -0.6128968307860881 
0.529999999999958, -0.6127668746361703 
0.5399999999999568, -0.6127498571418107 
0.5499999999999557, -0.6127743603473348 
0.5599999999999546, -0.6127945782242957 
0.5699999999999535, -0.6127818039525362 
0.5799999999999524, -0.6127206797394658 
0.5899999999999513, -0.6126088707549767 
0.5999999999999502, -0.6124575129678379 
0.6099999999999491, -0.6122888532202069 
0.619999999999948, -0.6121287927492309 
0.6299999999999469, -0.6119958881186114 
0.6399999999999458, -0.6118919657603281 
0.6499999999999447, -0.6117996683117443 
0.6599999999999436, -0.6116886946302421 
0.6699999999999425, -0.6115274763202657 
0.6799999999999414, -0.6112939506471188 
0.6899999999999403, -0.610980652804389 
0.6999999999999392, -0.610594238526779 
0.7099999999999381, -0.6101532409589233 
0.719999999999937, -0.6096881308850663 
0.7299999999999359, -0.6092462425127643 
0.7399999999999348, -0.6089030553638244 
0.7499999999999337, -0.6087812419510873 
0.7599999999999326, -0.6090791542071287 
0.7699999999999315, -0.6101099424248108 
0.7799999999999304, -0.6123494973157037 
0.7899999999999293, -0.6164820352759308 
0.7999999999999282, -0.6234086653147892 
0.8099999999999271, -0.6341378331119102 
0.819999999999926, -0.6494243026169826 
0.8299999999999249, -0.6690853285053503 
0.8399999999999238, -0.6913283268287163 
0.8499999999999227, -0.7129866407419572 
0.8599999999999216, -0.7310624671087841 
0.8699999999999205, -0.7442465956930098 
0.8799999999999194, -0.7529552248219732 
0.8899999999999183, -0.7583589806099466 
0.8999999999999172, -0.7615878378088641 
0.9099999999999161, -0.7634550586146036 
0.919999999999915, -0.7644725391593041 
0.9299999999999139, -0.7649387651933934 
0.9399999999999128, -0.7650132588538422 
0.9499999999999117, -0.7647616089873982 
0.9599999999999106, -0.764174647494357 
0.9699999999999095, -0.7631658736570156 
0.9799999999999084, -0.7615477461376472 
0.9899999999999073, -0.7589865846695028 
0.9999999999999062, -0.7549464210628403 
1.0099999999999052, -0.748670997627313 
1.019999999999904, -0.7393260186930292 
1.029999999999903, -0.7264407480266036 
1.039999999999902, -0.7105209871939447 
1.0499999999999008, -0.6932320895219402 
1.0599999999998997, -0.676719387862806 
1.0699999999998986, -0.6626181725325724 
1.0799999999998975, -0.6516058101948421 
1.0899999999998964, -0.6435835271519654 
1.0999999999998953, -0.638061203474107 
1.1099999999998942, -0.6344494934588489 
1.119999999999893, -0.6322089439875601 
1.129999999999892, -0.6309031551401922 
1.1399999999998909, -0.6302040888467484 
1.1499999999998898, -0.6298777263634523 
1.1599999999998887, -0.629763760212277 
1.1699999999998876, -0.6297555966132149 
1.1799999999998865, -0.6297835094093995 
1.1899999999998854, -0.6298021506681565 
1.1999999999998843, -0.6297827886752863 
1.2099999999998832, -0.6297100102582428 
1.219999999999882, -0.629581623542158 
1.229999999999881, -0.6294090096845761 
1.2399999999998799, -0.6292143181140663 
1.2499999999998788, -0.6290225370865956 
1.2599999999998777, -0.62885055736102 
1.2699999999998766, -0.6286986821714563 
1.2799999999998755, -0.6285495281698342 
1.2899999999998744, -0.628375166972059 
1.2999999999998733, -0.6281484983590464 
1.3099999999998722, -0.6278527255226305 
1.319999999999871, -0.6274852561450187 
1.32999999999987, -0.6270570776618785 
1.3399999999998689, -0.6265914660553072 
1.3499999999998678, -0.626125567995022 
1.3599999999998666, -0.6257168376193596 
1.3699999999998655, -0.6254552447420028 
1.3799999999998644, -0.6254817646188606 
1.3899999999998633, -0.626013214299915 
1.3999999999998622, -0.6273721378883523 
1.4099999999998611, -0.6300168902492317 
1.41999999999986, -0.6345587065310155 
1.429999999999859, -0.6417347002253418 
1.4399999999998578, -0.6522758307074621 
1.4499999999998567, -0.6665881748895233 
1.4599999999998556, -0.6842440644964756 
1.4699999999998545, -0.7035806081711637 
1.4799999999998534, -0.722018615436205 
1.4899999999998523, -0.7372578731811908 
1.4999999999998512, -0.7483519692042012 
1.5099999999998501, -0.7556871390578703 
1.519999999999849, -0.760235067277296 
1.529999999999848, -0.7629343500004664 
1.5399999999998468, -0.7644655992144986 
1.5499999999998457, -0.7652585106043746 
1.5599999999998446, -0.7655612771307705 
1.5699999999998435, -0.7655006504611725 
1.5799999999998424, -0.7651172748571807 
1.5899999999998413, -0.7643775767107255 
1.5999999999998402, -0.7631639225229658 
1.6099999999998391, -0.7612412373682205 
1.619999999999838, -0.75819738019869 
1.629999999999837, -0.7533674610123662 
1.6399999999998358, -0.7458029070652913 
1.6499999999998347, -0.7344494576075649 
1.6599999999998336, -0.7187378523178314 
1.6699999999998325, -0.6994218076781434 
1.6799999999998314, -0.6787909569733146 
1.6899999999998303, -0.6596437852796284 
1.6999999999998292, -0.6439097350872544 
1.709999999999828, -0.6321618940261552 
1.719999999999827, -0.6240091595310252 
1.729999999999826, -0.6186725809837827 
1.7399999999998248, -0.615357725478653 
1.7499999999998237, -0.613408418219913 
1.7599999999998226, -0.612336588789364 
1.7699999999998215, -0.6118016095350117 
1.7799999999998204, -0.6115760612843909 
1.7899999999998193, -0.6115128665927558 
1.7999999999998182, -0.6115186748477868 
1.809999999999817, -0.611534385478447 
1.819999999999816, -0.6115223443535859 
1.8299999999998149, -0.6114594276632166 
1.8399999999998138, -0.6113349747676642 
1.8499999999998127, -0.6111516545354932 
1.8599999999998116, -0.6109259340388026 
1.8699999999998105, -0.6106843970030907 
1.8799999999998094, -0.6104545911137533 
1.8899999999998083, -0.6102535587301094 
1.8999999999998072, -0.6100799684396643 
1.909999999999806, -0.6099143207235161 
1.919999999999805, -0.6097271997807058 
1.9299999999998039, -0.6094909777722503 
1.9399999999998028, -0.6091889010252074 
1.9499999999998017, -0.6088184076498055 
1.9599999999998006, -0.6083901819983588 
1.9699999999997995, -0.6079268927513587 
1.9799999999997984, -0.6074650494209124 
1.9899999999997973, -0.6070619754162202 
1.9999999999997962, -0.6068091334309502 
2.0099999999998173, -0.6068530141890626 
2.0199999999998384, -0.6074247634177374 
2.0299999999998595, -0.6088785753919448 
2.0399999999998806, -0.6117346296213058 
2.0499999999999017, -0.6167106244635597 
2.059999999999923, -0.624698932697691 
2.069999999999944, -0.6365996198726291 
2.079999999999965, -0.6528889027475749 
2.089999999999986, -0.6729365683693164 
2.100000000000007, -0.6945541087930616 
2.1100000000000283, -0.7146115782962056 
2.1200000000000494, -0.730653371661662 
2.1300000000000705, -0.7419835128809003 
2.1400000000000916, -0.749312317701738 
2.1500000000001127, -0.7538018041155913 
2.160000000000134, -0.756456630665537 
2.170000000000155, -0.7579666291519898 
2.180000000000176, -0.7587552229578486 
2.190000000000197, -0.7590635606122536 
2.2000000000002182, -0.7590135841869335 
2.2100000000002393, -0.7586430088515582 
2.2200000000002604, -0.7579164480285023 
2.2300000000002815, -0.7567154480642903 
2.2400000000003026, -0.7548070406297164 
2.2500000000003237, -0.7517921368880005 
2.260000000000345, -0.7470533098501084 
2.270000000000366, -0.7397742965906191 
2.280000000000387, -0.7291770890647669 
2.290000000000408, -0.7150679434888874 
2.3000000000004293, -0.6983895033829078 
2.3100000000004504, -0.6811042309260599 
2.3200000000004715, -0.6652844712399937 
2.3300000000004926, -0.6522368820292387 
2.3400000000005137, -0.6423147539687452 
2.3500000000005348, -0.6352307898077127 
2.360000000000556, -0.6304317382479142 
2.370000000000577, -0.6273368119407399 
2.380000000000598, -0.6254440471958613 
2.390000000000619, -0.6243600452880609 
2.4000000000006403, -0.6237949631876515 
2.4100000000006614, -0.6235447748277367 
2.4200000000006825, -0.6234708713494521 
2.4300000000007036, -0.6234814225655194 
2.4400000000007247, -0.6235164077760336 
2.450000000000746, -0.623537060760899 
2.460000000000767, -0.6235198418441164 
2.470000000000788, -0.6234543778579036 
2.480000000000809, -0.6233436483346062 
2.49000000000083, -0.6232033111605766 
2.5000000000008513, -0.6230569465536602 
2.5100000000008724, -0.6229265897094745 
2.5200000000008935, -0.6228220439408686 
2.5300000000009146, -0.6227346511078273 
2.5400000000009357, -0.6226393987298665 
2.550000000000957, -0.6225045555407729 
2.560000000000978, -0.6223035178034094 
2.570000000000999, -0.6220227629230723 
2.58000000000102, -0.6216636253662997 
2.5900000000010412, -0.6212403923006862 
2.6000000000010624, -0.6207790343800454 
2.6100000000010835, -0.6203198364979745 
2.6200000000011046, -0.6199256713150308 
2.6300000000011257, -0.6196970108354156 
2.6400000000011468, -0.6197947407737333 
2.650000000001168, -0.6204715130856697 
2.660000000001189, -0.6221105367984223 
2.67000000000121, -0.6252652148512747 
2.680000000001231, -0.6306793982967942 
2.6900000000012523, -0.6392392308392758 
2.7000000000012734, -0.6517641806743392 
2.7100000000012945, -0.6685366007626143 
2.7200000000013156, -0.6886516354200424 
2.7300000000013367, -0.7097392132642444 
2.740000000001358, -0.7287812323114948 
2.750000000001379, -0.7436718451437869 
2.7600000000014, -0.7540208805645044 
2.770000000001421, -0.7606449155230306 
2.780000000001442, -0.7646714649004476 
2.7900000000014633, -0.767031372246895 
2.8000000000014844, -0.7683510892110637 
2.8100000000015055, -0.7690104100328005 
2.8200000000015266, -0.7692219383706806 
2.8300000000015477, -0.7690876920017629 
2.840000000001569, -0.7686286088357484 
2.85000000000159, -0.7677907447620161 
2.860000000001611, -0.7664296471490479 
2.870000000001632, -0.7642710631427755 
2.8800000000016532, -0.7608486027994168 
2.8900000000016743, -0.7554414139153416 
2.9000000000016954, -0.7471002727547427 
2.9100000000017165, -0.7349417741292574 
2.9200000000017377, -0.7188168576667131 
2.9300000000017588, -0.6999554095013376 
2.94000000000178, -0.6807465108769482 
2.950000000001801, -0.6635753066022688 
2.960000000001822, -0.649807512736752 
2.970000000001843, -0.6396657775958725 
2.9800000000018643, -0.6326731788838875 
2.9900000000018854, -0.6281123114541807 
3.0000000000019065, -0.6252909349922883 
3.0100000000019276, -0.6236447881341827 
3.0200000000019487, -0.6227537700580184 
3.03000000000197, -0.6223230355378722 
3.040000000001991, -0.6221544008254827 
3.050000000002012, -0.6221187564524024 
3.060000000002033, -0.6221334120021704 
3.070000000002054, -0.6221454201493388 
3.0800000000020753, -0.6221208119164455 
3.0900000000020964, -0.62203924646634 
3.1000000000021175, -0.6218930311984077 
3.1100000000021386, -0.6216882539320182 
3.1200000000021597, -0.621444363393944 
3.130000000002181, -0.6211888212136185 
3.140000000002202, -0.6209467954557243 
3.150000000002223, -0.6207302940984837 
3.160000000002244, -0.6205326678427083 
3.1700000000022652, -0.6203316486790107 
3.1800000000022863, -0.6200991665000981 
3.1900000000023074, -0.6198124405643894 
3.2000000000023285, -0.619461024209068 
3.2100000000023496, -0.619048415822965 
3.2200000000023707, -0.6185909078281789 
3.230000000002392, -0.6181175362377236 
3.240000000002413, -0.6176738778407196 
3.250000000002434, -0.6173310879214177 
3.260000000002455, -0.6172009323484487 
3.2700000000024763, -0.6174573169431503 
3.2800000000024974, -0.6183641725360925 
3.2900000000025185, -0.6203074916037027 
3.3000000000025396, -0.6238238943401508 
3.3100000000025607, -0.6296053116807755 
3.3200000000025818, -0.6384336782735516 
3.330000000002603, -0.650964942123413 
3.340000000002624, -0.6672896970273455 
3.350000000002645, -0.6863844168365356 
3.360000000002666, -0.7059713989694312 
3.3700000000026873, -0.7233541971477468 
3.3800000000027084, -0.7367832027599814 
3.3900000000027295, -0.7460484125448784 
3.4000000000027506, -0.751954757008868 
3.4100000000027717, -0.7555335695789793 
3.420000000002793, -0.7576189078456217 
3.430000000002814, -0.7587672918627753 
3.440000000002835, -0.7593138054854366 
3.450000000002856, -0.7594430872257794 
3.460000000002877, -0.7592384397026717 
3.4700000000028983, -0.7587058188251297 
3.4800000000029194, -0.7577756215242702 
3.4900000000029405, -0.7562827274002796 
3.5000000000029616, -0.753922531085291 
3.5100000000029827, -0.7501854010674864 
3.520000000003004, -0.7443006713346937 
3.530000000003025, -0.7352964361275898 
3.540000000003046, -0.7223656264153233 
3.550000000003067, -0.7055872901466742 
3.5600000000030882, -0.6864736613746838 
3.5700000000031094, -0.6675238818860245 
3.5800000000031305, -0.6509762039702258 
3.5900000000031516, -0.6379440976273362 
3.6000000000031727, -0.6284616467602779 
3.6100000000031938, -0.6219725156651725 
3.620000000003215, -0.617755883485891 
3.630000000003236, -0.6151498459142266 
3.640000000003257, -0.6136277017706815 
3.650000000003278, -0.6128021707800175 
3.6600000000032993, -0.6124029336096891 
3.6700000000033204, -0.6122483910069444 
3.6800000000033415, -0.6122198666832868 
3.6900000000033626, -0.6122409876044697 
3.7000000000033837, -0.6122627991378577 
3.710000000003405, -0.6122543928082137 
3.720000000003426, -0.6121984732678111 
3.730000000003447, -0.6120906634011459 
3.740000000003468, -0.611940103572688 
3.750000000003489, -0.6117677882970824 
3.7600000000035103, -0.6115999324500326 
3.7700000000035314, -0.6114572309556309 
3.7800000000035525, -0.6113447865329571 
3.7900000000035736, -0.6112482877253279 
3.8000000000035947, -0.611138934609162 
3.810000000003616, -0.6109846202683993 
3.820000000003637, -0.6107612602181307 
3.830000000003658, -0.610458936418072 
3.840000000003679, -0.6100821413456732 
3.8500000000037002, -0.6096475463608774 
3.8600000000037213, -0.6091834972727866 
3.8700000000037424, -0.6087340486818003 
3.8800000000037635, -0.6083691287851805 
3.8900000000037847, -0.6082022124978217 
3.9000000000038058, -0.6084171551822917 
3.910000000003827, -0.609305577447763 
3.920000000003848, -0.6113137893381407 
3.930000000003869, -0.6150903126710564 
3.94000000000389, -0.6215045230919172 
3.9500000000039113, -0.6315642498293906 
3.9600000000039324, -0.6461044260550727 
3.9700000000039535, -0.665147604783739 
3.9800000000039746, -0.6871782173965816 
3.9900000000039957, -0.7091702774694768 
4.000000000004016, -0.7279685236150981 
4.010000000003993, -0.7419471001193181 
4.02000000000397, -0.7513028857536093 
4.030000000003946, -0.7571542947596941 
4.040000000003923, -0.7606687818922098 
4.0500000000039, -0.7627136637620352 
4.0600000000038765, -0.7638434879961278 
4.070000000003853, -0.7643851753109263 
4.08000000000383, -0.7645167511787893 
4.090000000003807, -0.7643170179633576 
4.100000000003783, -0.7637885341259529 
4.11000000000376, -0.7628584334063542 
4.120000000003737, -0.7613582683627589 
4.130000000003713, -0.7589823703977682 
4.14000000000369, -0.7552321037205744 
4.150000000003667, -0.7493864333708807 
4.1600000000036434, -0.7406082738901133 
4.17000000000362, -0.728334010581882 
4.180000000003597, -0.7128841775933528 
4.1900000000035735, -0.6957564116521519 
4.20000000000355, -0.6790742487164241 
4.210000000003527, -0.6645891285928398 
4.220000000003504, -0.6531241008490887 
4.23000000000348, -0.6446799847374954 
4.240000000003457, -0.6388109734161609 
4.250000000003434, -0.6349361309040995 
4.26000000000341, -0.6325073395518589 
4.270000000003387, -0.6310736966982613 
4.280000000003364, -0.6302923040035027 
4.2900000000033405, -0.6299162717285047 
4.300000000003317, -0.6297751922173751 
4.310000000003294, -0.6297551252046455 
4.320000000003271, -0.6297813182882475 
4.330000000003247, -0.6298050776244621 
4.340000000003224, -0.6297952888576075 
4.350000000003201, -0.6297344563989996 
4.360000000003177, -0.6296182110806112 
4.370000000003154, -0.6294557906924095 
4.380000000003131, -0.6292679193398618 
4.390000000003107, -0.6290796654810988 
4.400000000003084, -0.628909686844199 
4.410000000003061, -0.6287609791463632 
4.4200000000030375, -0.6286184350287665 
4.430000000003014, -0.6284548604817284 
4.440000000002991, -0.6282421154204149 
4.450000000002968, -0.6279612658422924 
4.460000000002944, -0.6276074035824832 
4.470000000002921, -0.6271894730519167 
4.480000000002898, -0.6267287683964914 
4.490000000002874, -0.6262598562116113 
4.500000000002851, -0.625836156840997 
4.510000000002828, -0.6255412272783175 
4.520000000002804, -0.6255063237911986 
4.530000000002781, -0.6259344506089757 
4.540000000002758, -0.6271299515368856 
4.5500000000027345, -0.6295295964467095 
4.560000000002711, -0.6337236976583818 
4.570000000002688, -0.6404396114331159 
4.580000000002665, -0.650431283187543 
4.590000000002641, -0.6641922668361601 
4.600000000002618, -0.681463274002472 
4.610000000002595, -0.700772358027469 
4.620000000002571, -0.7196056951469665 
4.630000000002548, -0.7355138156762889 
4.640000000002525, -0.7473033674605519 
4.6500000000025015, -0.7551969609301364 
4.660000000002478, -0.7601309233137898 
4.670000000002455, -0.7630774780759098 
4.6800000000024315, -0.7647635674057482 
4.690000000002408, -0.7656556604150667 
4.700000000002385, -0.7660268344956807 
4.710000000002362, -0.7660204890666209 
4.720000000002338, -0.7656898143276072 
4.730000000002315, -0.7650132962546226 
4.740000000002292, -0.7638884060266273 
4.750000000002268, -0.7621022429012829 
4.760000000002245, -0.7592760779871466 
4.770000000002222, -0.7547901936172952 
4.7800000000021985, -0.7477379910654434 
4.790000000002175, -0.7370552194927031 
4.800000000002152, -0.7220385637458667 
4.810000000002129, -0.7031859245363912 
4.820000000002105, -0.6825787439859283 
4.830000000002082, -0.6630347222543338 
4.840000000002059, -0.6466850172733409 
4.850000000002035, -0.6343090411240743 
4.860000000002012, -0.6256299485182938 
4.870000000001989, -0.6198997559285877 
4.880000000001965, -0.616311623383963 
4.890000000001942, -0.6141828657130382 
4.900000000001919, -0.6129988775686022 
4.9100000000018955, -0.6123974042960798 
4.920000000001872, -0.6121351133979831 
