t, s[1].omega / s[0].omega 
0, -1.580049740749819 
0.009999999999999995, -1.5840021107977418 
0.019999999999999934, -1.586310492185542 
0.029999999999999874, -1.5874881471756315 
0.04000000000000012, -1.5879155065641912 
0.050000000000000405, -1.5878457925274974 
0.06000000000000069, -1.587446221864067 
0.07000000000000098, -1.5868452558381603 
0.08000000000000126, -1.5861668794209693 
0.09000000000000155, -1.5855313206065582 
0.10000000000000184, -1.585031045216817 
0.11000000000000212, -1.5847183794607729 
0.12000000000000241, -1.5845941825791097 
0.130000000000002, -1.5845833890269074 
0.1400000000000009, -1.5845501463594815 
0.1499999999999998, -1.5843472184305336 
0.1599999999999987, -1.583825300159637 
0.1699999999999976, -1.5827846622639412 
0.1799999999999965, -1.5808947954446428 
0.1899999999999954, -1.5776005959360084 
0.1999999999999943, -1.572058493191306 
0.2099999999999932, -1.563281254625763 
0.2199999999999921, -1.5509521892176914 
0.229999999999991, -1.5372061007143212 
0.2399999999999899, -1.5271191659696834 
0.2499999999999888, -1.5240105103488522 
0.2599999999999877, -1.5255784494771412 
0.2699999999999866, -1.5280374036573372 
0.2799999999999855, -1.5297557436776832 
0.2899999999999844, -1.530614526004043 
0.2999999999999833, -1.5308492707392298 
0.3099999999999822, -1.5306416835302912 
0.3199999999999811, -1.5300790564015103 
0.32999999999998, -1.5292305433566658 
0.3399999999999789, -1.5283243915087756 
0.3499999999999778, -1.5279891293014134 
0.35999999999997667, -1.5291372384740303 
0.36999999999997557, -1.5321055672068704 
0.37999999999997447, -1.5361338387622543 
0.38999999999997337, -1.5401201007693202 
0.39999999999997227, -1.5434081079203676 
0.40999999999997117, -1.5458215766931898 
0.41999999999997006, -1.5474197077335727 
0.42999999999996896, -1.5483313573402187 
0.43999999999996786, -1.5486872991515033 
0.44999999999996676, -1.5485992715570351 
0.45999999999996566, -1.5481578288399864 
0.46999999999996456, -1.5474408132171733 
0.47999999999996346, -1.5465283927050366 
0.48999999999996235, -1.5455164393581644 
0.49999999999996125, -1.5445224554142978 
0.5099999999999602, -1.5436839123314132 
0.519999999999959, -1.543124036184102 
0.529999999999958, -1.5428658210628525 
0.5399999999999568, -1.5427882712940255 
0.5499999999999557, -1.5427023961994513 
0.5599999999999546, -1.5424363179235936 
0.5699999999999535, -1.5418266747423606 
0.5799999999999524, -1.540638153530101 
0.5899999999999513, -1.5384427386516297 
0.5999999999999502, -1.5344608233413706 
0.6099999999999491, -1.5274322872702037 
0.619999999999948, -1.5158978807923373 
0.6299999999999469, -1.4998240049102074 
0.6399999999999458, -1.4835348547671683 
0.6499999999999447, -1.4745386739500606 
0.6599999999999436, -1.4749433480256127 
0.6699999999999425, -1.4795946833101004 
0.6799999999999414, -1.483850888862194 
0.6899999999999403, -1.486481745238589 
0.6999999999999392, -1.4878034340358148 
0.7099999999999381, -1.488296571746642 
0.719999999999937, -1.488269430567822 
0.7299999999999359, -1.4878793070011855 
0.7399999999999348, -1.4872230383661849 
0.7499999999999337, -1.4864681257078165 
0.7599999999999326, -1.486016884919323 
0.7699999999999315, -1.4864994299257714 
0.7799999999999304, -1.4883157267585172 
0.7899999999999293, -1.491162618287394 
0.7999999999999282, -1.4942993226310204 
0.8099999999999271, -1.4971250391350197 
0.819999999999926, -1.4993675996240767 
0.8299999999999249, -1.500976070051684 
0.8399999999999238, -1.5019952494497408 
0.8499999999999227, -1.5024990538296408 
0.8599999999999216, -1.502563752819352 
0.8699999999999205, -1.502259030280667 
0.8799999999999194, -1.501648031826655 
0.8899999999999183, -1.5007946927040081 
0.8999999999999172, -1.499775546469896 
0.9099999999999161, -1.4986895854949498 
0.919999999999915, -1.497662531147329 
0.9299999999999139, -1.4968376740602856 
0.9399999999999128, -1.4963230405311525 
0.9499999999999117, -1.4961060676206066 
0.9599999999999106, -1.4960426574565115 
0.9699999999999095, -1.4959469444258517 
0.9799999999999084, -1.4956582837446744 
0.9899999999999073, -1.4950197639718592 
0.9999999999999062, -1.4938013149693288 
1.0099999999999052, -1.4915935538146048 
1.019999999999904, -1.4876774760685874 
1.029999999999903, -1.4809341380112304 
1.039999999999902, -1.4700851046535104 
1.0499999999999008, -1.4549128387973962 
1.0599999999998997, -1.4385187823692203 
1.0699999999998986, -1.4271916822330724 
1.0799999999998975, -1.4243564635547894 
1.0899999999998964, -1.4269619747274382 
1.0999999999998953, -1.4305255878752523 
1.1099999999998942, -1.4330880580729535 
1.119999999999893, -1.434508644457348 
1.129999999999892, -1.4351154611035797 
1.1399999999998909, -1.4351848069865238 
1.1499999999998898, -1.434866185006871 
1.1599999999998887, -1.4342268135094873 
1.1699999999998876, -1.433344307158518 
1.1799999999998865, -1.4324800091390189 
1.1899999999998854, -1.4322849606190762 
1.1999999999998843, -1.4336644496562596 
1.2099999999998832, -1.4370047854430485 
1.219999999999882, -1.4416423532093696 
1.229999999999881, -1.4464453499822922 
1.2399999999998799, -1.4506083274680985 
1.2499999999998788, -1.4538218962143536 
1.2599999999998777, -1.4560839607941567 
1.2699999999998766, -1.4575191983193672 
1.2799999999998755, -1.458284665404364 
1.2899999999998744, -1.4585291402898857 
1.2999999999998733, -1.458378248023564 
1.3099999999998722, -1.4579352985044127 
1.319999999999871, -1.4572936168323911 
1.32999999999987, -1.456551473559061 
1.3399999999998689, -1.4558148277929828 
1.3499999999998678, -1.4551827001638218 
1.3599999999998666, -1.4547292167675179 
1.3699999999998655, -1.4544864690400925 
1.3799999999998644, -1.4544209092750768 
1.3899999999998633, -1.4544307725681127 
1.3999999999998622, -1.4543841514165894 
1.4099999999998611, -1.4541542317360112 
1.41999999999986, -1.453613405707482 
1.429999999999859, -1.4525973620976351 
1.4399999999998578, -1.4508635309223445 
1.4499999999998567, -1.4480619393521623 
1.4599999999998556, -1.4437437783793794 
1.4699999999998545, -1.4374614257803648 
1.4799999999998534, -1.4290579709219424 
1.4899999999998523, -1.419215751628483 
1.4999999999998512, -1.4099096566175464 
1.5099999999998501, -1.4036355182169307 
1.519999999999849, -1.401287496644428 
1.529999999999848, -1.4015130160158837 
1.5399999999998468, -1.4025089907020427 
1.5499999999998457, -1.4033267829607963 
1.5599999999998446, -1.4037293608178394 
1.5699999999998435, -1.4037320825163668 
1.5799999999998424, -1.4033632051000362 
1.5899999999998413, -1.4025886305229456 
1.5999999999998402, -1.4013101918578639 
1.6099999999998391, -1.3994625161060745 
1.619999999999838, -1.3973687175991516 
1.629999999999837, -1.3964331093794844 
1.6399999999998358, -1.3992552975678845 
1.6499999999998347, -1.407459493310498 
1.6599999999998336, -1.419234018181596 
1.6699999999998325, -1.4309094769405817 
1.6799999999998314, -1.4400949401312322 
1.6899999999998303, -1.4463278604487908 
1.6999999999998292, -1.450140481229621 
1.709999999999828, -1.452261869335405 
1.719999999999827, -1.4532892440512915 
1.729999999999826, -1.4536284619019444 
1.7399999999998248, -1.4535333923035307 
1.7499999999998237, -1.453168329205272 
1.7599999999998226, -1.452667963508092 
1.7699999999998215, -1.4521771406997468 
1.7799999999998204, -1.451841889980439 
1.7899999999998193, -1.451751242102249 
1.7999999999998182, -1.4518973891168139 
1.809999999999817, -1.4522012668943014 
1.819999999999816, -1.4525579080680127 
1.8299999999998149, -1.4528609032243485 
1.8399999999998138, -1.4530143752733324 
1.8499999999998127, -1.4529369105314862 
1.8599999999998116, -1.4525548092692722 
1.8699999999998105, -1.4517918805263004 
1.8799999999998094, -1.4505646373148093 
1.8899999999998083, -1.4487857845631842 
1.8999999999998072, -1.4463771623028983 
1.909999999999806, -1.4433000355365635 
1.919999999999805, -1.439621982872239 
1.9299999999998039, -1.4356328695891478 
1.9399999999998028, -1.431934807189196 
1.9499999999998017, -1.4292663616978176 
1.9599999999998006, -1.4279765093899957 
1.9699999999997995, -1.4277336107876253 
1.9799999999997984, -1.4279134517797922 
1.9899999999997973, -1.4280699379188457 
1.9999999999997962, -1.428002855157802 
2.0099999999998173, -1.4276166944208828 
2.0199999999998384, -1.4267895651326021 
2.0299999999998595, -1.4252771480800406 
2.0399999999998806, -1.4226324835083943 
2.0499999999999017, -1.4182321224962129 
2.059999999999923, -1.411825578111673 
2.069999999999944, -1.4052585378064892 
2.079999999999965, -1.4039537678365055 
2.089999999999986, -1.4126904816381378 
2.100000000000007, -1.428402837396513 
2.1100000000000283, -1.4435274318190143 
2.1200000000000494, -1.4540747127737468 
2.1300000000000705, -1.4602307144038271 
2.1400000000000916, -1.463464902880001 
2.1500000000001127, -1.4650041320083609 
2.160000000000134, -1.4655925703799604 
2.170000000000155, -1.4656311255885344 
2.180000000000176, -1.4653350321423375 
2.190000000000197, -1.4648534709513554 
2.2000000000002182, -1.4643620062494622 
2.2100000000002393, -1.4641001344708977 
2.2200000000002604, -1.464285139260456 
2.2300000000002815, -1.4649524866369112 
2.2400000000003026, -1.465931665860349 
2.2500000000003237, -1.4669871432706971 
2.260000000000345, -1.4679356588284749 
2.270000000000366, -1.468666139301798 
2.280000000000387, -1.469118114213999 
2.290000000000408, -1.4692595146793406 
2.3000000000004293, -1.4690717022038466 
2.3100000000004504, -1.4685414346904069 
2.3200000000004715, -1.4676585139074128 
2.3300000000004926, -1.4664184579358177 
2.3400000000005137, -1.4648318506241025 
2.3500000000005348, -1.4629446119078449 
2.360000000000556, -1.4608738468008622 
2.370000000000577, -1.4588495667291679 
2.380000000000598, -1.4571993865232578 
2.390000000000619, -1.4561856456661508 
2.4000000000006403, -1.4557920065908778 
2.4100000000006614, -1.4557441050178872 
2.4200000000006825, -1.4557375842404605 
2.4300000000007036, -1.4555691154752777 
2.4400000000007247, -1.4550984161752016 
2.450000000000746, -1.4541476475651103 
2.460000000000767, -1.4523849725887967 
2.470000000000788, -1.4491771488457563 
2.480000000000809, -1.443445858145965 
2.49000000000083, -1.4338508541159332 
2.5000000000008513, -1.4202214782571203 
2.5100000000008724, -1.4065282820172678 
2.5200000000008935, -1.40050301585369 
2.5300000000009146, -1.4050840311559119 
2.5400000000009357, -1.414601941155133 
2.550000000000957, -1.4229140502549789 
2.560000000000978, -1.4282015494534834 
2.570000000000999, -1.4310669447849191 
2.58000000000102, -1.4324378918001845 
2.5900000000010412, -1.4329458564219122 
2.6000000000010624, -1.432935917856939 
2.6100000000010835, -1.4325839067137083 
2.6200000000011046, -1.4320054216938252 
2.6300000000011257, -1.4313700787548571 
2.6400000000011468, -1.431010618503514 
2.650000000001168, -1.4313870643010578 
2.660000000001189, -1.432774278035153 
2.67000000000121, -1.434975953622073 
2.680000000001231, -1.4374853782648154 
2.6900000000012523, -1.4398485020977287 
2.7000000000012734, -1.4418158672371733 
2.7100000000012945, -1.4432997760621844 
2.7200000000013156, -1.4442973092919342 
2.7300000000013367, -1.4448416396437276 
2.740000000001358, -1.4449791077935092 
2.750000000001379, -1.4447596637531837 
2.7600000000014, -1.4442340044534943 
2.770000000001421, -1.4434562192450884 
2.780000000001442, -1.4424915139201553 
2.7900000000014633, -1.4414248450063503 
2.8000000000014844, -1.4403647614609016 
2.8100000000015055, -1.4394390109755772 
2.8200000000015266, -1.4387684945198773 
2.8300000000015477, -1.4384046227837064 
2.840000000001569, -1.438277812516201 
2.85000000000159, -1.4382314038661501 
2.860000000001611, -1.4381016307197472 
2.870000000001632, -1.4377478688932994 
2.8800000000016532, -1.4370179717764178 
2.8900000000016743, -1.435682346563223 
2.9000000000016954, -1.4333556636926401 
2.9100000000017165, -1.4294215823419338 
2.9200000000017377, -1.4230251128688798 
2.9300000000017588, -1.4133162593277184 
2.94000000000178, -1.4002438164125677 
2.950000000001801, -1.3858236551455427 
2.960000000001822, -1.3742337050683369 
2.970000000001843, -1.3686947713318842 
2.9800000000018643, -1.36837401489509 
2.9900000000018854, -1.370189099902978 
3.0000000000019065, -1.3720114054849937 
3.0100000000019276, -1.373189544100971 
3.0200000000019487, -1.3737456844484066 
3.03000000000197, -1.3738260701414122 
3.040000000001991, -1.373524058253728 
3.050000000002012, -1.3728568972236312 
3.060000000002033, -1.3717993353824771 
3.070000000002054, -1.3704005674290762 
3.0800000000020753, -1.3690801577408176 
3.0900000000020964, -1.3690311212005941 
3.1000000000021175, -1.3719965708674773 
3.1100000000021386, -1.3787287241562882 
3.1200000000021597, -1.3878296780455002 
3.130000000002181, -1.39692895464802 
3.140000000002202, -1.4044174095707178 
3.150000000002223, -1.4098258317124432 
3.160000000002244, -1.4133646929628856 
3.1700000000022652, -1.415470559505834 
3.1800000000022863, -1.416568662661334 
3.1900000000023074, -1.416988859864898 
3.2000000000023285, -1.4169599395562908 
3.2100000000023496, -1.416638286450837 
3.2200000000023707, -1.4161482700153638 
3.230000000002392, -1.4156170598921634 
3.240000000002413, -1.4151796004636248 
3.250000000002434, -1.414940922364194 
3.260000000002455, -1.4149325848444567 
3.2700000000024763, -1.4151131209755197 
3.2800000000024974, -1.415399245171904 
3.2900000000025185, -1.4156909587109985 
3.3000000000025396, -1.4158884431654726 
3.3100000000025607, -1.4159035473910884 
3.3200000000025818, -1.4156595218226342 
3.330000000002603, -1.4150823522630598 
3.340000000002624, -1.4140940587478825 
3.350000000002645, -1.4126135430028723 
3.360000000002666, -1.410565231216221 
3.3700000000026873, -1.4078972221990722 
3.3800000000027084, -1.4046187093849178 
3.3900000000027295, -1.400872462893831 
3.4000000000027506, -1.3970329499888148 
3.4100000000027717, -1.3937191343364637 
3.420000000002793, -1.3915266716060155 
3.430000000002814, -1.390580149015267 
3.440000000002835, -1.3904618197749457 
3.450000000002856, -1.390625054777887 
3.460000000002877, -1.3907179048552794 
3.4700000000028983, -1.3905799838603983 
3.4800000000029194, -1.3901149469592924 
3.4900000000029405, -1.389179139998809 
3.5000000000029616, -1.3874872800835796 
3.5100000000029827, -1.3845143447271768 
3.520000000003004, -1.379467353543589 
3.530000000003025, -1.3716963048752564 
3.540000000003046, -1.3622510659152653 
3.550000000003067, -1.3558977574356736 
3.5600000000030882, -1.3586965180575912 
3.5700000000031094, -1.3704073212800851 
3.5800000000031305, -1.38426218534658 
3.5900000000031516, -1.3949499986564575 
3.6000000000031727, -1.4015344183344154 
3.6100000000031938, -1.4051121927934438 
3.620000000003215, -1.4068776362312083 
3.630000000003236, -1.407612966612733 
3.640000000003257, -1.4077493575258961 
3.650000000003278, -1.4075106001240134 
3.6600000000032993, -1.4070299748819208 
3.6700000000033204, -1.4064519559956115 
3.6800000000033415, -1.4060237341078756 
3.6900000000033626, -1.406098640356532 
3.7000000000033837, -1.4069472370798195 
3.710000000003405, -1.4085195713414795 
3.720000000003426, -1.4104778580775248 
3.730000000003447, -1.4124467267444945 
3.740000000003468, -1.414175500738835 
3.750000000003489, -1.4155440323828703 
3.7600000000035103, -1.4165135245609795 
3.7700000000035314, -1.417086160695443 
3.7800000000035525, -1.4172830225001825 
3.7900000000035736, -1.4171339997429822 
3.8000000000035947, -1.4166740118334236 
3.810000000003616, -1.4159434607362538 
3.820000000003637, -1.4149931173327754 
3.830000000003658, -1.4138922689090163 
3.840000000003679, -1.4127358499085827 
3.8500000000037002, -1.4116460693392183 
3.8600000000037213, -1.4107597487371801 
3.8700000000037424, -1.4101812712540203 
3.8800000000037635, -1.409911979203281 
3.8900000000037847, -1.4098334815789826 
3.9000000000038058, -1.4097760214026887 
3.910000000003827, -1.4095867205141075 
3.920000000003848, -1.4091312942910021 
3.930000000003869, -1.4082461405009048 
3.94000000000389, -1.4066718993482927 
3.9500000000039113, -1.4039815238027566 
3.9600000000039324, -1.3995262750339257 
3.9700000000039535, -1.3924824671552778 
3.9800000000039746, -1.3821859347697512 
3.9900000000039957, -1.3689657277760052 
4.000000000004016, -1.3551585118976115 
4.010000000003993, -1.3446541528619336 
4.02000000000397, -1.339865955803099 
4.030000000003946, -1.3396291986126365 
4.040000000003923, -1.341192556010161 
4.0500000000039, -1.3427592169741824 
4.0600000000038765, -1.3437725993119576 
4.070000000003853, -1.3442367267242061 
4.08000000000383, -1.3442636412023992 
4.090000000003807, -1.343920151486486 
4.100000000003783, -1.3432004292176398 
4.11000000000376, -1.3420469096875292 
4.120000000003737, -1.3404484656654005 
4.130000000003713, -1.3387311746735975 
4.14000000000369, -1.3380684100974152 
4.150000000003667, -1.3405622825199148 
4.1600000000036434, -1.3477286118887049 
4.17000000000362, -1.3585095887792273 
4.180000000003597, -1.3699426867832687 
4.1900000000035735, -1.3795882946263571 
4.20000000000355, -1.3865694617429178 
4.210000000003527, -1.3910996099893733 
4.220000000003504, -1.3937810168257063 
4.23000000000348, -1.395205140428637 
4.240000000003457, -1.3958166055455847 
4.250000000003434, -1.3959093974118733 
4.26000000000341, -1.3956707224806084 
4.270000000003387, -1.3952355130609453 
4.280000000003364, -1.3947358569650217 
4.2900000000033405, -1.3943236704523234 
4.300000000003317, -1.3941392520979636 
4.310000000003294, -1.3942443709906815 
4.320000000003271, -1.3945962481666427 
4.330000000003247, -1.3950886627141654 
4.340000000003224, -1.3956033287441947 
4.350000000003201, -1.3960351580637773 
4.360000000003177, -1.3963000521353726 
4.370000000003154, -1.396334021575633 
4.380000000003131, -1.3960868574418484 
4.390000000003107, -1.395515908338925 
4.400000000003084, -1.3945838542517077 
4.410000000003061, -1.3932606350697605 
4.4200000000030375, -1.3915295478034577 
4.430000000003014, -1.3894007303104745 
4.440000000002991, -1.3869383673116051 
4.450000000002968, -1.3843047767422352 
4.460000000002944, -1.3817985246939695 
4.470000000002921, -1.3798064879070178 
4.480000000002898, -1.3786005095755942 
4.490000000002874, -1.3781294027415232 
4.500000000002851, -1.3780779709433315 
4.510000000002828, -1.3781140441522672 
4.520000000002804, -1.378023008771354 
4.530000000002781, -1.3776747428496052 
4.540000000002758, -1.376932839445005 
4.5500000000027345, -1.3755590330759135 
4.560000000002711, -1.3731001137620131 
4.570000000002688, -1.368749913546095 
4.580000000002665, -1.3612954988118886 
4.590000000002641, -1.3495863011468856 
4.600000000002618, -1.3342495613721281 
4.610000000002595, -1.3198493323965026 
4.620000000002571, -1.3128961605636882 
4.630000000002548, -1.3149982751155154 
4.640000000002525, -1.321561459400631 
4.6500000000025015, -1.3278288532649907 
4.660000000002478, -1.3320914876384684 
4.670000000002455, -1.3345342643392688 
4.6800000000024315, -1.3357579036133362 
4.690000000002408, -1.336228763650014 
4.700000000002385, -1.3362173281822443 
4.710000000002362, -1.3358565699182843 
4.720000000002338, -1.3352118360731664 
4.730000000002315, -1.3343700172181698 
4.740000000002292, -1.3335846649733167 
4.750000000002268, -1.3334365262507146 
4.760000000002245, -1.334746190750155 
4.770000000002222, -1.3380009965245419 
4.7800000000021985, -1.3428163760627574 
4.790000000002175, -1.3481957843045906 
4.800000000002152, -1.35321584305728 
4.810000000002129, -1.3573647426550892 
4.820000000002105, -1.3604906230769966 
4.830000000002082, -1.362648230693599 
4.840000000002059, -1.363984387693905 
4.850000000002035, -1.3646709001708803 
4.860000000002012, -1.3648676289528054 
4.870000000001989, -1.3647072128322724 
4.880000000001965, -1.3642980716105395 
4.890000000001942, -1.363739986606755 
4.900000000001919, -1.3631397931573899 
4.9100000000018955, -1.3626091657951127 
4.920000000001872, -1.362238353524869 
4.930000000001849, -1.3620685530560726 
