t, s[1].omega / s[0].omega 
0, -1.3899971589693818 
0.009999999999999995, -1.3894970604283647 
0.019999999999999934, -1.388569799824548 
0.029999999999999874, -1.3872185896297535 
0.04000000000000012, -1.3854541083901886 
0.050000000000000405, -1.3833014649097375 
0.06000000000000069, -1.3808102363888088 
0.07000000000000098, -1.3780772550310696 
0.08000000000000126, -1.3752957516474196 
0.09000000000000155, -1.3727986338493408 
0.10000000000000184, -1.3709764301721723 
0.11000000000000212, -1.3700217781480317 
0.12000000000000241, -1.3697552646779176 
0.130000000000002, -1.3697728825577624 
0.1400000000000009, -1.3696970503943593 
0.1499999999999998, -1.3692442652451895 
0.1599999999999987, -1.3681227812362042 
0.1699999999999976, -1.3658559419236393 
0.1799999999999965, -1.3615305914849762 
0.1899999999999954, -1.3534078503159264 
0.1999999999999943, -1.3383825216089393 
0.2099999999999932, -1.3115570739766254 
0.2199999999999921, -1.2668824850087104 
0.229999999999991, -1.2005507116389604 
0.2399999999999899, -1.1172026372427162 
0.2499999999999888, -1.032478553516694 
0.2599999999999877, -0.9641104644650358 
0.2699999999999866, -0.919898619353515 
0.2799999999999855, -0.8966527627040722 
0.2899999999999844, -0.8868966598029391 
0.2999999999999833, -0.8840936233617172 
0.3099999999999822, -0.8841749551790232 
0.3199999999999811, -0.8851015716081928 
0.32999999999998, -0.8860219751648751 
0.3399999999999789, -0.8866434145319844 
0.3499999999999778, -0.8868828429694057 
0.35999999999997667, -0.8866994341269119 
0.36999999999997557, -0.8860135323871422 
0.37999999999997447, -0.8846544246646525 
0.38999999999997337, -0.8823106115493276 
0.39999999999997227, -0.878485113878181 
0.40999999999997117, -0.872499991773876 
0.41999999999997006, -0.8636414038502801 
0.42999999999996896, -0.8515070490425386 
0.43999999999996786, -0.8364042241311096 
0.44999999999996676, -0.8194228988251574 
0.45999999999996566, -0.8020241473674317 
0.46999999999996456, -0.7854901979514992 
0.47999999999996346, -0.770643872603949 
0.48999999999996235, -0.7578740738174061 
0.49999999999996125, -0.747281500847502 
0.5099999999999602, -0.7388046462227156 
0.519999999999959, -0.7322896029630626 
0.529999999999958, -0.7275198748099992 
0.5399999999999568, -0.7242318211567034 
0.5499999999999557, -0.7221328366930685 
0.5599999999999546, -0.7209265864800272 
0.5699999999999535, -0.7203397547198618 
0.5799999999999524, -0.7201418291296471 
0.5899999999999513, -0.7201530347051583 
0.5999999999999502, -0.7202414396976424 
0.6099999999999491, -0.7203142737567145 
0.619999999999948, -0.7203092291505148 
0.6299999999999469, -0.7201897237990469 
0.6399999999999458, -0.7199447309760676 
0.6499999999999447, -0.7195897034824299 
0.6599999999999436, -0.7191626555358658 
0.6699999999999425, -0.7187118123462937 
0.6799999999999414, -0.7182778747519603 
0.6899999999999403, -0.7178789865254036 
0.6999999999999392, -0.7175054898581553 
0.7099999999999381, -0.7171264018604244 
0.719999999999937, -0.716704096733936 
0.7299999999999359, -0.7162102551931141 
0.7399999999999348, -0.715636749967119 
0.7499999999999337, -0.7149998130448062 
0.7599999999999326, -0.7143406181966362 
0.7699999999999315, -0.7137264199264427 
0.7799999999999304, -0.7132539062645551 
0.7899999999999293, -0.7130531507861235 
0.7999999999999282, -0.7132885330485512 
0.8099999999999271, -0.7141531798545805 
0.819999999999926, -0.715856084350359 
0.8299999999999249, -0.7186050542276196 
0.8399999999999238, -0.7225914570808646 
0.8499999999999227, -0.7279817462081948 
0.8599999999999216, -0.7349154371496518 
0.8699999999999205, -0.7435013661338927 
0.8799999999999194, -0.7537961682119243 
0.8899999999999183, -0.7657443063109368 
0.8999999999999172, -0.7790673279694528 
0.9099999999999161, -0.7931325650577502 
0.919999999999915, -0.8069166214216404 
0.9299999999999139, -0.8192203621341242 
0.9399999999999128, -0.8291160021921131 
0.9499999999999117, -0.8363005029184408 
0.9599999999999106, -0.8410614983421787 
0.9699999999999095, -0.8439652139273309 
0.9799999999999084, -0.8455678765323855 
0.9899999999999073, -0.8462855197637584 
0.9999999999999062, -0.8463811716803042 
1.0099999999999052, -0.8459966189489772 
1.019999999999904, -0.8451908269024839 
1.029999999999903, -0.8439812646768228 
1.039999999999902, -0.8424099576492207 
1.0499999999999008, -0.8406874380339041 
1.0599999999998997, -0.839517834184552 
1.0699999999998986, -0.840767535978361 
1.0799999999998975, -0.8486228277566272 
1.0899999999998964, -0.8710157381913017 
1.0999999999998953, -0.9197814945768533 
1.1099999999998942, -1.0053875679153628 
1.119999999999893, -1.1229403854523436 
1.129999999999892, -1.2438166859819013 
1.1399999999998909, -1.3371424175355708 
1.1499999999998898, -1.3949210112003596 
1.1599999999998887, -1.4261857823718884 
1.1699999999998876, -1.4419672191511568 
1.1799999999998865, -1.449650346520441 
1.1899999999998854, -1.453252445918158 
1.1999999999998843, -1.4547757173206513 
1.2099999999998832, -1.4551868400675545 
1.219999999999882, -1.4549686506859336 
1.229999999999881, -1.4544308631924197 
1.2399999999998799, -1.4539025518789614 
1.2499999999998788, -1.4537860299394494 
1.2599999999998777, -1.4543834159667044 
1.2699999999998766, -1.4556584578094125 
1.2799999999998755, -1.4572914938060413 
1.2899999999998744, -1.4589521772112228 
1.2999999999998733, -1.4604377992220388 
1.3099999999998722, -1.461639621704796 
1.319999999999871, -1.4624869576018504 
1.32999999999987, -1.4629263511550932 
1.3399999999998689, -1.4629162085434622 
1.3499999999998678, -1.4624217347678032 
1.3599999999998666, -1.4614096675177937 
1.3699999999998655, -1.459843660125179 
1.3799999999998644, -1.4576806850189263 
1.3899999999998633, -1.4548705825299553 
1.3999999999998622, -1.4513643020937121 
1.4099999999998611, -1.4471474303526481 
1.41999999999986, -1.4423374634902761 
1.429999999999859, -1.4373649799901498 
1.4399999999998578, -1.4330710694423723 
1.4499999999998567, -1.4303245985217585 
1.4599999999998556, -1.4292773937955023 
1.4699999999998545, -1.4292681799593323 
1.4799999999998534, -1.4295024878589735 
1.4899999999998523, -1.4294860974346695 
1.4999999999998512, -1.428934040846314 
1.5099999999998501, -1.4275061338616668 
1.519999999999849, -1.4244859378520136 
1.529999999999848, -1.418213001177822 
1.5399999999998468, -1.4048220117920407 
1.5499999999998457, -1.3756012671888442 
1.5599999999998446, -1.3133437806151553 
1.5699999999998435, -1.1951546513816274 
1.5799999999998424, -1.0166458751650587 
1.5899999999998413, -0.8141159320385462 
1.5999999999998402, -0.6370645960414582 
1.6099999999998391, -0.5122809887356203 
1.619999999999838, -0.437319983231156 
1.629999999999837, -0.3960530755887334 
1.6399999999998358, -0.3739738984828397 
1.6499999999998347, -0.3621341404568943 
1.6599999999998336, -0.35570954950584566 
1.6699999999998325, -0.35219186726356116 
1.6799999999998314, -0.3502706924729804 
1.6899999999998303, -0.3492477282346977 
1.6999999999998292, -0.34874245533504417 
1.709999999999828, -0.3485440387623963 
1.719999999999827, -0.34853585082719435 
1.729999999999826, -0.3486569310077405 
1.7399999999998248, -0.34888312353898243 
1.7499999999998237, -0.34921926036574646 
1.7599999999998226, -0.3496975170261499 
1.7699999999998215, -0.3503784552166631 
1.7799999999998204, -0.3513517922949811 
1.7899999999998193, -0.3527342819303341 
1.7999999999998182, -0.354661446733992 
1.809999999999817, -0.3572666295267687 
1.819999999999816, -0.36063650010784 
1.8299999999998149, -0.3647375679016733 
1.8399999999998138, -0.36934050649446404 
1.8499999999998127, -0.3740173524998486 
1.8599999999998116, -0.3782721117262365 
1.8699999999998105, -0.38173806739048866 
1.8799999999998094, -0.38428468638926944 
1.8899999999998083, -0.38597500607939933 
1.8999999999998072, -0.3869549068667477 
1.909999999999806, -0.3873639625376118 
1.919999999999805, -0.38729073266915715 
1.9299999999998039, -0.3867546302594695 
1.9399999999998028, -0.3856923489706414 
1.9499999999998017, -0.38393474837763014 
1.9599999999998006, -0.38116995098841416 
1.9699999999997995, -0.3769084199297499 
1.9799999999997984, -0.37051437898716444 
1.9899999999997973, -0.36143522827677704 
1.9999999999997962, -0.3497008647725917 
2.0099999999998173, -0.33635843345587335 
2.0199999999998384, -0.3231778086750039 
2.0299999999998595, -0.31169172240867465 
2.0399999999998806, -0.3025572850606318 
2.0499999999999017, -0.2956765237237842 
2.059999999999923, -0.29061709104807876 
2.069999999999944, -0.2869108382515102 
2.079999999999965, -0.28417184848674376 
2.089999999999986, -0.2821155591688088 
2.100000000000007, -0.2805445087592611 
2.1100000000000283, -0.2793293205110112 
2.1200000000000494, -0.2783935333413277 
2.1300000000000705, -0.2777041239079391 
2.1400000000000916, -0.2772684785023343 
2.1500000000001127, -0.2771394245339553 
2.160000000000134, -0.27743197398038516 
2.170000000000155, -0.2783595730319776 
2.180000000000176, -0.28030628553717707 
2.190000000000197, -0.28396962885105304 
2.2000000000002182, -0.2906474860380698 
2.2100000000002393, -0.3028200118347113 
2.2200000000002604, -0.3252988829497928 
2.2300000000002815, -0.36720602434728283 
2.2400000000003026, -0.44384565300439666 
2.2500000000003237, -0.5726930947824471 
2.260000000000345, -0.7547986762282615 
2.270000000000366, -0.9572077909498357 
2.280000000000387, -1.1297772917494036 
2.290000000000408, -1.243067114871523 
2.3000000000004293, -1.3036476057444246 
2.3100000000004504, -1.3326049200324341 
2.3200000000004715, -1.3459294064928953 
2.3300000000004926, -1.3520165563527542 
2.3400000000005137, -1.3547227487055526 
2.3500000000005348, -1.355750874231809 
2.360000000000556, -1.3558459462155232 
2.370000000000577, -1.3553416972676149 
2.380000000000598, -1.354456739938496 
2.390000000000619, -1.3535617477628676 
2.4000000000006403, -1.353448459409072 
2.4100000000006614, -1.3552584692929677 
2.4200000000006825, -1.3596742534201034 
2.4300000000007036, -1.3661362379608697 
2.4400000000007247, -1.3732954382640028 
2.450000000000746, -1.3800274830463535 
2.460000000000767, -1.3858032295980955 
2.470000000000788, -1.390504107161189 
2.480000000000809, -1.3941809826536375 
2.49000000000083, -1.396927190137964 
2.5000000000008513, -1.3988371466573928 
2.5100000000008724, -1.4000022772955392 
2.5200000000008935, -1.4005161881383243 
2.5300000000009146, -1.4004767553653814 
2.5400000000009357, -1.39998490249257 
2.550000000000957, -1.39914608816615 
2.560000000000978, -1.3980750295868332 
2.570000000000999, -1.3968929704761528 
2.58000000000102, -1.3957127331436303 
2.5900000000010412, -1.3946341345026698 
2.6000000000010624, -1.3937632852612971 
2.6100000000010835, -1.3932048426747428 
2.6200000000011046, -1.3929851788511325 
2.6300000000011257, -1.3929885150372243 
2.6400000000011468, -1.3929998284341327 
2.650000000001168, -1.3927899073713752 
2.660000000001189, -1.3921347949701677 
2.67000000000121, -1.3907641369300012 
2.680000000001231, -1.3882852289906353 
2.6900000000012523, -1.3841187841959488 
2.7000000000012734, -1.3774742447427215 
2.7100000000012945, -1.3673886701956095 
2.7200000000013156, -1.352841776522812 
2.7300000000013367, -1.3329865165833688 
2.740000000001358, -1.3076564980858116 
2.750000000001379, -1.2783571610717523 
2.7600000000014, -1.2492777247451763 
2.770000000001421, -1.2263449230368804 
2.780000000001442, -1.2132551694566829 
2.7900000000014633, -1.208709118095797 
2.8000000000014844, -1.2086900370215359 
2.8100000000015055, -1.2099962694639879 
2.8200000000015266, -1.2111733480365632 
2.8300000000015477, -1.2118132230967675 
2.840000000001569, -1.2118554277279634 
2.85000000000159, -1.2112410702938539 
2.860000000001611, -1.2097414870307666 
2.870000000001632, -1.2067732806257576 
2.8800000000016532, -1.2010333475593156 
2.8900000000016743, -1.1897242281507523 
2.9000000000016954, -1.1670773653066873 
2.9100000000017165, -1.122336446712072 
2.9200000000017377, -1.0396031688540457 
2.9300000000017588, -0.9048290310371024 
2.94000000000178, -0.7201961984707648 
2.950000000001801, -0.5179472555875858 
2.960000000001822, -0.35166988089172946 
2.970000000001843, -0.24706851885487313 
2.9800000000018643, -0.1902968788320595 
2.9900000000018854, -0.16046020911665237 
3.0000000000019065, -0.14435431895518333 
3.0100000000019276, -0.13526322619993741 
3.0200000000019487, -0.12990692346587754 
3.03000000000197, -0.12665215895393225 
3.040000000001991, -0.12465788195008894 
3.050000000002012, -0.1234807640519342 
3.060000000002033, -0.12289112523274172 
3.070000000002054, -0.12278696322229374 
3.0800000000020753, -0.12315758949016259 
3.0900000000020964, -0.12407750483544677 
3.1000000000021175, -0.12572654613474446 
3.1100000000021386, -0.12844458837124337 
3.1200000000021597, -0.13284571439935955 
3.130000000002181, -0.1400464300131007 
3.140000000002202, -0.15211323127406867 
3.150000000002223, -0.17287730692966147 
3.160000000002244, -0.2090227231113569 
3.1700000000022652, -0.26967679578077447 
3.1800000000022863, -0.35869992701263 
3.1900000000023074, -0.45981970713253806 
3.2000000000023285, -0.543480519839643 
3.2100000000023496, -0.5969069194955092 
3.2200000000023707, -0.6266401696550368 
3.230000000002392, -0.6425843170245031 
3.240000000002413, -0.6512525427022873 
3.250000000002434, -0.6560887476190026 
3.260000000002455, -0.6588221980704732 
3.2700000000024763, -0.6603259488327734 
3.2800000000024974, -0.6610431936774767 
3.2900000000025185, -0.6611855615343911 
3.3000000000025396, -0.6608206661120125 
3.3100000000025607, -0.6599029713647225 
3.3200000000025818, -0.6582724356257197 
3.330000000002603, -0.6556379447365174 
3.340000000002624, -0.6515750760468522 
3.350000000002645, -0.6455981457414613 
3.360000000002666, -0.6373766763492594 
3.3700000000026873, -0.6270577708987511 
3.3800000000027084, -0.6154283788878279 
3.3900000000027295, -0.6036519874385468 
3.4000000000027506, -0.5927536541166223 
3.4100000000027717, -0.5833001467790221 
3.420000000002793, -0.5754222305563006 
3.430000000002814, -0.5689969704177701 
3.440000000002835, -0.5638103907892255 
3.450000000002856, -0.5596483251768856 
3.460000000002877, -0.5563320020564926 
3.4700000000028983, -0.5537244605088173 
3.4800000000029194, -0.5517250098404543 
3.4900000000029405, -0.5502604815633508 
3.5000000000029616, -0.5492771232788157 
3.5100000000029827, -0.5487345861460048 
3.520000000003004, -0.54860237890269 
3.530000000003025, -0.5488587098240244 
3.540000000003046, -0.5494914700431611 
3.550000000003067, -0.5505010608169837 
3.5600000000030882, -0.5519047120514636 
3.5700000000031094, -0.5537417124921098 
3.5800000000031305, -0.5560783301847091 
3.5900000000031516, -0.5590098456587509 
3.6000000000031727, -0.562654710901751 
3.6100000000031938, -0.5671322363786732 
3.620000000003215, -0.5725121334995004 
3.630000000003236, -0.5787300305603498 
3.640000000003257, -0.5854943754234984 
3.650000000003278, -0.5922658701093935 
3.6600000000032993, -0.5983972183221326 
3.6700000000033204, -0.603387793185809 
3.6800000000033415, -0.6070559277652048 
3.6900000000033626, -0.6095063893824059 
3.7000000000033837, -0.6109776462387355 
3.710000000003405, -0.6117080339201495 
3.720000000003426, -0.61187081332768 
3.730000000003447, -0.6115567127079761 
3.740000000003468, -0.6107706085035167 
3.750000000003489, -0.6094189834623805 
3.7600000000035103, -0.607269181150469 
3.7700000000035314, -0.6038508599530024 
3.7800000000035525, -0.5982353752887966 
3.7900000000035736, -0.5885539683281233 
3.8000000000035947, -0.5710231482138735 
3.810000000003616, -0.5385118679202472 
3.820000000003637, -0.48093666400701623 
3.830000000003658, -0.39459009220601754 
3.840000000003679, -0.2975730432200726 
3.8500000000037002, -0.21840112786450686 
3.8600000000037213, -0.16706821841899214 
3.8700000000037424, -0.13701890517898796 
3.8800000000037635, -0.11967258514816935 
3.8900000000037847, -0.10938968854667855 
3.9000000000038058, -0.10305238018467215 
3.910000000003827, -0.09899659769951596 
3.920000000003848, -0.09632444337641625 
3.930000000003869, -0.09454249267090975 
3.94000000000389, -0.09338048478294639 
3.9500000000039113, -0.09270208882090208 
3.9600000000039324, -0.09246448559005895 
3.9700000000039535, -0.09270850215589944 
3.9800000000039746, -0.09357596402288416 
3.9900000000039957, -0.09536444395827874 
4.000000000004016, -0.09865066743095909 
4.010000000003993, -0.10455756508370784 
4.02000000000397, -0.11533476665223387 
4.030000000003946, -0.1355922498398485 
4.040000000003923, -0.17453479880551392 
4.0500000000039, -0.24744159996202048 
4.0600000000038765, -0.36509824736042606 
4.070000000003853, -0.5001634932600206 
4.08000000000383, -0.59014073229139 
4.090000000003807, -0.6119672850815338 
4.100000000003783, -0.5961253973693565 
4.11000000000376, -0.575560839658209 
4.120000000003737, -0.5623704513315054 
4.130000000003713, -0.5562047897107941 
4.14000000000369, -0.5541272226332892 
4.150000000003667, -0.5539528053884422 
4.1600000000036434, -0.554495994938823 
4.17000000000362, -0.5551985081418827 
4.180000000003597, -0.555822515306286 
4.1900000000035735, -0.5562762224330439 
4.20000000000355, -0.5565260165866593 
4.210000000003527, -0.556554532568976 
4.220000000003504, -0.556341856719997 
4.23000000000348, -0.5558597518979306 
4.240000000003457, -0.5550762209421456 
4.250000000003434, -0.553970591380183 
4.26000000000341, -0.552556251141858 
4.270000000003387, -0.5508994944070467 
4.280000000003364, -0.5491174336577519 
4.2900000000033405, -0.5473485464849853 
4.300000000003317, -0.5457114541814339 
4.310000000003294, -0.5442762306740696 
4.320000000003271, -0.5430589840286888 
4.330000000003247, -0.5420338919936215 
4.340000000003224, -0.5411523453365581 
4.350000000003201, -0.5403619870777914 
4.360000000003177, -0.5396215116636657 
4.370000000003154, -0.5389093192327112 
4.380000000003131, -0.5382269125661842 
4.390000000003107, -0.5376003138204505 
4.400000000003084, -0.5370833301524517 
4.410000000003061, -0.5367656500598619 
4.4200000000030375, -0.5367879149843866 
4.430000000003014, -0.5373659174064451 
4.440000000002991, -0.5388270225850624 
4.450000000002968, -0.5416636168555796 
4.460000000002944, -0.5466103634101674 
4.470000000002921, -0.5547522887569118 
4.480000000002898, -0.5676620661237713 
4.490000000002874, -0.5875264235304901 
4.500000000002851, -0.6171062986560775 
4.510000000002828, -0.6591308189587692 
4.520000000002804, -0.7145125504347857 
4.530000000002781, -0.7795131793105116 
4.540000000002758, -0.8446716215087768 
4.5500000000027345, -0.8992035601922371 
4.560000000002711, -0.9377260619793565 
4.570000000002688, -0.9616162520708256 
4.580000000002665, -0.9752565671848149 
4.590000000002641, -0.9826953898246888 
4.600000000002618, -0.9866238843283486 
4.610000000002595, -0.9885830717531092 
4.620000000002571, -0.9893896468689805 
4.630000000002548, -0.9894472648508608 
4.640000000002525, -0.9889244939988104 
4.6500000000025015, -0.987850240468531 
4.660000000002478, -0.9861824716060889 
4.670000000002455, -0.9839245668183755 
4.6800000000024315, -0.9814289947281872 
4.690000000002408, -0.9801331177689803 
4.700000000002385, -0.9839418769875863 
4.710000000002362, -1.0007478637169405 
4.720000000002338, -1.0415556015090652 
4.730000000002315, -1.1130728577437043 
4.740000000002292, -1.2059883211571623 
4.750000000002268, -1.2961390420491812 
4.760000000002245, -1.3643253073406012 
4.770000000002222, -1.4075219141097564 
4.7800000000021985, -1.4320273844425475 
4.790000000002175, -1.4450428758212497 
4.800000000002152, -1.4516521884214577 
4.810000000002129, -1.454835004865622 
4.820000000002105, -1.456184633131322 
4.830000000002082, -1.4565186722837609 
4.840000000002059, -1.4562715024516186 
4.850000000002035, -1.4557399388439525 
4.860000000002012, -1.4552349848837631 
4.870000000001989, -1.4550990969089765 
4.880000000001965, -1.455545655817965 
4.890000000001942, -1.4565065407930597 
4.900000000001919, -1.4577268473240008 
