t, s[1].omega / s[0].omega 
0, -1.179970416252695 
0.009999999999999995, -1.1767052594698904 
0.019999999999999934, -1.1729023734239012 
0.029999999999999874, -1.1687412438240155 
0.04000000000000012, -1.164513500098914 
0.050000000000000405, -1.1606127566232154 
0.06000000000000069, -1.157453414639457 
0.07000000000000098, -1.1553082676143045 
0.08000000000000126, -1.1541664100999474 
0.09000000000000155, -1.1537566251446907 
0.10000000000000184, -1.1537220232454226 
0.11000000000000212, -1.1537769780186775 
0.12000000000000241, -1.1537473706201933 
0.130000000000002, -1.1535304246100593 
0.1400000000000009, -1.1530365795100546 
0.1499999999999998, -1.1521376798471192 
0.1599999999999987, -1.1506191072276504 
0.1699999999999976, -1.1481330566777488 
0.1799999999999965, -1.1441707441276148 
0.1899999999999954, -1.1381090404193803 
0.1999999999999943, -1.1294164059128469 
0.2099999999999932, -1.1180512388710144 
0.2199999999999921, -1.1048887703028565 
0.229999999999991, -1.0917780984306822 
0.2399999999999899, -1.0808955310553068 
0.2499999999999888, -1.073651358227942 
0.2599999999999877, -1.0700335127714935 
0.2699999999999866, -1.0689589328132776 
0.2799999999999855, -1.0691508529456735 
0.2899999999999844, -1.0697175294456613 
0.2999999999999833, -1.0702201529100888 
0.3099999999999822, -1.0705034701094236 
0.3199999999999811, -1.0705299398647885 
0.32999999999998, -1.0702814030135217 
0.3399999999999789, -1.0697069410332365 
0.3499999999999778, -1.068685039248239 
0.35999999999997667, -1.0669779564890502 
0.36999999999997557, -1.0641684593150376 
0.37999999999997447, -1.0595933429521422 
0.38999999999997337, -1.0523480219073504 
0.39999999999997227, -1.041533761654333 
0.40999999999997117, -1.0269223502180336 
0.41999999999997006, -1.0098106125908497 
0.42999999999996896, -0.9931187274444566 
0.43999999999996786, -0.9800066423916753 
0.44999999999996676, -0.9720232250592176 
0.45999999999996566, -0.9685992363898857 
0.46999999999996456, -0.9680497093892397 
0.47999999999996346, -0.9687754507509755 
0.48999999999996235, -0.9697845329228713 
0.49999999999996125, -0.9706331838731226 
0.5099999999999602, -0.9711902643297657 
0.519999999999959, -0.9714507975132822 
0.529999999999958, -0.9714351931837161 
0.5399999999999568, -0.9711428609753925 
0.5499999999999557, -0.9705272218940996 
0.5599999999999546, -0.9694712938755721 
0.5699999999999535, -0.9677524784360351 
0.5799999999999524, -0.9649945028684298 
0.5899999999999513, -0.9606250788853835 
0.5999999999999502, -0.9539029881044463 
0.6099999999999491, -0.9441323715189727 
0.619999999999948, -0.9311380220263658 
0.6299999999999469, -0.9157889555986589 
0.6399999999999458, -0.9000257681476915 
0.6499999999999447, -0.8861016935143935 
0.6599999999999436, -0.875558832244175 
0.6699999999999425, -0.8687403604041707 
0.6799999999999414, -0.8650323927717644 
0.6899999999999403, -0.863432804735534 
0.6999999999999392, -0.8630139710061423 
0.7099999999999381, -0.8631226021435185 
0.719999999999937, -0.8633788441485608 
0.7299999999999359, -0.8635932894760001 
0.7399999999999348, -0.8636810613642864 
0.7499999999999337, -0.863600588686781 
0.7599999999999326, -0.8633160485748415 
0.7699999999999315, -0.8627746098626158 
0.7799999999999304, -0.8618919212802357 
0.7899999999999293, -0.8605455103541757 
0.7999999999999282, -0.8585834022809072 
0.8099999999999271, -0.8558596229496322 
0.819999999999926, -0.8522984968626023 
0.8299999999999249, -0.8479606855643695 
0.8399999999999238, -0.8430619793261235 
0.8499999999999227, -0.8379220344302498 
0.8599999999999216, -0.8328774096584054 
0.8699999999999205, -0.8282127539684657 
0.8799999999999194, -0.8241316919145388 
0.8899999999999183, -0.820754763344322 
0.8999999999999172, -0.8181257502894221 
0.9099999999999161, -0.816218907265861 
0.919999999999915, -0.8149496817788944 
0.9299999999999139, -0.8141928730186958 
0.9399999999999128, -0.8138067881352404 
0.9499999999999117, -0.8136564625851188 
0.9599999999999106, -0.8136287913020792 
0.9699999999999095, -0.8136370924332377 
0.9799999999999084, -0.8136177377550732 
0.9899999999999073, -0.8135237631275937 
0.9999999999999062, -0.81331985989001 
1.0099999999999052, -0.8129812258702082 
1.019999999999904, -0.8124961150712015 
1.029999999999903, -0.8118690210740136 
1.039999999999902, -0.8111200862975061 
1.0499999999999008, -0.8102787963595185 
1.0599999999998997, -0.8093750058574575 
1.0699999999998986, -0.8084328184582151 
1.0799999999998975, -0.8074703048086848 
1.0899999999998964, -0.8065036716895845 
1.0999999999998953, -0.8055524476770927 
1.1099999999998942, -0.804643093529422 
1.119999999999893, -0.8038100879938186 
1.129999999999892, -0.8030943814547415 
1.1399999999998909, -0.8025393106516677 
1.1499999999998898, -0.8021845069261154 
1.1599999999998887, -0.8020592308428544 
1.1699999999998876, -0.8021772513957638 
1.1799999999998865, -0.8025350885304231 
1.1899999999998854, -0.8031141296482049 
1.1999999999998843, -0.8038855504732572 
1.2099999999998832, -0.8048159374161692 
1.219999999999882, -0.8058713471287685 
1.229999999999881, -0.8070180899488124 
1.2399999999998799, -0.8082196286612235 
1.2499999999998788, -0.8094308407955302 
1.2599999999998777, -0.8105934882663977 
1.2699999999998766, -0.8116384461505819 
1.2799999999998755, -0.8124977807298744 
1.2899999999998744, -0.8131222617223107 
1.2999999999998733, -0.8134936299517396 
1.3099999999998722, -0.8136241013759434 
1.319999999999871, -0.8135457760290279 
1.32999999999987, -0.8132989032591829 
1.3399999999998689, -0.8129261169120386 
1.3499999999998678, -0.8124750318415496 
1.3599999999998666, -0.8120087984669458 
1.3699999999998655, -0.8116231529732006 
1.3799999999998644, -0.8114667030947752 
1.3899999999998633, -0.8117572037969764 
1.3999999999998622, -0.8127819328692363 
1.4099999999998611, -0.814869686586337 
1.41999999999986, -0.8183294775437592 
1.429999999999859, -0.8233640398460906 
1.4399999999998578, -0.8299763816631364 
1.4499999999998567, -0.8378931084873251 
1.4599999999998556, -0.8465391732103351 
1.4699999999998545, -0.8551140880165542 
1.4799999999998534, -0.8627973294193912 
1.4899999999998523, -0.8690107345724123 
1.4999999999998512, -0.8735722130591764 
1.5099999999998501, -0.8766437058806575 
1.519999999999849, -0.878553012531443 
1.529999999999848, -0.879633248576061 
1.5399999999998468, -0.8801445219465165 
1.5499999999998457, -0.8802603679011775 
1.5599999999998446, -0.8800819715703799 
1.5699999999998435, -0.879657390064539 
1.5799999999998424, -0.8789989848270572 
1.5899999999998413, -0.878102405392825 
1.5999999999998402, -0.8769779684126361 
1.6099999999998391, -0.8757128078487286 
1.619999999999838, -0.8745848431615156 
1.629999999999837, -0.8742268482091105 
1.6399999999998358, -0.8757558091086317 
1.6499999999998347, -0.8806422898014261 
1.6599999999998336, -0.8900613373890206 
1.6699999999998325, -0.9038643036060282 
1.6799999999998314, -0.9200611636390328 
1.6899999999998303, -0.9356860696447697 
1.6999999999998292, -0.9484477038262658 
1.709999999999828, -0.9575970743662852 
1.719999999999827, -0.9635694056776553 
1.729999999999826, -0.9672209122664215 
1.7399999999998248, -0.9693372452484873 
1.7499999999998237, -0.9704797237825075 
1.7599999999998226, -0.9710005894216144 
1.7699999999998215, -0.9711000369104751 
1.7799999999998204, -0.9708745064973906 
1.7899999999998193, -0.9703458687227695 
1.7999999999998182, -0.9694746621640636 
1.809999999999817, -0.9681652614621447 
1.819999999999816, -0.9662780138157052 
1.8299999999998149, -0.9636798697505805 
1.8399999999998138, -0.9603878849838544 
1.8499999999998127, -0.9568493871489571 
1.8599999999998116, -0.9542560192215035 
1.8699999999998105, -0.9544704202709091 
1.8799999999998094, -0.9590814898738407 
1.8899999999998083, -0.9680071133537084 
1.8999999999998072, -0.9791687231536749 
1.909999999999806, -0.9898654131272551 
1.919999999999805, -0.9983677223712648 
1.9299999999998039, -1.0042990388029511 
1.9399999999998028, -1.0080832050670554 
1.9499999999998017, -1.0103410399432033 
1.9599999999998006, -1.0115927490680305 
1.9699999999997995, -1.012191209936065 
1.9799999999997984, -1.0123459720386987 
1.9899999999997973, -1.0121612108177787 
1.9999999999997962, -1.0116621184465768 
2.0099999999998173, -1.0108064013339058 
2.0199999999998384, -1.0094861482051853 
2.0299999999998595, -1.00753457837834 
2.0399999999998806, -1.00477273938569 
2.0499999999999017, -1.001164016549169 
2.059999999999923, -0.9971449100042037 
2.069999999999944, -0.9940307730400543 
2.079999999999965, -0.9939742068368386 
2.089999999999986, -0.9988291842156007 
2.100000000000007, -1.0084449385599503 
2.1100000000000283, -1.0203484188173104 
2.1200000000000494, -1.0314973946658523 
2.1300000000000705, -1.0401125111579896 
2.1400000000000916, -1.0459499150720668 
2.1500000000001127, -1.0495695658624977 
2.160000000000134, -1.051665832103436 
2.170000000000155, -1.0527825097933108 
2.180000000000176, -1.0532718960699223 
2.190000000000197, -1.05333479920658 
2.2000000000002182, -1.0530655470371273 
2.2100000000002393, -1.0524820928038585 
2.2200000000002604, -1.0515439837266347 
2.2300000000002815, -1.0501729274480618 
2.2400000000003026, -1.0483085066238271 
2.2500000000003237, -1.0460593709867196 
2.260000000000345, -1.0440111175399127 
2.270000000000366, -1.0435996121701625 
2.280000000000387, -1.0470522845598007 
2.290000000000408, -1.0562154788067575 
2.3000000000004293, -1.0706959476991718 
2.3100000000004504, -1.087413786961036 
2.3200000000004715, -1.1025988589078946 
2.3300000000004926, -1.1140789655869814 
2.3400000000005137, -1.1216817488316668 
2.3500000000005348, -1.1262770097104413 
2.360000000000556, -1.1288696830241556 
2.370000000000577, -1.1302218756973397 
2.380000000000598, -1.130816271767299 
2.390000000000619, -1.1309282995786227 
2.4000000000006403, -1.1307015802524827 
2.4100000000006614, -1.1302046177564828 
2.4200000000006825, -1.1294802279485652 
2.4300000000007036, -1.1286128164262244 
2.4400000000007247, -1.127839460345657 
2.450000000000746, -1.1276891126025181 
2.460000000000767, -1.129013761010783 
2.470000000000788, -1.132688857076433 
2.480000000000809, -1.1390200483495463 
2.49000000000083, -1.1473789507836114 
2.5000000000008513, -1.1564802864501076 
2.5100000000008724, -1.1650135383285776 
2.5200000000008935, -1.1721025022915088 
2.5300000000009146, -1.1774174646478053 
2.5400000000009357, -1.1810533524592135 
2.550000000000957, -1.183327912083118 
2.560000000000978, -1.1846060796840285 
2.570000000000999, -1.1851983901488912 
2.58000000000102, -1.1853298093451707 
2.5900000000010412, -1.1851513099528126 
2.6000000000010624, -1.1847704243037471 
2.6100000000010835, -1.1842895862894278 
2.6200000000011046, -1.1838445140286722 
2.6300000000011257, -1.1836222692908984 
2.6400000000011468, -1.1838262992488244 
2.650000000001168, -1.1845868614721144 
2.660000000001189, -1.1858858802302978 
2.67000000000121, -1.1875695969183493 
2.680000000001231, -1.1894291446628973 
2.6900000000012523, -1.1912741805030342 
2.7000000000012734, -1.1929636018764378 
2.7100000000012945, -1.1944049021241665 
2.7200000000013156, -1.1955432254604614 
2.7300000000013367, -1.1963520315152594 
2.740000000001358, -1.196828216945822 
2.750000000001379, -1.1969893798087867 
2.7600000000014, -1.1968700987129601 
2.770000000001421, -1.1965170822814977 
2.780000000001442, -1.1959862032540898 
2.7900000000014633, -1.195343663493958 
2.8000000000014844, -1.1946685262373622 
2.8100000000015055, -1.194049006527223 
2.8200000000015266, -1.1935673352853111 
2.8300000000015477, -1.193278927488286 
2.840000000001569, -1.1931981855714011 
2.85000000000159, -1.1932964698716622 
2.860000000001611, -1.1935102952292194 
2.870000000001632, -1.1937572966637544 
2.8800000000016532, -1.1939544684695826 
2.8900000000016743, -1.1940301391509265 
2.9000000000016954, -1.1939268097945548 
2.9100000000017165, -1.1935995723818087 
2.9200000000017377, -1.1930154561242217 
2.9300000000017588, -1.192154838423157 
2.94000000000178, -1.1910131334632654 
2.950000000001801, -1.1896017890758803 
2.960000000001822, -1.1879500358605675 
2.970000000001843, -1.186109511049279 
2.9800000000018643, -1.1841618641340128 
2.9900000000018854, -1.1822256507647058 
3.0000000000019065, -1.180453546253921 
3.0100000000019276, -1.1790061380952532 
3.0200000000019487, -1.1779963201440329 
3.03000000000197, -1.1774310990507693 
3.040000000001991, -1.1772033976129817 
3.050000000002012, -1.177147608794276 
3.060000000002033, -1.1771067463055973 
3.070000000002054, -1.176959962725686 
3.0800000000020753, -1.176609383961216 
3.0900000000020964, -1.1759506036318368 
3.1000000000021175, -1.174845136226328 
3.1100000000021386, -1.1731051055057717 
3.1200000000021597, -1.1705012219040862 
3.130000000002181, -1.1668061402150254 
3.140000000002202, -1.1618748397001748 
3.150000000002223, -1.155743555311361 
3.160000000002244, -1.1487159952920623 
3.1700000000022652, -1.1414009095791537 
3.1800000000022863, -1.1346442903069889 
3.1900000000023074, -1.1292892141186428 
3.2000000000023285, -1.1258112093594819 
3.2100000000023496, -1.1240944720668775 
3.2200000000023707, -1.123582664924363 
3.230000000002392, -1.1236516078013714 
3.240000000002413, -1.1238615833307484 
3.250000000002434, -1.1239835430212892 
3.260000000002455, -1.1239147471705633 
3.2700000000024763, -1.1235916451628678 
3.2800000000024974, -1.122927789255123 
3.2900000000025185, -1.1217639087005593 
3.3000000000025396, -1.1198128031125503 
3.3100000000025607, -1.1165949585338315 
3.3200000000025818, -1.1113957174225564 
3.330000000002603, -1.103343642835403 
3.340000000002624, -1.091774076464551 
3.350000000002645, -1.0769275146310406 
3.360000000002666, -1.060558433945596 
3.3700000000026873, -1.0455991681788819 
3.3800000000027084, -1.0346542751719445 
3.3900000000027295, -1.0285519905646026 
3.4000000000027506, -1.0263103114620047 
3.4100000000027717, -1.0262516758235543 
3.420000000002793, -1.027012138074896 
3.430000000002814, -1.0278423902686256 
3.440000000002835, -1.028450946567332 
3.450000000002856, -1.0287712923174006 
3.460000000002877, -1.0288084904259027 
3.4700000000028983, -1.0285634088176197 
3.4800000000029194, -1.0279954276977656 
3.4900000000029405, -1.0269931303802724 
3.5000000000029616, -1.025334912128934 
3.5100000000029827, -1.0226318319391092 
3.520000000003004, -1.0182650798012884 
3.530000000003025, -1.0113812445049246 
3.540000000003046, -1.0010940274624203 
3.550000000003067, -0.9870560202957908 
3.5600000000030882, -0.9702443386074491 
3.5700000000031094, -0.9531798616096182 
3.5800000000031305, -0.9388717475733976 
3.5900000000031516, -0.9291651463934281 
3.6000000000031727, -0.924026914057063 
3.6100000000031938, -0.9221708366939845 
3.620000000003215, -0.9220980297288282 
3.630000000003236, -0.9227134685688594 
3.640000000003257, -0.9234203965726249 
3.650000000003278, -0.9239690903257015 
3.6600000000032993, -0.9242864128971574 
3.6700000000033204, -0.9243635199474032 
3.6800000000033415, -0.9241964889797906 
3.6900000000033626, -0.9237554368950616 
3.7000000000033837, -0.9229626924019378 
3.710000000003405, -0.9216691128228515 
3.720000000003426, -0.9196265878809294 
3.730000000003447, -0.9164692267655676 
3.740000000003468, -0.9117399951688311 
3.750000000003489, -0.9050187557661109 
3.7600000000035103, -0.8961686349153112 
3.7700000000035314, -0.8855833832182031 
3.7800000000035525, -0.8742123416862709 
3.7900000000035736, -0.8632713355804711 
3.8000000000035947, -0.8538220355090264 
3.810000000003616, -0.8464799096208863 
3.820000000003637, -0.841353549154593 
3.830000000003658, -0.8381613507057789 
3.840000000003679, -0.8364223714736347 
3.8500000000037002, -0.8356327997283257 
3.8600000000037213, -0.835376638262401 
3.8700000000037424, -0.8353625405137887 
3.8800000000037635, -0.8354097754890134 
3.8900000000037847, -0.835413571583649 
3.9000000000038058, -0.8353105209979874 
3.910000000003827, -0.8350524008608217 
3.920000000003848, -0.8345896557639255 
3.930000000003869, -0.8338644021678224 
3.94000000000389, -0.8328142519821486 
3.9500000000039113, -0.8313883256383134 
3.9600000000039324, -0.8295714923512664 
3.9700000000039535, -0.82740352991551 
3.9800000000039746, -0.8249776948743996 
3.9900000000039957, -0.8224169342467078 
4.000000000004016, -0.8198436075063806 
4.010000000003993, -0.8173602289291788 
4.02000000000397, -0.8150456795940226 
4.030000000003946, -0.8129601488194391 
4.040000000003923, -0.8111504225258848 
4.0500000000039, -0.8096510790781742 
4.0600000000038765, -0.808481478137316 
4.070000000003853, -0.8076411512894544 
4.08000000000383, -0.8071071097428119 
4.090000000003807, -0.8068356778319495 
4.100000000003783, -0.8067691016259072 
4.11000000000376, -0.8068446671116181 
4.120000000003737, -0.807003065303641 
4.130000000003713, -0.8071938177888447 
4.14000000000369, -0.8073776108521203 
4.150000000003667, -0.8075267182322587 
4.1600000000036434, -0.8076245127566757 
4.17000000000362, -0.8076638963295395 
4.180000000003597, -0.8076438006542572 
4.1900000000035735, -0.80756397371529 
4.20000000000355, -0.8074204108344116 
4.210000000003527, -0.8072045160605864 
4.220000000003504, -0.806906887909865 
4.23000000000348, -0.8065232965131124 
4.240000000003457, -0.8060593171757813 
4.250000000003434, -0.8055321499191631 
4.26000000000341, -0.8049708472076166 
4.270000000003387, -0.804416811255587 
4.280000000003364, -0.8039249539500821 
4.2900000000033405, -0.8035639852573568 
4.300000000003317, -0.8034134128385235 
4.310000000003294, -0.8035557767379695 
4.320000000003271, -0.8040651944652415 
4.330000000003247, -0.8049958567255681 
4.340000000003224, -0.8063745097435024 
4.350000000003201, -0.8081984777728343 
4.360000000003177, -0.8104371149596001 
4.370000000003154, -0.8130323374613558 
4.380000000003131, -0.815894773619654 
4.390000000003107, -0.8188966060745688 
4.400000000003084, -0.8218693900019758 
4.410000000003061, -0.824619966926174 
4.4200000000030375, -0.8269703694416869 
4.430000000003014, -0.8288060008978361 
4.440000000002991, -0.8301010416440258 
4.450000000002968, -0.8309049476164487 
4.460000000002944, -0.8313048691270953 
4.470000000002921, -0.8313903625072555 
4.480000000002898, -0.8312344170188679 
4.490000000002874, -0.8308903145909348 
4.500000000002851, -0.8303994461044297 
4.510000000002828, -0.8298080892329611 
4.520000000002804, -0.8291955432240672 
4.530000000002781, -0.8287181104535476 
4.540000000002758, -0.8286692899676789 
4.5500000000027345, -0.8295409995747896 
4.560000000002711, -0.8320422542973551 
4.570000000002688, -0.8370043843763252 
4.580000000002665, -0.8451115323979856 
4.590000000002641, -0.8564845385939938 
4.600000000002618, -0.8703190524632494 
4.610000000002595, -0.8849183297640998 
4.620000000002571, -0.8983046834452926 
4.630000000002548, -0.9090693564182084 
4.640000000002525, -0.9168048258566023 
4.6500000000025015, -0.9218921604635446 
4.660000000002478, -0.9250175741581483 
4.670000000002455, -0.9268221406947876 
4.6800000000024315, -0.9277742407671529 
4.690000000002408, -0.9281727069963377 
4.700000000002385, -0.9281892010673474 
4.710000000002362, -0.927907574618731 
4.720000000002338, -0.9273501996193587 
4.730000000002315, -0.9264945354686782 
4.740000000002292, -0.9252895347003707 
4.750000000002268, -0.9236895761898187 
4.760000000002245, -0.9217360849556971 
4.770000000002222, -0.9197223413462868 
4.7800000000021985, -0.9184317355151691 
4.790000000002175, -0.9192793649385675 
4.800000000002152, -0.9239722463115069 
4.810000000002129, -0.9334498430600272 
4.820000000002105, -0.9467597401605117 
4.830000000002082, -0.961218691447462 
4.840000000002059, -0.9740323571889317 
4.850000000002035, -0.9837379560935087 
4.860000000002012, -0.9903018491897816 
4.870000000001989, -0.9944065928484027 
4.880000000001965, -0.9968262655941652 
4.890000000001942, -0.9981615163949146 
4.900000000001919, -0.9988056755073688 
4.9100000000018955, -0.9989892757137607 
4.920000000001872, -0.9988291185121836 
