t, s[1].omega / s[0].omega 
0, -1.2699973907343778 
0.009999999999999995, -1.269620507203849 
0.019999999999999934, -1.2690191002615512 
0.029999999999999874, -1.2682090928512697 
0.04000000000000012, -1.2672199417578234 
0.050000000000000405, -1.2660991787079685 
0.06000000000000069, -1.2649170196148467 
0.07000000000000098, -1.2637670349837822 
0.08000000000000126, -1.2627570372568777 
0.09000000000000155, -1.2619840838072756 
0.10000000000000184, -1.261495651757517 
0.11000000000000212, -1.261260719229178 
0.12000000000000241, -1.2611810834050745 
0.130000000000002, -1.2611357600512076 
0.1400000000000009, -1.2610171477938417 
0.1499999999999998, -1.2607354690926793 
0.1599999999999987, -1.2602008333076864 
0.1699999999999976, -1.2593006017042059 
0.1799999999999965, -1.2578839902536854 
0.1899999999999954, -1.2557633928963114 
0.1999999999999943, -1.2527432380960102 
0.2099999999999932, -1.2486851005797472 
0.2199999999999921, -1.2436083191245189 
0.229999999999991, -1.2378062485393981 
0.2399999999999899, -1.2319158575058842 
0.2499999999999888, -1.226814321809956 
0.2599999999999877, -1.2232509804699323 
0.2699999999999866, -1.2214159602882966 
0.2799999999999855, -1.2208863597620934 
0.2899999999999844, -1.2210116955316865 
0.2999999999999833, -1.2212931329261796 
0.3099999999999822, -1.2214761746897367 
0.3199999999999811, -1.2214640766281777 
0.32999999999998, -1.2212151830087024 
0.3399999999999789, -1.22067582726441 
0.3499999999999778, -1.219736393643921 
0.35999999999997667, -1.2181913295455922 
0.36999999999997557, -1.215701537015158 
0.37999999999997447, -1.211800323978878 
0.38999999999997337, -1.2060671370583145 
0.39999999999997227, -1.1986459838386305 
0.40999999999997117, -1.1909754796467609 
0.41999999999997006, -1.1857172345847684 
0.42999999999996896, -1.1849207714361174 
0.43999999999996786, -1.188104298718637 
0.44999999999996676, -1.1929237077136445 
0.45999999999996566, -1.1973264546955211 
0.46999999999996456, -1.200497779665397 
0.47999999999996346, -1.20247397719777 
0.48999999999996235, -1.2035628956040134 
0.49999999999996125, -1.2040516203092793 
0.5099999999999602, -1.204131926497487 
0.519999999999959, -1.203908108552679 
0.529999999999958, -1.2034222965953352 
0.5399999999999568, -1.2026845206010321 
0.5499999999999557, -1.2017226911128571 
0.5599999999999546, -1.2006830715184291 
0.5699999999999535, -1.199990462006536 
0.5799999999999524, -1.2004533693180248 
0.5899999999999513, -1.2030269736588102 
0.5999999999999502, -1.2081410348250716 
0.6099999999999491, -1.2151857401300146 
0.619999999999948, -1.2228109924213608 
0.6299999999999469, -1.2297182325985543 
0.6399999999999458, -1.2351769110978688 
0.6499999999999447, -1.2390452172760278 
0.6599999999999436, -1.2415387068496668 
0.6699999999999425, -1.2429936207663905 
0.6799999999999414, -1.243723162658618 
0.6899999999999403, -1.2439639555617612 
0.6999999999999392, -1.2438765867408883 
0.7099999999999381, -1.243569600156602 
0.719999999999937, -1.2431318489020038 
0.7299999999999359, -1.2426664083392656 
0.7399999999999348, -1.242313188391357 
0.7499999999999337, -1.2422348865180406 
0.7599999999999326, -1.2425545108340772 
0.7699999999999315, -1.243287291966619 
0.7799999999999304, -1.2443334692964059 
0.7899999999999293, -1.2455346721675382 
0.7999999999999282, -1.2467369878669536 
0.8099999999999271, -1.247822904316974 
0.819999999999926, -1.248715427677496 
0.8299999999999249, -1.2493703894304626 
0.8399999999999238, -1.2497675075273547 
0.8499999999999227, -1.2499040551005378 
0.8599999999999216, -1.2497911222423599 
0.8699999999999205, -1.249451257141087 
0.8799999999999194, -1.2489171080417907 
0.8899999999999183, -1.2482318644745578 
0.8999999999999172, -1.2474515829367747 
0.9099999999999161, -1.2466464918029183 
0.919999999999915, -1.2458962731180083 
0.9299999999999139, -1.245277036047947 
0.9399999999999128, -1.2448430834226971 
0.9499999999999117, -1.244609209360482 
0.9599999999999106, -1.2445416546134582 
0.9699999999999095, -1.2445668681302315 
0.9799999999999084, -1.244595265969115 
0.9899999999999073, -1.2445423683566292 
0.9999999999999062, -1.2443345777876462 
1.0099999999999052, -1.2439031261990812 
1.019999999999904, -1.2431770168282568 
1.029999999999903, -1.2420828421620804 
1.039999999999902, -1.2405537196817487 
1.0499999999999008, -1.2385450695933338 
1.0599999999998997, -1.23605357498263 
1.0699999999998986, -1.2331382106514934 
1.0799999999998975, -1.2299441441606846 
1.0899999999998964, -1.226722158182147 
1.0999999999998953, -1.2238138978008728 
1.1099999999998942, -1.2215600688236719 
1.119999999999893, -1.2201424689773257 
1.129999999999892, -1.2194823132991384 
1.1399999999998909, -1.2193095747008729 
1.1499999999998898, -1.2193318783878513 
1.1599999999998887, -1.2193426140057264 
1.1699999999998876, -1.2192235109690222 
1.1799999999998865, -1.2188969752564098 
1.1899999999998854, -1.218274973560546 
1.1999999999998843, -1.2172138211608565 
1.2099999999998832, -1.2154690436906121 
1.219999999999882, -1.2126531609269173 
1.229999999999881, -1.2082315011196827 
1.2399999999998799, -1.2016473611588838 
1.2499999999998788, -1.1926969887597092 
1.2599999999998777, -1.1821095451638968 
1.2699999999998766, -1.1718119952258865 
1.2799999999998755, -1.164132141780794 
1.2899999999998744, -1.1602459996190135 
1.2999999999998733, -1.1595204694297214 
1.3099999999998722, -1.1604233264345818 
1.319999999999871, -1.1616985933832236 
1.32999999999987, -1.1627414597038328 
1.3399999999998689, -1.1633960157236476 
1.3499999999998678, -1.1636878079312707 
1.3599999999998666, -1.1636734046276678 
1.3699999999998655, -1.1633816934460528 
1.3799999999998644, -1.162794172769699 
1.3899999999998633, -1.1618359877133533 
1.3999999999998622, -1.1603743833290239 
1.4099999999998611, -1.1582489581379867 
1.41999999999986, -1.1553986981871598 
1.429999999999859, -1.152169931344767 
1.4399999999998578, -1.149726585877831 
1.4499999999998567, -1.1499986573595185 
1.4599999999998556, -1.154473910720877 
1.4699999999998545, -1.162609903429901 
1.4799999999998534, -1.1719836290488947 
1.4899999999998523, -1.1801901219857704 
1.4999999999998512, -1.1861621938852607 
1.5099999999998501, -1.189996456767816 
1.519999999999849, -1.1922421176764038 
1.529999999999848, -1.193438341738916 
1.5399999999998468, -1.1939689806827913 
1.5499999999998457, -1.1940688885209512 
1.5599999999998446, -1.1938680872031138 
1.5699999999998435, -1.1934349935006874 
1.5799999999998424, -1.1928185822302304 
1.5899999999998413, -1.1921043976744108 
1.5999999999998402, -1.1914953391270446 
1.6099999999998391, -1.1913857071151648 
1.619999999999838, -1.1923173989693694 
1.629999999999837, -1.1947194017609495 
1.6399999999998358, -1.1985790641078553 
1.6499999999998347, -1.2033833842190842 
1.6599999999998336, -1.2083943742423142 
1.6699999999998325, -1.21297346508057 
1.6799999999998314, -1.2167373053669324 
1.6899999999998303, -1.2195557664668886 
1.6999999999998292, -1.221479633505098 
1.709999999999828, -1.2226558154016416 
1.719999999999827, -1.2232571938671364 
1.729999999999826, -1.2234392051227088 
1.7399999999998248, -1.223323995883941 
1.7499999999998237, -1.2230053640862961 
1.7599999999998226, -1.2225660408948933 
1.7699999999998215, -1.2220986500521556 
1.7799999999998204, -1.221717213383204 
1.7899999999998193, -1.2215424887959565 
1.7999999999998182, -1.2216596270214022 
1.809999999999817, -1.222078895879079 
1.819999999999816, -1.222734934278353 
1.8299999999998149, -1.2235209674446355 
1.8399999999998138, -1.2243266699614486 
1.8499999999998127, -1.2250602701008952 
1.8599999999998116, -1.2256551369119255 
1.8699999999998105, -1.2260676844936875 
1.8799999999998094, -1.2262724604926214 
1.8899999999998083, -1.226257860207078 
1.8999999999998072, -1.2260236326429603 
1.909999999999806, -1.2255799596601018 
1.919999999999805, -1.2249476674146536 
1.9299999999998039, -1.224159593611117 
1.9399999999998028, -1.2232630707204026 
1.9499999999998017, -1.2223219079323417 
1.9599999999998006, -1.2214142550712201 
1.9699999999997995, -1.220623007000122 
1.9799999999997984, -1.2200182633995569 
1.9899999999997973, -1.2196351572352822 
1.9999999999997962, -1.2194568004068516 
2.0099999999998173, -1.219416626259591 
2.0199999999998384, -1.2194222121203064 
2.0299999999998595, -1.2193821177019186 
2.0399999999998806, -1.2192171868819055 
2.0499999999999017, -1.2188557873731034 
2.059999999999923, -1.218224020346764 
2.069999999999944, -1.2172411012145852 
2.079999999999965, -1.2158250004888236 
2.089999999999986, -1.2139083199546907 
2.100000000000007, -1.2114602970195247 
2.1100000000000283, -1.2085102773469079 
2.1200000000000494, -1.2051710972117042 
2.1300000000000705, -1.2016600078506126 
2.1400000000000916, -1.198300455731966 
2.1500000000001127, -1.1954670784703425 
2.160000000000134, -1.1934512532483554 
2.170000000000155, -1.1923140361629043 
2.180000000000176, -1.19186446758692 
2.190000000000197, -1.1917949480392362 
2.2000000000002182, -1.1918373077636426 
2.2100000000002393, -1.191822275995197 
2.2200000000002604, -1.1916544211760338 
2.2300000000002815, -1.1912616799692481 
2.2400000000003026, -1.1905492810754534 
2.2500000000003237, -1.1893588155491241 
2.260000000000345, -1.187427461453717 
2.270000000000366, -1.1843560359718288 
2.280000000000387, -1.1796278916548235 
2.290000000000408, -1.1727654483868113 
2.3000000000004293, -1.1637039879977944 
2.3100000000004504, -1.153270244844425 
2.3200000000004715, -1.143282157760757 
2.3300000000004926, -1.1357659039812538 
2.3400000000005137, -1.1316992626242715 
2.3500000000005348, -1.1305484477816934 
2.360000000000556, -1.1310097511028858 
2.370000000000577, -1.1319620354616498 
2.380000000000598, -1.132813266513787 
2.390000000000619, -1.1333691849936502 
2.4000000000006403, -1.1336160215209012 
2.4100000000006614, -1.1335838306818489 
2.4200000000006825, -1.133285413871748 
2.4300000000007036, -1.1326904773604596 
2.4400000000007247, -1.1317086054901853 
2.450000000000746, -1.1301727183089934 
2.460000000000767, -1.1278352875536748 
2.470000000000788, -1.1244251888180177 
2.480000000000809, -1.1198593143512063 
2.49000000000083, -1.1146666702627461 
2.5000000000008513, -1.1103536191327419 
2.5100000000008724, -1.1089536025554694 
2.5200000000008935, -1.1115133382929498 
2.5300000000009146, -1.117033124583908 
2.5400000000009357, -1.1233316017103054 
2.550000000000957, -1.128697077696245 
2.560000000000978, -1.1325245971421531 
2.570000000000999, -1.1349514260260927 
2.58000000000102, -1.1363480498594374 
2.5900000000010412, -1.1370505886012408 
2.6000000000010624, -1.137289538158711 
2.6100000000010835, -1.1371984263493362 
2.6200000000011046, -1.136839206481885 
2.6300000000011257, -1.1362263049219927 
2.6400000000011468, -1.1353546902389062 
2.650000000001168, -1.1342528983028433 
2.660000000001189, -1.13309207359242 
2.67000000000121, -1.1323558994808776 
2.680000000001231, -1.1329516712894914 
2.6900000000012523, -1.135972261694046 
2.7000000000012734, -1.1419809172939934 
2.7100000000012945, -1.150366462439806 
2.7200000000013156, -1.159547034032527 
2.7300000000013367, -1.1678845260003068 
2.740000000001358, -1.1744241883538904 
2.750000000001379, -1.1789957530540103 
2.7600000000014, -1.1819057650073457 
2.770000000001421, -1.1836008289559472 
2.780000000001442, -1.1844750615060442 
2.7900000000014633, -1.184811131721839 
2.8000000000014844, -1.184790145150617 
2.8100000000015055, -1.1845236903265541 
2.8200000000015266, -1.184090231993867 
2.8300000000015477, -1.183574925093965 
2.840000000001569, -1.1831125109585676 
2.85000000000159, -1.1829146465329683 
2.860000000001611, -1.1832388435804684 
2.870000000001632, -1.184278021346589 
2.8800000000016532, -1.186041152734807 
2.8900000000016743, -1.188337939020351 
2.9000000000016954, -1.190876114241415 
2.9100000000017165, -1.1933747567072523 
2.9200000000017377, -1.1956238610268017 
2.9300000000017588, -1.1974937475881027 
2.94000000000178, -1.1989237247152098 
2.950000000001801, -1.1999076597251788 
2.960000000001822, -1.2004795307763587 
2.970000000001843, -1.200697757332725 
2.9800000000018643, -1.2006301697333597 
2.9900000000018854, -1.200344271004831 
3.0000000000019065, -1.1999060047097543 
3.0100000000019276, -1.199385781069309 
3.0200000000019487, -1.1988651666390546 
3.03000000000197, -1.198433980642362 
3.040000000001991, -1.1981717897957158 
3.050000000002012, -1.1981224341332044 
3.060000000002033, -1.19828020032608 
3.070000000002054, -1.1985961055664316 
3.0800000000020753, -1.198996341645757 
3.0900000000020964, -1.1994016568032688 
3.1000000000021175, -1.1997413473642244 
3.1100000000021386, -1.1999597192257423 
3.1200000000021597, -1.200016477529169 
3.130000000002181, -1.1998846129014287 
3.140000000002202, -1.199548498082073 
3.150000000002223, -1.1990029487693623 
3.160000000002244, -1.1982531647388457 
3.1700000000022652, -1.1973157397931737 
3.1800000000022863, -1.1962211367983058 
3.1900000000023074, -1.1950174130381084 
3.2000000000023285, -1.193773467530802 
3.2100000000023496, -1.1925782209979041 
3.2200000000023707, -1.1915309719119949 
3.230000000002392, -1.190719200758304 
3.240000000002413, -1.1901871554504442 
3.250000000002434, -1.189912677559985 
3.260000000002455, -1.1898136850550372 
3.2700000000024763, -1.1897819492071722 
3.2800000000024974, -1.189715997087038 
3.2900000000025185, -1.189531836296704 
3.3000000000025396, -1.1891541496538671 
3.3100000000025607, -1.1885015933097336 
3.3200000000025818, -1.1874773662294653 
3.330000000002603, -1.1859718509361896 
3.340000000002624, -1.1838806428467463 
3.350000000002645, -1.1811360563779671 
3.360000000002666, -1.1777445400066135 
3.3700000000026873, -1.173821390544886 
3.3800000000027084, -1.16961549571768 
3.3900000000027295, -1.1655082176693046 
3.4000000000027506, -1.1619515833447278 
3.4100000000027717, -1.1593210716574556 
3.420000000002793, -1.1577434806122353 
3.430000000002814, -1.1570458825749639 
3.440000000002835, -1.1568865136359734 
3.450000000002856, -1.1569401680523328 
3.460000000002877, -1.1569912564623528 
3.4700000000028983, -1.1569229245421468 
3.4800000000029194, -1.1566658211683016 
3.4900000000029405, -1.156149192072569 
3.5000000000029616, -1.1552612129452977 
3.5100000000029827, -1.153811942493297 
3.520000000003004, -1.1514975100717562 
3.530000000003025, -1.1478846386565487 
3.540000000003046, -1.1424706198366095 
3.550000000003067, -1.1349017739595249 
3.5600000000030882, -1.1253701374073084 
3.5700000000031094, -1.1149675121195242 
3.5800000000031305, -1.1055248909380502 
3.5900000000031516, -1.0987261318452197 
3.6000000000031727, -1.095136173130705 
3.6100000000031938, -1.0940876790100034 
3.620000000003215, -1.0944139974806084 
3.630000000003236, -1.0951728251062942 
3.640000000003257, -1.0958656596070746 
3.650000000003278, -1.0963170452705047 
3.6600000000032993, -1.0965012066155655 
3.6700000000033204, -1.0964311219118164 
3.6800000000033415, -1.0961051381022682 
3.6900000000033626, -1.0954804752832503 
3.7000000000033837, -1.0944518561393966 
3.710000000003405, -1.092825942826602 
3.720000000003426, -1.0902970451774148 
3.730000000003447, -1.0864579141159836 
3.740000000003468, -1.0809275163162577 
3.750000000003489, -1.0736972793342774 
3.7600000000035103, -1.0656227849640776 
3.7700000000035314, -1.0585360281198744 
3.7800000000035525, -1.0543603103268022 
3.7900000000035736, -1.0537380727447363 
3.8000000000035947, -1.055689399247406 
3.810000000003616, -1.0586111532439721 
3.820000000003637, -1.0613302331144399 
3.830000000003658, -1.0633694394044364 
3.840000000003679, -1.0647005833098517 
3.8500000000037002, -1.0654602272910667 
3.8600000000037213, -1.0657949499613075 
3.8700000000037424, -1.0658076185245633 
3.8800000000037635, -1.0655478178817634 
3.8900000000037847, -1.0650131826602522 
3.9000000000038058, -1.0641492508760115 
3.910000000003827, -1.062848303489548 
3.920000000003848, -1.0609608322201294 
3.930000000003869, -1.0583546661708345 
3.94000000000389, -1.0550786555591807 
3.9500000000039113, -1.0516505597096644 
3.9600000000039324, -1.0492804925534034 
3.9700000000039535, -1.0495503706830063 
3.9800000000039746, -1.0533403603821712 
3.9900000000039957, -1.0599110054991 
4.000000000004016, -1.0673401566944642 
4.010000000003993, -1.0738752041925055 
4.02000000000397, -1.078733300553353 
4.030000000003946, -1.08195057928461 
4.040000000003923, -1.0839038816723314 
4.0500000000039, -1.0849863780231677 
4.0600000000038765, -1.0854909649281979 
4.070000000003853, -1.085602039987617 
4.08000000000383, -1.0854189696101701 
4.090000000003807, -1.0849800400988927 
4.100000000003783, -1.0842819413560854 
4.11000000000376, -1.0833035775972886 
4.120000000003737, -1.0820551628716255 
4.130000000003713, -1.0806841253192503 
4.14000000000369, -1.0796507065421603 
4.150000000003667, -1.0798772207378387 
4.1600000000036434, -1.0825889497593844 
4.17000000000362, -1.0886171804607174 
4.180000000003597, -1.0975649251497426 
4.1900000000035735, -1.1077644229630288 
4.20000000000355, -1.117240856592778 
4.210000000003527, -1.1247377890461692 
4.220000000003504, -1.129979806385454 
4.23000000000348, -1.133314394288043 
4.240000000003457, -1.1352705515003323 
4.250000000003434, -1.13630994508129 
4.26000000000341, -1.136756892703025 
4.270000000003387, -1.1368133141223058 
4.280000000003364, -1.1365956807360011 
4.2900000000033405, -1.1361716771501253 
4.300000000003317, -1.1355974872647798 
4.310000000003294, -1.1349654557966564 
4.320000000003271, -1.1344657543762153 
4.330000000003247, -1.1344339769794292 
4.340000000003224, -1.135309567671416 
4.350000000003201, -1.1374492352585972 
4.360000000003177, -1.1408922078702783 
4.370000000003154, -1.1452889330972584 
4.380000000003131, -1.1500590443826568 
4.390000000003107, -1.1546255969978438 
4.400000000003084, -1.1585700060542743 
4.410000000003061, -1.1616786902315828 
4.4200000000030375, -1.163919448506566 
4.430000000003014, -1.1653839649304527 
4.440000000002991, -1.1662220993222445 
4.450000000002968, -1.1665886964934478 
4.460000000002944, -1.1666143376721165 
4.470000000002921, -1.166399349059252 
4.480000000002898, -1.1660240445797658 
4.490000000002874, -1.165567998649554 
4.500000000002851, -1.165130330057954 
4.510000000002828, -1.1648372483795868 
4.520000000002804, -1.1648205134179919 
4.530000000002781, -1.1651686135542862 
4.540000000002758, -1.1658849001833036 
4.5500000000027345, -1.1668885302731287 
4.560000000002711, -1.1680532219787443 
4.570000000002688, -1.1692501115111802 
4.580000000002665, -1.170372612094504 
4.590000000002641, -1.1713431444342177 
4.600000000002618, -1.1721103713861587 
4.610000000002595, -1.1726442767385155 
4.620000000002571, -1.1729326293267288 
4.630000000002548, -1.172979053520148 
4.640000000002525, -1.172801288355299 
4.6500000000025015, -1.172428870583622 
4.660000000002478, -1.171901310525374 
4.670000000002455, -1.1712683143814333 
4.6800000000024315, -1.1705913182637846 
4.690000000002408, -1.1699421228440725 
4.700000000002385, -1.1693939296717628 
4.710000000002362, -1.1690053769024247 
4.720000000002338, -1.1688048120913437 
4.730000000002315, -1.1687824000486886 
4.740000000002292, -1.1688930407214215 
4.750000000002268, -1.1690689478673981 
4.760000000002245, -1.1692364464343608 
4.770000000002222, -1.16932889995593 
4.7800000000021985, -1.1692915937382984 
4.790000000002175, -1.169081146153768 
4.800000000002152, -1.168664367087245 
4.810000000002129, -1.1680190046206955 
4.820000000002105, -1.167135682059687 
4.830000000002082, -1.1660195433723541 
4.840000000002059, -1.164691558122883 
4.850000000002035, -1.1631907894609197 
4.860000000002012, -1.161578360328052 
4.870000000001989, -1.1599414213542212 
4.880000000001965, -1.1583921737573566 
4.890000000001942, -1.1570544229579542 
4.900000000001919, -1.156032327887573 
4.9100000000018955, -1.1553695114244784 
4.920000000001872, -1.1550257743716432 
4.930000000001849, -1.1548947170095962 
4.940000000001826, -1.1548494024560458 
