t, s[1].omega / s[0].omega 
0, -0.49999775790667816 
0.009999999999999995, -0.49979956839234285 
0.019999999999999934, -0.49964378049557423 
0.029999999999999874, -0.4995066578646671 
0.04000000000000012, -0.49935849537927324 
0.050000000000000405, -0.49917303036738875 
0.06000000000000069, -0.49893336669076216 
0.07000000000000098, -0.4986329504995061 
0.08000000000000126, -0.49827327403321464 
0.09000000000000155, -0.49786111098378233 
0.10000000000000184, -0.4974073542472072 
0.11000000000000212, -0.49692846753766134 
0.12000000000000241, -0.4964511043514694 
0.130000000000002, -0.49602048041082236 
0.1400000000000009, -0.49571279010544805 
0.1499999999999998, -0.4956495787616845 
0.1599999999999987, -0.49600383942242054 
0.1699999999999976, -0.4969684150627204 
0.1799999999999965, -0.49863151555893515 
0.1899999999999954, -0.5007271811458542 
0.1999999999999943, -0.5024300081282849 
0.2099999999999932, -0.5026595170159692 
0.2199999999999921, -0.5009834778793671 
0.229999999999991, -0.4980870596662837 
0.2399999999999899, -0.4951041058965088 
0.2499999999999888, -0.49276619529029786 
0.2599999999999877, -0.4912353968557011 
0.2699999999999866, -0.49036291692596334 
0.2799999999999855, -0.4899298988388727 
0.2899999999999844, -0.48975390777084193 
0.2999999999999833, -0.4897100349082611 
0.3099999999999822, -0.4897205826370655 
0.3199999999999811, -0.48973940276591943 
0.32999999999998, -0.48973924825813436 
0.3399999999999789, -0.4897034905613854 
0.3499999999999778, -0.48962167175276294 
0.35999999999997667, -0.4894882026319551 
0.36999999999997557, -0.48930352416239414 
0.37999999999997447, -0.48907653764340814 
0.38999999999997337, -0.48882612863804564 
0.39999999999997227, -0.48857917987810995 
0.40999999999997117, -0.4883639066618525 
0.41999999999997006, -0.48820040048645363 
0.42999999999996896, -0.48809262856371083 
0.43999999999996786, -0.4880259228693003 
0.44999999999996676, -0.48797147728108337 
0.45999999999996566, -0.4878958717939522 
0.46999999999996456, -0.48777091662380423 
0.47999999999996346, -0.4875792889057823 
0.48999999999996235, -0.4873146630607933 
0.49999999999996125, -0.4869784060666495 
0.5099999999999602, -0.48657586878711817 
0.519999999999959, -0.4861142574472657 
0.529999999999958, -0.48560277761120546 
0.5399999999999568, -0.48505510386217765 
0.5499999999999557, -0.48449395840545934 
0.5599999999999546, -0.48395664013092066 
0.5699999999999535, -0.4834967430453223 
0.5799999999999524, -0.48316763644853866 
0.5899999999999513, -0.48295589824062973 
0.5999999999999502, -0.48262724877590674 
0.6099999999999491, -0.4815352279606707 
0.619999999999948, -0.47870192089469416 
0.6299999999999469, -0.4735362606692009 
0.6399999999999458, -0.4666620732995367 
0.6499999999999447, -0.45962565397821364 
0.6599999999999436, -0.4537349115345236 
0.6699999999999425, -0.4494542568675852 
0.6799999999999414, -0.44662443145918396 
0.6899999999999403, -0.44486959664897013 
0.6999999999999392, -0.443832657385402 
0.7099999999999381, -0.4432471771246152 
0.719999999999937, -0.44293467952433013 
0.7299999999999359, -0.4427820233134795 
0.7399999999999348, -0.44271967756017194 
0.7499999999999337, -0.4427059008509424 
0.7599999999999326, -0.4427166059544983 
0.7699999999999315, -0.44273961701209086 
0.7799999999999304, -0.4427721032312434 
0.7899999999999293, -0.4428200453931514 
0.7999999999999282, -0.44289830767743094 
0.8099999999999271, -0.4430294422867787 
0.819999999999926, -0.44323940145615603 
0.8299999999999249, -0.44354946789584615 
0.8399999999999238, -0.4439658129366818 
0.8499999999999227, -0.4444704233629423 
0.8599999999999216, -0.4450187033642562 
0.8699999999999205, -0.44554786303320454 
0.8799999999999194, -0.44599434424626117 
0.8899999999999183, -0.44631124861327526 
0.8999999999999172, -0.4464760635873148 
0.9099999999999161, -0.44648662467886097 
0.919999999999915, -0.4463507391282186 
0.9299999999999139, -0.4460756713475261 
0.9399999999999128, -0.44565999961544484 
0.9499999999999117, -0.4450868760120207 
0.9599999999999106, -0.44431594088119414 
0.9699999999999095, -0.4432701540689001 
0.9799999999999084, -0.4418128448904259 
0.9899999999999073, -0.43971093777925024 
0.9999999999999062, -0.4365904552551031 
1.0099999999999052, -0.4319280710633241 
1.019999999999904, -0.42519200995228157 
1.029999999999903, -0.4162354224453095 
1.039999999999902, -0.40572704696001816 
1.0499999999999008, -0.3950408815987051 
1.0599999999998997, -0.3855148837889804 
1.0699999999998986, -0.37783865409077627 
1.0799999999998975, -0.3720480258143688 
1.0899999999998964, -0.36783963256771635 
1.0999999999998953, -0.36483670615372343 
1.1099999999998942, -0.36271265881406306 
1.119999999999893, -0.36122169532877124 
1.129999999999892, -0.36019148015183305 
1.1399999999998909, -0.35950667571781086 
1.1499999999998898, -0.35909403371530196 
1.1599999999998887, -0.3589116980888795 
1.1699999999998876, -0.3589426807989616 
1.1799999999998865, -0.35919187977713796 
1.1899999999998854, -0.3596860485185981 
1.1999999999998843, -0.3604761581905495 
1.2099999999998832, -0.36164120207107386 
1.219999999999882, -0.3632911409421354 
1.229999999999881, -0.36556355359829185 
1.2399999999998799, -0.36860305608764354 
1.2499999999998788, -0.37250736011306096 
1.2599999999998777, -0.3772319760405121 
1.2699999999998766, -0.38249022561173246 
1.2799999999998755, -0.38775393495712096 
1.2899999999998744, -0.39243741667111853 
1.2999999999998733, -0.39615721618426974 
1.3099999999998722, -0.39884241610358345 
1.319999999999871, -0.40064317875778455 
1.32999999999987, -0.401779601379846 
1.3399999999998689, -0.4024464418658157 
1.3499999999998678, -0.4027833327725044 
1.3599999999998666, -0.4028780313071221 
1.3699999999998655, -0.4027780831226814 
1.3799999999998644, -0.40250113545279 
1.3899999999998633, -0.4020424967507184 
1.3999999999998622, -0.4013820636502906 
1.4099999999998611, -0.4004941672812647 
1.41999999999986, -0.3993633353331215 
1.429999999999859, -0.3980044178222076 
1.4399999999998578, -0.39647710252796375 
1.4499999999998567, -0.39488080461642977 
1.4599999999998556, -0.3933269748372178 
1.4699999999998545, -0.3919050066978241 
1.4799999999998534, -0.3906624479618085 
1.4899999999998523, -0.3896057639531017 
1.4999999999998512, -0.3887136500058491 
1.5099999999998501, -0.387952582758669 
1.519999999999849, -0.38728883539430087 
1.529999999999848, -0.38669550384313256 
1.5399999999998468, -0.38615542603655273 
1.5499999999998457, -0.3856618250963402 
1.5599999999998446, -0.38521859557761035 
1.5699999999998435, -0.3848417995967842 
1.5799999999998424, -0.3845636039158967 
1.5899999999998413, -0.3844398262513944 
1.5999999999998402, -0.3845623245595876 
1.6099999999998391, -0.38507684531866915 
1.619999999999838, -0.38620327590754755 
1.629999999999837, -0.3882426900033238 
1.6399999999998358, -0.39152444761004424 
1.6499999999998347, -0.3962010495579221 
1.6599999999998336, -0.40183168549818626 
1.6699999999998325, -0.40704446786862664 
1.6799999999998314, -0.4100673972851305 
1.6899999999998303, -0.4101700522185581 
1.6999999999998292, -0.40824995325158586 
1.709999999999828, -0.4057634294107032 
1.719999999999827, -0.40363732230537275 
1.729999999999826, -0.40213972306289536 
1.7399999999998248, -0.40119736990442617 
1.7499999999998237, -0.40064899260528913 
1.7599999999998226, -0.40035118253421764 
1.7699999999998215, -0.4002020009432548 
1.7799999999998204, -0.4001357667205567 
1.7899999999998193, -0.4001124104948131 
1.7999999999998182, -0.40010867836187264 
1.809999999999817, -0.4001125232868641 
1.819999999999816, -0.4001203642616118 
1.8299999999998149, -0.40013652225074364 
1.8399999999998138, -0.40017385500482733 
1.8499999999998127, -0.40025410690425095 
1.8599999999998116, -0.4004060868750476 
1.8699999999998105, -0.40066013017053537 
1.8799999999998094, -0.40103867624575396 
1.8899999999998083, -0.40154484153482894 
1.8999999999998072, -0.40215316308005084 
1.909999999999806, -0.4028084630406751 
1.919999999999805, -0.4034372282175386 
1.9299999999998039, -0.4039684890594099 
1.9399999999998028, -0.4043528549524059 
1.9499999999998017, -0.40456910667523405 
1.9599999999998006, -0.4046176596847153 
1.9699999999997995, -0.40450806590662297 
1.9799999999997984, -0.4042472585028256 
1.9899999999997973, -0.4038305582220435 
1.9999999999997962, -0.4032338167659084 
2.0099999999998173, -0.4024036060055768 
2.0199999999998384, -0.4012422039407116 
2.0299999999998595, -0.3995856387956854 
2.0399999999998806, -0.39718019168897734 
2.0499999999999017, -0.3936837380408989 
2.059999999999923, -0.38875271639021813 
2.069999999999944, -0.3822689544014484 
2.079999999999965, -0.3746035588455424 
2.089999999999986, -0.36660805985890155 
2.100000000000007, -0.35921237252498683 
2.1100000000000283, -0.35299882345789346 
2.1200000000000494, -0.34810827279240997 
2.1300000000000705, -0.34440068862383544 
2.1400000000000916, -0.34163875748663597 
2.1500000000001127, -0.3395935898045232 
2.160000000000134, -0.3380827745277261 
2.170000000000155, -0.33697449920895156 
2.180000000000176, -0.336180156727204 
2.190000000000197, -0.33564560124741194 
2.2000000000002182, -0.3353446362421502 
2.2100000000002393, -0.3352756874640258 
2.2200000000002604, -0.33546186648689763 
2.2300000000002815, -0.33595462407216764 
2.2400000000003026, -0.3368413421628964 
2.2500000000003237, -0.33825699647678337 
2.260000000000345, -0.340398427571014 
2.270000000000366, -0.3435345058897583 
2.280000000000387, -0.34799256032332815 
2.290000000000408, -0.3540791739616005 
2.3000000000004293, -0.3618828209642615 
2.3100000000004504, -0.37098458482949365 
2.3200000000004715, -0.38033205794438657 
2.3300000000004926, -0.3886223624950381 
2.3400000000005137, -0.39500856778946736 
2.3500000000005348, -0.39941277837854505 
2.360000000000556, -0.40224554076969393 
2.370000000000577, -0.40400403918417294 
2.380000000000598, -0.40507456590090307 
2.390000000000619, -0.4057076758345802 
2.4000000000006403, -0.40605298892462305 
2.4100000000006614, -0.40619580162189656 
2.4200000000006825, -0.4061819269440794 
2.4300000000007036, -0.4060325726573031 
2.4400000000007247, -0.40575361112122266 
2.450000000000746, -0.40534296853088614 
2.460000000000767, -0.4047987260972232 
2.470000000000788, -0.4041286308105586 
2.480000000000809, -0.40335856682743715 
2.49000000000083, -0.40253471504711785 
2.5000000000008513, -0.401715452576894 
2.5100000000008724, -0.40095559015875787 
2.5200000000008935, -0.40029137579079793 
2.5300000000009146, -0.3997335263071428 
2.5400000000009357, -0.3992695878289779 
2.550000000000957, -0.3988724262130092 
2.560000000000978, -0.3985104829550414 
2.570000000000999, -0.3981560891597663 
2.58000000000102, -0.3977897780016173 
2.5900000000010412, -0.3974007279614195 
2.6000000000010624, -0.39698505165563863 
2.6100000000010835, -0.3965438594550371 
2.6200000000011046, -0.39608231525589926 
2.6300000000011257, -0.3956100677755922 
2.6400000000011468, -0.3951426921273252 
2.650000000001168, -0.39470245311903707 
2.660000000001189, -0.39431306645987985 
2.67000000000121, -0.393974008262217 
2.680000000001231, -0.39358318544383863 
2.6900000000012523, -0.3927693480282863 
2.7000000000012734, -0.39068201585631057 
2.7100000000012945, -0.38608524836310565 
2.7200000000013156, -0.37824895291154903 
2.7300000000013367, -0.36806686107649433 
2.740000000001358, -0.35769874149402076 
2.750000000001379, -0.34894982051490725 
2.7600000000014, -0.34243606825315637 
2.770000000001421, -0.3379288642283382 
2.780000000001442, -0.3349271978553394 
2.7900000000014633, -0.33296563230594806 
2.8000000000014844, -0.33169921582265616 
2.8100000000015055, -0.33089561072836604 
2.8200000000015266, -0.33040572930167067 
2.8300000000015477, -0.3301373299225715 
2.840000000001569, -0.3300364805174856 
2.85000000000159, -0.3300760227253287 
2.860000000001611, -0.33024923106666576 
2.870000000001632, -0.33056714133788667 
2.8800000000016532, -0.3310583088370229 
2.8900000000016743, -0.3317696489452864 
2.9000000000016954, -0.33276631607802265 
2.9100000000017165, -0.3341271280848706 
2.9200000000017377, -0.33592995514233864 
2.9300000000017588, -0.33822053338276253 
2.94000000000178, -0.3409643036821103 
2.950000000001801, -0.34400194524457184 
2.960000000001822, -0.34705515205870097 
2.970000000001843, -0.3498136567407085 
2.9800000000018643, -0.35205669558506336 
2.9900000000018854, -0.35371443314169965 
3.0000000000019065, -0.35483818111115994 
3.0100000000019276, -0.35553137606941976 
3.0200000000019487, -0.35589615630752647 
3.03000000000197, -0.3560094015108938 
3.040000000001991, -0.35591788862403717 
3.050000000002012, -0.3556407671957772 
3.060000000002033, -0.35517342066079033 
3.070000000002054, -0.35449187380980507 
3.0800000000020753, -0.3535602802864206 
3.0900000000020964, -0.3523456712115193 
3.1000000000021175, -0.3508417679685816 
3.1100000000021386, -0.34909427332611054 
3.1200000000021597, -0.34720868984239855 
3.130000000002181, -0.3453257538111495 
3.140000000002202, -0.3435754208957097 
3.150000000002223, -0.34204006786221364 
3.160000000002244, -0.3407458274551426 
3.1700000000022652, -0.3396761867373733 
3.1800000000022863, -0.3387922971792689 
3.1900000000023074, -0.3380497981474207 
3.2000000000023285, -0.33740926783463393 
3.2100000000023496, -0.33684110754167107 
3.2200000000023707, -0.3363267889055808 
3.230000000002392, -0.3358585117890639 
3.240000000002413, -0.3354390012579586 
3.250000000002434, -0.33508270122922773 
3.260000000002455, -0.33481925068701535 
3.2700000000024763, -0.33469983083851956 
3.2800000000024974, -0.33480611720652553 
3.2900000000025185, -0.3352582221745481 
3.3000000000025396, -0.33620742204798515 
3.3100000000025607, -0.3377736426182639 
3.3200000000025818, -0.3398503313657047 
3.330000000002603, -0.34173614971208044 
3.340000000002624, -0.34190326756993955 
3.350000000002645, -0.33873637002134627 
3.360000000002666, -0.33219658208882386 
3.3700000000026873, -0.3241889092129389 
3.3800000000027084, -0.3168484971830082 
3.3900000000027295, -0.3111895652059128 
3.4000000000027506, -0.30723024864238785 
3.4100000000027717, -0.3045944461967629 
3.420000000002793, -0.30288137637682255 
3.430000000002814, -0.3017837202393318 
3.440000000002835, -0.3010934059401543 
3.450000000002856, -0.30067790819584433 
3.460000000002877, -0.3004566542729659 
3.4700000000028983, -0.30038421197376686 
3.4800000000029194, -0.300439988593833 
3.4900000000029405, -0.3006228721409439 
3.5000000000029616, -0.30094940525913494 
3.5100000000029827, -0.30145430351589153 
3.520000000003004, -0.3021919547797327 
3.530000000003025, -0.3032367183935966 
3.540000000003046, -0.3046781030760385 
3.550000000003067, -0.3066042542776687 
3.5600000000030882, -0.3090658113419099 
3.5700000000031094, -0.31201984071277084 
3.5800000000031305, -0.31528000295521597 
3.5900000000031516, -0.31852960526539714 
3.6000000000031727, -0.3214292738207861 
3.6100000000031938, -0.32375399739032823 
3.620000000003215, -0.3254497975570763 
3.630000000003236, -0.326588379363193 
3.640000000003257, -0.32728806781761915 
3.650000000003278, -0.32765908650820974 
3.6600000000032993, -0.3277821554467212 
3.6700000000033204, -0.32770638162345983 
3.6800000000033415, -0.3274537898489139 
3.6900000000033626, -0.32702493233227414 
3.7000000000033837, -0.3264051379797862 
3.710000000003405, -0.3255736528135267 
3.720000000003426, -0.32451820395572717 
3.730000000003447, -0.3232538817392033 
3.740000000003468, -0.3218375701801123 
3.750000000003489, -0.3203645503763667 
3.7600000000035103, -0.3189430662741867 
3.7700000000035314, -0.31766108274606786 
3.7800000000035525, -0.31656560611262186 
3.7900000000035736, -0.31566190686559104 
3.8000000000035947, -0.31492559619676797 
3.810000000003616, -0.31431769511263674 
3.820000000003637, -0.31379704136942366 
3.830000000003658, -0.31332818892031383 
3.840000000003679, -0.3128848411466843 
3.8500000000037002, -0.31244990633931236 
3.8600000000037213, -0.312013782009795 
3.8700000000037424, -0.31157228400241443 
3.8800000000037635, -0.31112491423231414 
3.8900000000037847, -0.3106731815248165 
3.9000000000038058, -0.3102172059055974 
3.910000000003827, -0.3097456599181501 
3.920000000003848, -0.30920687178061174 
3.930000000003869, -0.3084358951236427 
3.94000000000389, -0.3070057244734989 
3.9500000000039113, -0.3040386591426069 
3.9600000000039324, -0.29828097183916935 
3.9700000000039535, -0.2889649020298536 
3.9800000000039746, -0.27704245674479766 
3.9900000000039957, -0.26493270342600905 
4.000000000004016, -0.25470375263015727 
4.010000000003993, -0.2470486839950496 
4.02000000000397, -0.24168270479066964 
4.030000000003946, -0.2380232622660528 
4.040000000003923, -0.23554362111983393 
4.0500000000039, -0.2338611997719957 
4.0600000000038765, -0.23272266901849328 
4.070000000003853, -0.23196874586376132 
4.08000000000383, -0.231504791626911 
4.090000000003807, -0.23128151071290404 
4.100000000003783, -0.23128438018340858 
4.11000000000376, -0.23153002430261127 
4.120000000003737, -0.23206859283308257 
4.130000000003713, -0.23299207585856685 
4.14000000000369, -0.23444875920587202 
4.150000000003667, -0.23666237578271015 
4.1600000000036434, -0.2399474020286234 
4.17000000000362, -0.24469234219590175 
4.180000000003597, -0.25124700805563893 
4.1900000000035735, -0.25963685442178697 
4.20000000000355, -0.26918086626662757 
4.210000000003527, -0.2784632222310318 
4.220000000003504, -0.28605620700037004 
4.23000000000348, -0.29137505900872623 
4.240000000003457, -0.29471442469028775 
4.250000000003434, -0.2966945674921855 
4.26000000000341, -0.2978480299039585 
4.270000000003387, -0.2985183183375374 
4.280000000003364, -0.29890139453624764 
4.2900000000033405, -0.2991041017765772 
4.300000000003317, -0.29918422822956114 
4.310000000003294, -0.2991733065471416 
4.320000000003271, -0.2990892839939997 
4.330000000003247, -0.2989443998700507 
4.340000000003224, -0.2987512304208023 
4.350000000003201, -0.29852790538819873 
4.360000000003177, -0.2983017854896246 
4.370000000003154, -0.29810978415743355 
4.380000000003131, -0.2979939084514044 
4.390000000003107, -0.29799251651334907 
4.400000000003084, -0.29812967012517877 
4.410000000003061, -0.2984055778752091 
4.4200000000030375, -0.29879140827611206 
4.430000000003014, -0.2992322733148784 
4.440000000002991, -0.2996602223172896 
4.450000000002968, -0.30001276406858723 
4.460000000002944, -0.30024711427462686 
4.470000000002921, -0.30034318891126277 
4.480000000002898, -0.30029663141912855 
4.490000000002874, -0.30010791625370015 
4.500000000002851, -0.29977208298744723 
4.510000000002828, -0.2992699599247131 
4.520000000002804, -0.2985594113233863 
4.530000000002781, -0.29756502828005227 
4.540000000002758, -0.29616725144206946 
4.5500000000027345, -0.2941992166304019 
4.560000000002711, -0.2914729201188936 
4.570000000002688, -0.2878636021764497 
4.580000000002665, -0.2834437159228373 
4.590000000002641, -0.27856165956788204 
4.600000000002618, -0.2737367478267566 
4.610000000002595, -0.26942253610703437 
4.620000000002571, -0.26584743744477324 
4.630000000002548, -0.2630248830688535 
4.640000000002525, -0.26084945665716297 
4.6500000000025015, -0.2591823120435596 
4.660000000002478, -0.25789659945377774 
4.670000000002455, -0.25689317840673526 
4.6800000000024315, -0.25610197686929614 
4.690000000002408, -0.25547859124452266 
4.700000000002385, -0.2550007158755565 
4.710000000002362, -0.2546664531259516 
4.720000000002338, -0.25449562455951485 
4.730000000002315, -0.25453511085056263 
4.740000000002292, -0.25486950158253574 
4.750000000002268, -0.25563820012376937 
4.760000000002245, -0.25705743234056555 
4.770000000002222, -0.25943397212181324 
4.7800000000021985, -0.26312235617331325 
4.790000000002175, -0.26830722944652297 
4.800000000002152, -0.2744730003137995 
4.810000000002129, -0.2798316724525924 
4.820000000002105, -0.28191447178737705 
4.830000000002082, -0.27977956023058237 
4.840000000002059, -0.275008667875933 
4.850000000002035, -0.2698913483397777 
