t, s[1].omega / s[0].omega 
0, -1.100098074083386 
0.009999999999999995, -1.1089101839581295 
0.019999999999999934, -1.115527748651258 
0.029999999999999874, -1.1200419455364974 
0.04000000000000012, -1.122868703304007 
0.050000000000000405, -1.1244870279612877 
0.06000000000000069, -1.125294406139439 
0.07000000000000098, -1.125568771427627 
0.08000000000000126, -1.1254862761128073 
0.09000000000000155, -1.1251572600328172 
0.10000000000000184, -1.1246672474802073 
0.11000000000000212, -1.124124086685694 
0.12000000000000241, -1.1237090931794056 
0.130000000000002, -1.123705046761961 
0.1400000000000009, -1.1244467103377087 
0.1499999999999998, -1.1261750658099963 
0.1599999999999987, -1.1288904100147796 
0.1699999999999976, -1.1323391270267316 
0.1799999999999965, -1.136135899749074 
0.1899999999999954, -1.139902901191954 
0.1999999999999943, -1.1433447394814382 
0.2099999999999932, -1.1462654140187927 
0.2199999999999921, -1.1485626642737117 
0.229999999999991, -1.1502178702743053 
0.2399999999999899, -1.151280134517717 
0.2499999999999888, -1.151841089654067 
0.2599999999999877, -1.1520064702679294 
0.2699999999999866, -1.1518757542617766 
0.2799999999999855, -1.1515366251041566 
0.2899999999999844, -1.1510732546134093 
0.2999999999999833, -1.1505812362323378 
0.3099999999999822, -1.1501761379323783 
0.3199999999999811, -1.1499802490340445 
0.32999999999998, -1.1500852751222237 
0.3399999999999789, -1.150515394012236 
0.3499999999999778, -1.1512213682043009 
0.35999999999997667, -1.15210695864216 
0.36999999999997557, -1.1530633365439928 
0.37999999999997447, -1.1539927897170552 
0.38999999999997337, -1.154818900641216 
0.39999999999997227, -1.1554874263651147 
0.40999999999997117, -1.1559626763601047 
0.41999999999997006, -1.1562232051898542 
0.42999999999996896, -1.1562591270613276 
0.43999999999996786, -1.1560715746762604 
0.44999999999996676, -1.1556733885556425 
0.45999999999996566, -1.155089942123975 
0.46999999999996456, -1.154360063256733 
0.47999999999996346, -1.1535373943765488 
0.48999999999996235, -1.1526906343163186 
0.49999999999996125, -1.1518988023327823 
0.5099999999999602, -1.1512391207994437 
0.519999999999959, -1.1507703318015197 
0.529999999999958, -1.1505173077647537 
0.5399999999999568, -1.1504621465607963 
0.5499999999999557, -1.1505468128317549 
0.5599999999999546, -1.150688972634041 
0.5699999999999535, -1.1508028082401176 
0.5799999999999524, -1.1508126498371682 
0.5899999999999513, -1.1506558332333483 
0.5999999999999502, -1.1502806053123196 
0.6099999999999491, -1.1496457971757508 
0.619999999999948, -1.1487240527551832 
0.6299999999999469, -1.1475059035256234 
0.6399999999999458, -1.1460016839921312 
0.6499999999999447, -1.1442415946233784 
0.6599999999999436, -1.1422769565636965 
0.6699999999999425, -1.1401847527023734 
0.6799999999999414, -1.1380736420978483 
0.6899999999999403, -1.1360847066253945 
0.6999999999999392, -1.134375826680905 
0.7099999999999381, -1.1330807808230656 
0.719999999999937, -1.1322538443576124 
0.7299999999999359, -1.1318390405590115 
0.7399999999999348, -1.1316963267435898 
0.7499999999999337, -1.1316640509273082 
0.7599999999999326, -1.1316059918392498 
0.7699999999999315, -1.1314190667856612 
0.7799999999999304, -1.1310145640518932 
0.7899999999999293, -1.1302935730725847 
0.7999999999999282, -1.1291296293199111 
0.8099999999999271, -1.1273670652329053 
0.819999999999926, -1.1248425508243338 
0.8299999999999249, -1.1214309403893838 
0.8399999999999238, -1.1171023863795426 
0.8499999999999227, -1.1119687223744668 
0.8599999999999216, -1.1063053057176724 
0.8699999999999205, -1.1005450545163251 
0.8799999999999194, -1.095230522894748 
0.8899999999999183, -1.090893716240406 
0.8999999999999172, -1.0878706579823818 
0.9099999999999161, -1.086157611615557 
0.919999999999915, -1.085443593454328 
0.9299999999999139, -1.085301984719201 
0.9399999999999128, -1.0853746061239165 
0.9499999999999117, -1.0854363552189725 
0.9599999999999106, -1.0853648330614873 
0.9699999999999095, -1.085082238801438 
0.9799999999999084, -1.0845044500623868 
0.9899999999999073, -1.083500300507444 
0.9999999999999062, -1.0818555291053427 
1.0099999999999052, -1.079244737527488 
1.019999999999904, -1.0752355279433086 
1.029999999999903, -1.0693713283950055 
1.039999999999902, -1.061369590854057 
1.0499999999999008, -1.0513911804743776 
1.0599999999998997, -1.040220384645349 
1.0699999999998986, -1.0291711151824858 
1.0799999999998975, -1.0196743033802849 
1.0899999999998964, -1.0127253099811848 
1.0999999999998953, -1.0085242810615336 
1.1099999999998942, -1.0065511274993966 
1.119999999999893, -1.0059756655925474 
1.129999999999892, -1.006059982149296 
1.1399999999998909, -1.0063288314034415 
1.1499999999998898, -1.0065410110254907 
1.1599999999998887, -1.0065926429747198 
1.1699999999998876, -1.0064333763730324 
1.1799999999998865, -1.0060118539487637 
1.1899999999998854, -1.0052392064705082 
1.1999999999998843, -1.003957364070074 
1.2099999999998832, -1.0019074058105613 
1.219999999999882, -0.998709512557371 
1.229999999999881, -0.9938915462591315 
1.2399999999998799, -0.9870213411577706 
1.2499999999998788, -0.9779582249718842 
1.2599999999998777, -0.9671124619407498 
1.2699999999998766, -0.9554976307227431 
1.2799999999998755, -0.9444593364797738 
1.2899999999998744, -0.9352095712835243 
1.2999999999998733, -0.9284317082467506 
1.3099999999998722, -0.9241507531289758 
1.319999999999871, -0.9218891068799548 
1.32999999999987, -0.9209690826248638 
1.3399999999998689, -0.9207756614130629 
1.3499999999998678, -0.9208776203438107 
1.3599999999998666, -0.9210243637805295 
1.3699999999998655, -0.9210877075325301 
1.3799999999998644, -0.9210010870656158 
1.3899999999998633, -0.9207149848539871 
1.3999999999998622, -0.9201676139011115 
1.4099999999998611, -0.9192655970931373 
1.41999999999986, -0.9178737149953576 
1.429999999999859, -0.915820806702877 
1.4399999999998578, -0.9129345963210532 
1.4499999999998567, -0.9091097839059191 
1.4599999999998556, -0.9043842256758795 
1.4699999999998545, -0.8989720226851355 
1.4799999999998534, -0.8932232837839275 
1.4899999999998523, -0.887537242034227 
1.4999999999998512, -0.8822808594371712 
1.5099999999998501, -0.8777385526342047 
1.519999999999849, -0.8740866353262533 
1.529999999999848, -0.8713814077351355 
1.5399999999998468, -0.8695620679223236 
1.5499999999998457, -0.8684755859755693 
1.5599999999998446, -0.8679213452784861 
1.5699999999998435, -0.8676993655187534 
1.5799999999998424, -0.8676434503611293 
1.5899999999998413, -0.8676317530755954 
1.5999999999998402, -0.8675800194133633 
1.6099999999998391, -0.8674276931152136 
1.619999999999838, -0.8671251695073927 
1.629999999999837, -0.8666270034066637 
1.6399999999998358, -0.8658933151504968 
1.6499999999998347, -0.864898836300023 
1.6599999999998336, -0.8636445465708471 
1.6699999999998325, -0.8621632177993723 
1.6799999999998314, -0.8605130495174498 
1.6899999999998303, -0.8587628217708101 
1.6999999999998292, -0.8569782965734598 
1.709999999999828, -0.8552165967315796 
1.719999999999827, -0.8535278968594602 
1.729999999999826, -0.8519595370967714 
1.7399999999998248, -0.850558085115338 
1.7499999999998237, -0.8493673052996685 
1.7599999999998226, -0.8484223762132503 
1.7699999999998215, -0.8477424898086057 
1.7799999999998204, -0.8473249951852753 
1.7899999999998193, -0.8471440405844166 
1.7999999999998182, -0.8471548865063256 
1.809999999999817, -0.84730239031071 
1.819999999999816, -0.8475303264922376 
1.8299999999998149, -0.8477885241247982 
1.8399999999998138, -0.8480367393088086 
1.8499999999998127, -0.8482459032908085 
1.8599999999998116, -0.8483976452956974 
1.8699999999998105, -0.8484822004849157 
1.8799999999998094, -0.8484945409499867 
1.8899999999998083, -0.848429779481447 
1.8999999999998072, -0.8482804383832182 
1.909999999999806, -0.8480377413329057 
1.919999999999805, -0.8476963152455209 
1.9299999999998039, -0.8472592517241886 
1.9399999999998028, -0.8467409734635147 
1.9499999999998017, -0.8461679364518722 
1.9599999999998006, -0.8455788142212631 
1.9699999999997995, -0.845025014701795 
1.9799999999997984, -0.8445703536555953 
1.9899999999997973, -0.8442874458351497 
1.9999999999997962, -0.8442492215951576 
2.0099999999998173, -0.8445168700938999 
2.0199999999998384, -0.8451284964843346 
2.0299999999998595, -0.8460931663577677 
2.0399999999998806, -0.8473920957480641 
2.0499999999999017, -0.8489847667049168 
2.059999999999923, -0.8508155076684867 
2.069999999999944, -0.8528165647973613 
2.079999999999965, -0.854906392184214 
2.089999999999986, -0.8569860438315686 
2.100000000000007, -0.8589406684768208 
2.1100000000000283, -0.8606533161159616 
2.1200000000000494, -0.8620302898421708 
2.1300000000000705, -0.8630248534770049 
2.1400000000000916, -0.8636432813733105 
2.1500000000001127, -0.8639304665318251 
2.160000000000134, -0.8639472797780998 
2.170000000000155, -0.8637535558097873 
2.180000000000176, -0.8634026797888152 
2.190000000000197, -0.8629473865708019 
2.2000000000002182, -0.8624550228350097 
2.2100000000002393, -0.862030796128159 
2.2200000000002604, -0.8618451580959047 
2.2300000000002815, -0.8621544933806714 
2.2400000000003026, -0.8632960221174517 
2.2500000000003237, -0.8656382802247444 
2.260000000000345, -0.8694863929056013 
2.270000000000366, -0.874968640859511 
2.280000000000387, -0.8819452633455047 
2.290000000000408, -0.8899741659495142 
2.3000000000004293, -0.8983584380066418 
2.3100000000004504, -0.9062924084677286 
2.3200000000004715, -0.9130836600556271 
2.3300000000004926, -0.9183512222540099 
2.3400000000005137, -0.9220778980127513 
2.3500000000005348, -0.9245004452129765 
2.360000000000556, -0.9259429307398905 
2.370000000000577, -0.9266978178799941 
2.380000000000598, -0.9269799882693951 
2.390000000000619, -0.9269273562691991 
2.4000000000006403, -0.9266188715092213 
2.4100000000006614, -0.9260960979875146 
2.4200000000006825, -0.9253882451481299 
2.4300000000007036, -0.9245497401784053 
2.4400000000007247, -0.9237249223903763 
2.450000000000746, -0.9232499166421834 
2.460000000000767, -0.9237697033040462 
2.470000000000788, -0.9262759315383245 
2.480000000000809, -0.9319025240299785 
2.49000000000083, -0.9413875510935776 
2.5000000000008513, -0.9544152892833303 
2.5100000000008724, -0.9693774166851643 
2.5200000000008935, -0.9839531524354672 
2.5300000000009146, -0.9961908227034156 
2.5400000000009357, -1.0052406902093056 
2.550000000000957, -1.0112889495372634 
2.560000000000978, -1.0150279570627 
2.570000000000999, -1.0171897050320546 
2.58000000000102, -1.0183373591998905 
2.5900000000010412, -1.018839907268296 
2.6000000000010624, -1.0189150842240449 
2.6100000000010835, -1.0186786756311925 
2.6200000000011046, -1.018183278707487 
2.6300000000011257, -1.01745149855426 
2.6400000000011468, -1.0165197508373303 
2.650000000001168, -1.015517039249805 
2.660000000001189, -1.0147988401469166 
2.67000000000121, -1.0151049973285873 
2.680000000001231, -1.0175854251795011 
2.6900000000012523, -1.0234464971500168 
2.7000000000012734, -1.033196175855147 
2.7100000000012945, -1.046006818009333 
2.7200000000013156, -1.059878382509197 
2.7300000000013367, -1.0725986794546452 
2.740000000001358, -1.0827239960768211 
2.750000000001379, -1.0898965067855053 
2.7600000000014, -1.0945245468930485 
2.770000000001421, -1.0972874574859728 
2.780000000001442, -1.0988065161286535 
2.7900000000014633, -1.0995304647069406 
2.8000000000014844, -1.099743329080224 
2.8100000000015055, -1.0996104300493843 
2.8200000000015266, -1.0992257465649868 
2.8300000000015477, -1.09865678251179 
2.840000000001569, -1.097997989765663 
2.85000000000159, -1.0974427012677674 
2.860000000001611, -1.0973553369820117 
2.870000000001632, -1.0982670695315973 
2.8800000000016532, -1.1007000810760053 
2.8900000000016743, -1.1048667173748123 
2.9000000000016954, -1.110487066700857 
2.9100000000017165, -1.116896238010455 
2.9200000000017377, -1.1233237248214374 
2.9300000000017588, -1.129128978056039 
2.94000000000178, -1.1339111224098974 
2.950000000001801, -1.1375215284862281 
2.960000000001822, -1.1400170670873544 
2.970000000001843, -1.1415790622738808 
2.9800000000018643, -1.1424280039804966 
2.9900000000018854, -1.1427633524209793 
3.0000000000019065, -1.142739147917541 
3.0100000000019276, -1.142468164153991 
3.0200000000019487, -1.1420430493298153 
3.03000000000197, -1.1415657311245848 
3.040000000001991, -1.141174042118073 
3.050000000002012, -1.1410440655097358 
3.060000000002033, -1.1413465113411307 
3.070000000002054, -1.1421715731154496 
3.0800000000020753, -1.1434821550565746 
3.0900000000020964, -1.1451367317145231 
3.1000000000021175, -1.1469542389498897 
3.1100000000021386, -1.1487684394572886 
3.1200000000021597, -1.1504508083281597 
3.130000000002181, -1.1519110298823267 
3.140000000002202, -1.1530899246634077 
3.150000000002223, -1.1539538384575876 
3.160000000002244, -1.1544927101278346 
3.1700000000022652, -1.1547192048335433 
3.1800000000022863, -1.154665450401526 
3.1900000000023074, -1.1543773102741954 
3.2000000000023285, -1.1539098771800178 
3.2100000000023496, -1.1533275005229044 
3.2200000000023707, -1.1527068184933562 
3.230000000002392, -1.1521356557178215 
3.240000000002413, -1.1517004877401118 
3.250000000002434, -1.151464612667577 
3.260000000002455, -1.1514500961005636 
3.2700000000024763, -1.1516342067132608 
3.2800000000024974, -1.1519590513978426 
3.2900000000025185, -1.1523476228148701 
3.3000000000025396, -1.1527205650034782 
3.3100000000025607, -1.1530085862567514 
3.3200000000025818, -1.1531577965371471 
3.330000000002603, -1.1531297574814237 
3.340000000002624, -1.1528998244586897 
3.350000000002645, -1.1524556254048597 
3.360000000002666, -1.1517957800778889 
3.3700000000026873, -1.150929079207308 
3.3800000000027084, -1.1498750206420012 
3.3900000000027295, -1.1486663013454224 
3.4000000000027506, -1.1473526516202002 
3.4100000000027717, -1.146003923684821 
3.420000000002793, -1.144709125545743 
3.430000000002814, -1.143567665158626 
3.440000000002835, -1.1426698488815334 
3.450000000002856, -1.1420681265442953 
3.460000000002877, -1.14175197101001 
3.4700000000028983, -1.1416470178799938 
3.4800000000029194, -1.1416432460403556 
3.4900000000029405, -1.1416299439389006 
3.5000000000029616, -1.141513081618648 
3.5100000000029827, -1.1412121320904107 
3.520000000003004, -1.1406487543464867 
3.530000000003025, -1.1397400221526155 
3.540000000003046, -1.138403028363824 
3.550000000003067, -1.13657085145806 
3.5600000000030882, -1.1342129923481596 
3.5700000000031094, -1.131350891001166 
3.5800000000031305, -1.1280650336951976 
3.5900000000031516, -1.1244985197597035 
3.6000000000031727, -1.1208612854448137 
3.6100000000031938, -1.117426222172005 
3.620000000003215, -1.114493288721018 
3.630000000003236, -1.1123040531554274 
3.640000000003257, -1.1109379305943379 
3.650000000003278, -1.1102737624206154 
3.6600000000032993, -1.1100626220544396 
3.6700000000033204, -1.1100483302808093 
3.6800000000033415, -1.110040684307003 
3.6900000000033626, -1.1099177466809154 
3.7000000000033837, -1.1095909487940232 
3.710000000003405, -1.1089648719771315 
3.720000000003426, -1.1079030337696145 
3.730000000003447, -1.1062028497313359 
3.740000000003468, -1.1035893902602099 
3.750000000003489, -1.0997490884292076 
3.7600000000035103, -1.094423697146903 
3.7700000000035314, -1.0875540918377316 
3.7800000000035525, -1.079415430914431 
3.7900000000035736, -1.0706649848064387 
3.8000000000035947, -1.0622472285986109 
3.810000000003616, -1.0551421825258414 
3.820000000003637, -1.0500196546691696 
3.830000000003658, -1.046985138083068 
3.840000000003679, -1.0456173294176332 
3.8500000000037002, -1.045268295269581 
3.8600000000037213, -1.0453704021282229 
3.8700000000037424, -1.0455632276614524 
3.8800000000037635, -1.045664038693029 
3.8900000000037847, -1.0455871890926007 
3.9000000000038058, -1.0452749473473184 
3.910000000003827, -1.0446496153769327 
3.920000000003848, -1.0435762339983865 
3.930000000003869, -1.041826400677005 
3.94000000000389, -1.039046476205341 
3.9500000000039113, -1.0347575565799632 
3.9600000000039324, -1.0284435141635027 
3.9700000000039535, -1.0197778691021997 
3.9800000000039746, -1.008941200534263 
3.9900000000039957, -0.9968226818226069 
4.000000000004016, -0.9848746932548194 
4.010000000003993, -0.974612801657541 
4.02000000000397, -0.9670368024612357 
4.030000000003946, -0.9623249217803819 
4.040000000003923, -0.9599571187927319 
4.0500000000039, -0.9591142806173629 
4.0600000000038765, -0.9590515180492687 
4.070000000003853, -0.9592660517473084 
4.08000000000383, -0.9594850910608622 
4.090000000003807, -0.9595825381176292 
4.100000000003783, -0.9594996966166323 
4.11000000000376, -0.9591913099710034 
4.120000000003737, -0.9585910041157643 
4.130000000003713, -0.9575857415720511 
4.14000000000369, -0.9559948455711785 
4.150000000003667, -0.953560773491356 
4.1600000000036434, -0.9499739773112875 
4.17000000000362, -0.9449601871689112 
4.180000000003597, -0.9384279796243394 
4.1900000000035735, -0.9306046706492458 
4.20000000000355, -0.9220533809978153 
4.210000000003527, -0.9135379238912714 
4.220000000003504, -0.9058134944995212 
4.23000000000348, -0.8994448098841282 
4.240000000003457, -0.894703078051266 
4.250000000003434, -0.891553189376036 
4.26000000000341, -0.8897247177920058 
4.270000000003387, -0.8888353271708194 
4.280000000003364, -0.888511729499762 
4.2900000000033405, -0.8884623996791168 
4.300000000003317, -0.8884931823110088 
4.310000000003294, -0.8884865967562098 
4.320000000003271, -0.8883700979789697 
4.330000000003247, -0.8880881275828706 
4.340000000003224, -0.8875828180040957 
4.350000000003201, -0.8867845379048298 
4.360000000003177, -0.8856143617006685 
4.370000000003154, -0.8840011032184367 
4.380000000003131, -0.8819102288472713 
4.390000000003107, -0.8793706453324909 
4.400000000003084, -0.8764800371744709 
4.410000000003061, -0.8733827555806248 
4.4200000000030375, -0.8702356625589871 
4.430000000003014, -0.8671825712298373 
4.440000000002991, -0.8643445457780288 
4.450000000002968, -0.8618196692349812 
4.460000000002944, -0.8596829111676684 
4.470000000002921, -0.8579814298380839 
4.480000000002898, -0.8567269261451834 
4.490000000002874, -0.8558908160597335 
4.500000000002851, -0.8554078644152584 
4.510000000002828, -0.855189240621973 
4.520000000002804, -0.8551399730636801 
4.530000000002781, -0.8551734693719049 
4.540000000002758, -0.855218723296636 
4.5500000000027345, -0.855220817455568 
4.560000000002711, -0.8551384361407619 
4.570000000002688, -0.8549421331260486 
4.580000000002665, -0.8546149393125522 
4.590000000002641, -0.8541539480622831 
4.600000000002618, -0.8535697161453759 
4.610000000002595, -0.8528816262170512 
4.620000000002571, -0.852111111897665 
4.630000000002548, -0.8512769680723489 
4.640000000002525, -0.8503953069662673 
4.6500000000025015, -0.8494831680086866 
4.660000000002478, -0.8485629293436115 
4.670000000002455, -0.8476652790929602 
4.6800000000024315, -0.8468297948926697 
4.690000000002408, -0.8461027504953151 
4.700000000002385, -0.8455319711002176 
4.710000000002362, -0.8451593370466195 
4.720000000002338, -0.8450128710138844 
4.730000000002315, -0.8451011563023597 
4.740000000002292, -0.8454122024680517 
4.750000000002268, -0.845917046422944 
4.760000000002245, -0.8465764700023997 
4.770000000002222, -0.8473482243916945 
4.7800000000021985, -0.8481923387927504 
4.790000000002175, -0.8490730384043177 
4.800000000002152, -0.8499569952792807 
4.810000000002129, -0.8508090662400536 
4.820000000002105, -0.8515884426512231 
4.830000000002082, -0.8522492311823113 
4.840000000002059, -0.8527477108571488 
4.850000000002035, -0.8530534552926264 
4.860000000002012, -0.8531574218277023 
4.870000000001989, -0.8530721546656442 
4.880000000001965, -0.8528258451713551 
4.890000000001942, -0.8524562305701682 
4.900000000001919, -0.8520092145904554 
4.9100000000018955, -0.8515434968931788 
4.920000000001872, -0.8511392502881414 
4.930000000001849, -0.8509062287251183 
