t, s[1].omega / s[0].omega 
0, -0.6599977075746467 
0.009999999999999995, -0.6597717328724532 
0.019999999999999934, -0.6595442249090067 
0.029999999999999874, -0.6592952857416349 
0.04000000000000012, -0.6590026436378317 
0.050000000000000405, -0.6586511815078282 
0.06000000000000069, -0.6582382360229753 
0.07000000000000098, -0.6577745067740295 
0.08000000000000126, -0.6572835610525234 
0.09000000000000155, -0.6568031668485945 
0.10000000000000184, -0.6563901872780598 
0.11000000000000212, -0.6561292386936395 
0.12000000000000241, -0.6561442651039263 
0.130000000000002, -0.6566113296983015 
0.1400000000000009, -0.6577699871098144 
0.1499999999999998, -0.6599293543509954 
0.1599999999999987, -0.66346270170245 
0.1699999999999976, -0.6687793338462862 
0.1799999999999965, -0.6762534780492715 
0.1899999999999954, -0.6860825115223784 
0.1999999999999943, -0.6980668537018762 
0.2099999999999932, -0.71139650218948 
0.2199999999999921, -0.7246750149988792 
0.229999999999991, -0.7363778657595108 
0.2399999999999899, -0.745516810675847 
0.2499999999999888, -0.751944581228092 
0.2599999999999877, -0.7561143378726929 
0.2699999999999866, -0.7586570683865118 
0.2799999999999855, -0.7601146120688578 
0.2899999999999844, -0.7608640508508584 
0.2999999999999833, -0.7611363575840783 
0.3099999999999822, -0.7610546292265308 
0.3199999999999811, -0.7606622899869124 
0.32999999999998, -0.7599343999186161 
0.3399999999999789, -0.7587708307350282 
0.3499999999999778, -0.7569685758912812 
0.35999999999997667, -0.7541677784432619 
0.36999999999997557, -0.7497692845660151 
0.37999999999997447, -0.7428494939002308 
0.38999999999997337, -0.7321884726659447 
0.39999999999997227, -0.7166751302394334 
0.40999999999997117, -0.6962788977585995 
0.41999999999997006, -0.6729771395347174 
0.42999999999996896, -0.650258914673386 
0.43999999999996786, -0.6311977555673354 
0.44999999999996676, -0.617071731621665 
0.45999999999996566, -0.6075512323296416 
0.46999999999996456, -0.6015850701013037 
0.47999999999996346, -0.5980686824068288 
0.48999999999996235, -0.5961195094232874 
0.49999999999996125, -0.5951172731698081 
0.5099999999999602, -0.594656675449994 
0.519999999999959, -0.5944848989345682 
0.529999999999958, -0.5944488547824263 
0.5399999999999568, -0.5944569614771968 
0.5499999999999557, -0.5944537133963141 
0.5599999999999546, -0.5944041414145155 
0.5699999999999535, -0.5942858320512536 
0.5799999999999524, -0.5940868166301675 
0.5899999999999513, -0.5938074080756122 
0.5999999999999502, -0.5934627136100545 
0.6099999999999491, -0.5930814369878792 
0.619999999999948, -0.5926982167796568 
0.6299999999999469, -0.5923414959681154 
0.6399999999999458, -0.5920229836996904 
0.6499999999999447, -0.5917343448386418 
0.6599999999999436, -0.5914525248827182 
0.6699999999999425, -0.5911504097108051 
0.6799999999999414, -0.5908071567325673 
0.6899999999999403, -0.5904139690404608 
0.6999999999999392, -0.5899750842500171 
0.7099999999999381, -0.5895069284645118 
0.719999999999937, -0.5890388868161527 
0.7299999999999359, -0.5886180498619477 
0.7399999999999348, -0.5883193587103374 
0.7499999999999337, -0.5882623857506404 
0.7599999999999326, -0.5886361515322394 
0.7699999999999315, -0.5897330464570298 
0.7799999999999304, -0.5919905768609547 
0.7899999999999293, -0.5960318485931505 
0.7999999999999282, -0.6026753031585932 
0.8099999999999271, -0.6128423936843064 
0.819999999999926, -0.627241142229576 
0.8299999999999249, -0.6457474770072852 
0.8399999999999238, -0.6667612692723226 
0.8499999999999227, -0.6873571646566574 
0.8599999999999216, -0.7046779701390524 
0.8699999999999205, -0.7174052363104417 
0.8799999999999194, -0.725870083230341 
0.8899999999999183, -0.7311587346415049 
0.8999999999999172, -0.7343432023755991 
0.9099999999999161, -0.7362028054312059 
0.919999999999915, -0.737231511384491 
0.9299999999999139, -0.7377195712220138 
0.9399999999999128, -0.7378242175652072 
0.9499999999999117, -0.7376131017591313 
0.9599999999999106, -0.7370837582379266 
0.9699999999999095, -0.7361635412869697 
0.9799999999999084, -0.7346920248353699 
0.9899999999999073, -0.7323884416184344 
0.9999999999999062, -0.7288179970101019 
1.0099999999999052, -0.723403284286743 
1.019999999999904, -0.715572037209229 
1.029999999999903, -0.7051050311773862 
1.039999999999902, -0.6925207250076995 
1.0499999999999008, -0.6790827413273022 
1.0599999999998997, -0.6662750088193994 
1.0699999999998986, -0.6551884474353677 
1.0799999999998975, -0.6462893417787161 
1.0899999999998964, -0.6395505370052754 
1.0999999999998953, -0.6346850893577016 
1.1099999999998942, -0.6313223611659693 
1.119999999999893, -0.6291022295018104 
1.129999999999892, -0.6277141661326999 
1.1399999999998909, -0.6269079158437552 
1.1499999999998898, -0.6264912896434689 
1.1599999999998887, -0.6263224715132499 
1.1699999999998876, -0.6263003610647632 
1.1799999999998865, -0.6263549702589907 
1.1899999999998854, -0.6264392661136147 
1.1999999999998843, -0.6265233901620741 
1.2099999999998832, -0.6265915588120261 
1.219999999999882, -0.626640928123223 
1.229999999999881, -0.6266803995840969 
1.2399999999998799, -0.6267266828688531 
1.2499999999998788, -0.6267962621137393 
1.2599999999998777, -0.6268951992088208 
1.2699999999998766, -0.6270116599511327 
1.2799999999998755, -0.6271160321396032 
1.2899999999998744, -0.6271697631996457 
1.2999999999998733, -0.6271384991657476 
1.3099999999998722, -0.6270022036643543 
1.319999999999871, -0.6267578920059863 
1.32999999999987, -0.6264166093585823 
1.3399999999998689, -0.6259996314764286 
1.3499999999998678, -0.6255381615033914 
1.3599999999998666, -0.6250788349274886 
1.3699999999998655, -0.6246964544328804 
1.3799999999998644, -0.6245156877074277 
1.3899999999998633, -0.6247439610832786 
1.3999999999998622, -0.6257170442372624 
1.4099999999998611, -0.6279544467463675 
1.41999999999986, -0.6322087293904317 
1.429999999999859, -0.639462096955282 
1.4399999999998578, -0.6507687012032524 
1.4499999999998567, -0.6667982533569256 
1.4599999999998556, -0.6870703597725843 
1.4699999999998545, -0.709387644166185 
1.4799999999998534, -0.7304187108857398 
1.4899999999998523, -0.7474368939771922 
1.4999999999998512, -0.7595659857378316 
1.5099999999998501, -0.7674700633935143 
1.519999999999849, -0.772344675179439 
1.529999999999848, -0.7752490956932753 
1.5399999999998468, -0.7769209207451487 
1.5499999999998457, -0.7778182617966856 
1.5599999999998446, -0.7782060749598787 
1.5699999999998435, -0.778223247384237 
1.5799999999998424, -0.7779214266206617 
1.5899999999998413, -0.7772797513017231 
1.5999999999998402, -0.7761987554421673 
1.6099999999998391, -0.7744733552713039 
1.619999999999838, -0.771744859071249 
1.629999999999837, -0.7674448992658982 
1.6399999999998358, -0.760787381781648 
1.6499999999998347, -0.7509389255521145 
1.6599999999998336, -0.7374976559822777 
1.6699999999998325, -0.721105467881314 
1.6799999999998314, -0.7035582919364326 
1.6899999999998303, -0.6870461914927442 
1.6999999999998292, -0.6731603599000439 
1.709999999999828, -0.6624965379195433 
1.719999999999827, -0.6548780437424917 
1.729999999999826, -0.649755589871729 
1.7399999999998248, -0.6465009694973681 
1.7499999999998237, -0.6445538134696382 
1.7599999999998226, -0.6434711208205208 
1.7699999999998215, -0.6429281987945334 
1.7799999999998204, -0.6426998453969219 
1.7899999999998193, -0.6426362409794353 
1.7999999999998182, -0.6426403272689833 
1.809999999999817, -0.642649586047684 
1.819999999999816, -0.6426232147037213 
1.8299999999998149, -0.6425348039623688 
1.8399999999998138, -0.6423700169460095 
1.8499999999998127, -0.6421276945580301 
1.8599999999998116, -0.641821144845857 
1.8699999999998105, -0.6414755559073466 
1.8799999999998094, -0.6411196540007433 
1.8899999999998083, -0.6407744434670601 
1.8999999999998072, -0.6404450476787846 
1.909999999999806, -0.6401202253619032 
1.919999999999805, -0.639779436475145 
1.9299999999998039, -0.6394030725177382 
1.9399999999998028, -0.638980569035194 
1.9499999999998017, -0.6385139445995478 
1.9599999999998006, -0.6380181535310316 
1.9699999999997995, -0.6375214276105672 
1.9799999999997984, -0.6370681496078817 
1.9899999999997973, -0.6367253381657901 
1.9999999999997962, -0.6365926875782673 
2.0099999999998173, -0.6368153654010464 
2.0199999999998384, -0.6375980637969063 
2.0299999999998595, -0.6392177608523377 
2.0399999999998806, -0.642030636834918 
2.0499999999999017, -0.6464640870444601 
2.059999999999923, -0.6529754806026475 
2.069999999999944, -0.6619457342494518 
2.079999999999965, -0.6734732676092838 
2.089999999999986, -0.6870899171223782 
2.100000000000007, -0.7015818679662543 
2.1100000000000283, -0.715234472884862 
2.1200000000000494, -0.7265508197934083 
2.1300000000000705, -0.7348930713862247 
2.1400000000000916, -0.740493813079415 
2.1500000000001127, -0.7440065829951961 
2.160000000000134, -0.7460943091157507 
2.170000000000155, -0.7472555074735652 
2.180000000000176, -0.7478120950492528 
2.190000000000197, -0.7479500215515368 
2.2000000000002182, -0.7477585759684471 
2.2100000000002393, -0.7472529793541397 
2.2200000000002604, -0.7463782824802303 
2.2300000000002815, -0.7449935496835555 
2.2400000000003026, -0.7428326465292393 
2.2500000000003237, -0.7394380244648686 
2.260000000000345, -0.7340795980449879 
2.270000000000366, -0.7257302712739783 
2.280000000000387, -0.7132888176772072 
2.290000000000408, -0.6962716702722045 
2.3000000000004293, -0.6757254871413714 
2.3100000000004504, -0.6543130374987037 
2.3200000000004715, -0.6350093872724241 
2.3300000000004926, -0.6196256728288421 
2.3400000000005137, -0.6084771644006853 
2.3500000000005348, -0.6009510855264313 
2.360000000000556, -0.5961455317253684 
2.370000000000577, -0.5932258497754997 
2.380000000000598, -0.59154310146644 
2.390000000000619, -0.5906359407970794 
2.4000000000006403, -0.5901936326196997 
2.4100000000006614, -0.5900143496610493 
2.4200000000006825, -0.5899701549683996 
2.4300000000007036, -0.5899809137406286 
2.4400000000007247, -0.5899963904298098 
2.450000000000746, -0.5899851919492328 
2.460000000000767, -0.5899293203264613 
2.470000000000788, -0.5898229737437355 
2.480000000000809, -0.5896733817827853 
2.49000000000083, -0.5895002941127887 
2.5000000000008513, -0.5893309192328327 
2.5100000000008724, -0.5891899806738283 
2.5200000000008935, -0.5890886730556602 
2.5300000000009146, -0.589018233070677 
2.5400000000009357, -0.5889519581414573 
2.550000000000957, -0.588854996409389 
2.560000000000978, -0.5886967248030698 
2.570000000000999, -0.5884593739245388 
2.58000000000102, -0.5881400968132416 
2.5900000000010412, -0.587748648562471 
2.6000000000010624, -0.5873050400066456 
2.6100000000010835, -0.5868406795793989 
2.6200000000011046, -0.5864050866047358 
2.6300000000011257, -0.586079902894008 
2.6400000000011468, -0.5860026411654718 
2.650000000001168, -0.5864035559850979 
2.660000000001189, -0.5876587254257611 
2.67000000000121, -0.590357459660283 
2.680000000001231, -0.5953641595074523 
2.6900000000012523, -0.603808011616531 
2.7000000000012734, -0.6168496657680596 
2.7100000000012945, -0.6350300122535678 
2.7200000000013156, -0.657297839367399 
2.7300000000013367, -0.6806290669917628 
2.740000000001358, -0.7013261972562002 
2.750000000001379, -0.7171330217530867 
2.7600000000014, -0.7279330037545702 
2.770000000001421, -0.7348240066428078 
2.780000000001442, -0.73906344737336 
2.7900000000014633, -0.7416147271960613 
2.8000000000014844, -0.7431075387127467 
2.8100000000015055, -0.7439239949972627 
2.8200000000015266, -0.7442840231863874 
2.8300000000015477, -0.744302210922233 
2.840000000001569, -0.7440185198857155 
2.85000000000159, -0.7434090298442281 
2.860000000001611, -0.7423805907034509 
2.870000000001632, -0.7407521030283122 
2.8800000000016532, -0.7382299471359183 
2.8900000000016743, -0.7344024237222413 
2.9000000000016954, -0.7288081517904202 
2.9100000000017165, -0.7211388410290093 
2.9200000000017377, -0.7115318796203006 
2.9300000000017588, -0.7007136887140664 
2.94000000000178, -0.6897738254677755 
2.950000000001801, -0.6797172901415113 
2.960000000001822, -0.6711600960405982 
2.970000000001843, -0.664306096835561 
2.9800000000018643, -0.6590792276655266 
2.9900000000018854, -0.6552645543083758 
3.0000000000019065, -0.6526019123247371 
3.0100000000019276, -0.650835491019651 
3.0200000000019487, -0.6497368196136696 
3.03000000000197, -0.6491140342958805 
3.040000000001991, -0.6488138888865025 
3.050000000002012, -0.6487193847620928 
3.060000000002033, -0.6487447352952008 
3.070000000002054, -0.6488292574906839 
3.0800000000020753, -0.6489317387738873 
3.0900000000020964, -0.6490264612567407 
3.1000000000021175, -0.6491012287355146 
3.1100000000021386, -0.6491564189786693 
3.1200000000021597, -0.649202785424981 
3.130000000002181, -0.6492557490974681 
3.140000000002202, -0.6493262315198766 
3.150000000002223, -0.6494115414852131 
3.160000000002244, -0.6494915498906602 
3.1700000000022652, -0.6495333665707099 
3.1800000000022863, -0.6495026644785374 
3.1900000000023074, -0.6493752908133638 
3.2000000000023285, -0.6491431672040628 
3.2100000000023496, -0.6488136091452351 
3.2200000000023707, -0.648405956833281 
3.230000000002392, -0.6479502190936365 
3.240000000002413, -0.6474906590138629 
3.250000000002434, -0.6470956489673928 
3.260000000002455, -0.6468745728302207 
3.2700000000024763, -0.6470023290922622 
3.2800000000024974, -0.6477509621634996 
3.2900000000025185, -0.6495248989064804 
3.3000000000025396, -0.652889302194152 
3.3100000000025607, -0.6585667116858797 
3.3200000000025818, -0.6673517302468635 
3.330000000002603, -0.6798658125971762 
3.340000000002624, -0.696102120324034 
3.350000000002645, -0.7149184545269599 
3.360000000002666, -0.7340029681796921 
3.3700000000026873, -0.7507694551232174 
3.3800000000027084, -0.7636334700798983 
3.3900000000027295, -0.772476811719785 
3.4000000000027506, -0.7781035885194781 
3.4100000000027717, -0.7815051654306295 
3.420000000002793, -0.7834769461108885 
3.430000000002814, -0.7845491496995913 
3.440000000002835, -0.7850408283207296 
3.450000000002856, -0.7851267691188804 
3.460000000002877, -0.7848835670048676 
3.4700000000028983, -0.7843116247249086 
3.4800000000029194, -0.7833354100756155 
3.4900000000029405, -0.7817817116397198 
3.5000000000029616, -0.7793323219702702 
3.5100000000029827, -0.7754503684147089 
3.520000000003004, -0.7693047354288408 
3.530000000003025, -0.759793968456816 
3.540000000003046, -0.7458885192405155 
3.550000000003067, -0.7274428787325713 
3.5600000000030882, -0.7060050714140507 
3.5700000000031094, -0.6845320929482026 
3.5800000000031305, -0.6658769330502111 
3.5900000000031516, -0.6515078713982353 
3.6000000000031727, -0.6414440782312986 
3.6100000000031938, -0.6349075936527168 
3.620000000003215, -0.6309290021631009 
3.630000000003236, -0.6286586875475587 
3.640000000003257, -0.6274582848717142 
3.650000000003278, -0.6268886070628905 
3.6600000000032993, -0.6266646801229394 
3.6700000000033204, -0.626608994804935 
3.6800000000033415, -0.6266134969110327 
3.6900000000033626, -0.6266121570725193 
3.7000000000033837, -0.6265629991749824 
3.710000000003405, -0.6264379799365334 
3.720000000003426, -0.626219380024423 
3.730000000003447, -0.6259011694426782 
3.740000000003468, -0.6254924357580438 
3.750000000003489, -0.625018243870174 
3.7600000000035103, -0.6245139402721619 
3.7700000000035314, -0.6240134798311902 
3.7800000000035525, -0.623537574140564 
3.7900000000035736, -0.6230882124237793 
3.8000000000035947, -0.6226519327416601 
3.810000000003616, -0.6222090764888054 
3.820000000003637, -0.6217437022279364 
3.830000000003658, -0.6212500206517649 
3.840000000003679, -0.6207347317103445 
3.8500000000037002, -0.6202175378419688 
3.8600000000037213, -0.6197326684311393 
3.8700000000037424, -0.6193332023076976 
3.8800000000037635, -0.6190987532578637 
3.8900000000037847, -0.6191462915361391 
3.9000000000038058, -0.619643352415026 
3.910000000003827, -0.6208222531279871 
3.920000000003848, -0.6229926566819068 
3.930000000003869, -0.6265466949356919 
3.94000000000389, -0.6319435915445669 
3.9500000000039113, -0.6396470511167225 
3.9600000000039324, -0.6499735912080581 
3.9700000000039535, -0.6628245536141214 
3.9800000000039746, -0.6773860695833404 
3.9900000000039957, -0.6920910156036533 
4.000000000004016, -0.7051416303125784 
4.010000000003993, -0.7153421378371991 
4.02000000000397, -0.7224995151915323 
4.030000000003946, -0.727134130842291 
4.040000000003923, -0.7299682191017887 
4.0500000000039, -0.7316140807375098 
4.0600000000038765, -0.7324934164700159 
4.070000000003853, -0.732863963176631 
4.08000000000383, -0.7328655939647647 
4.090000000003807, -0.732553738913887 
4.100000000003783, -0.7319139921588882 
4.11000000000376, -0.7308577493519206 
4.120000000003737, -0.7291973298964967 
4.130000000003713, -0.7265976331496004 
4.14000000000369, -0.7225088614121733 
4.150000000003667, -0.7161203889881401 
4.1600000000036434, -0.7064606110600815 
4.17000000000362, -0.6928388586050552 
4.180000000003597, -0.6756033127259803 
4.1900000000035735, -0.6565496065357614 
4.20000000000355, -0.6382308284953309 
4.210000000003527, -0.622664294929082 
4.220000000003504, -0.61066236110776 
4.23000000000348, -0.6020539691358409 
4.240000000003457, -0.5962076490649639 
4.250000000003434, -0.5924134414410595 
4.26000000000341, -0.5900571559395944 
4.270000000003387, -0.5886660487805909 
4.280000000003364, -0.5878990056019546 
4.2900000000033405, -0.5875199516404146 
4.300000000003317, -0.5873703598145855 
4.310000000003294, -0.5873461101595364 
4.320000000003271, -0.5873798608617311 
4.330000000003247, -0.5874287533420013 
4.340000000003224, -0.5874669212641676 
4.350000000003201, -0.5874820465653762 
4.360000000003177, -0.5874745801051577 
4.370000000003154, -0.5874571761551519 
4.380000000003131, -0.5874512925079604 
4.390000000003107, -0.5874792352495393 
4.400000000003084, -0.587553281456618 
4.410000000003061, -0.5876666787155663 
4.4200000000030375, -0.5877917764877865 
4.430000000003014, -0.5878874949238669 
4.440000000002991, -0.5879129124036335 
4.450000000002968, -0.5878395954734852 
4.460000000002944, -0.5876566607443108 
4.470000000002921, -0.5873685210644821 
4.480000000002898, -0.5869899356256035 
4.490000000002874, -0.5865432177207093 
4.500000000002851, -0.5860604597420392 
4.510000000002828, -0.5855924523574811 
4.520000000002804, -0.5852264911037863 
4.530000000002781, -0.5851168681102956 
4.540000000002758, -0.5855333438231747 
4.5500000000027345, -0.5869317159231844 
4.560000000002711, -0.5900398086110591 
4.570000000002688, -0.5959155500629356 
4.580000000002665, -0.6058484112882941 
4.590000000002641, -0.6208678932055821 
4.600000000002618, -0.6407407013832533 
4.610000000002595, -0.6631114072476854 
4.620000000002571, -0.6842175950681023 
4.630000000002548, -0.7011395538793754 
4.640000000002525, -0.713151564445006 
4.6500000000025015, -0.7210793236293846 
4.660000000002478, -0.7261272120004117 
4.670000000002455, -0.7292845330069879 
4.6800000000024315, -0.7312261112189822 
4.690000000002408, -0.7323795919169229 
4.700000000002385, -0.7330055329825786 
4.710000000002362, -0.7332545137649277 
4.720000000002338, -0.7332013778330764 
4.730000000002315, -0.7328620583748664 
4.740000000002292, -0.7321970678820984 
4.750000000002268, -0.7311045600653396 
4.760000000002245, -0.7294078714167564 
4.770000000002222, -0.7268510010147692 
4.7800000000021985, -0.7231313817267861 
4.790000000002175, -0.7180066021305134 
4.800000000002152, -0.7114675725496225 
4.810000000002129, -0.7038652652784263 
4.820000000002105, -0.6958435236996315 
4.830000000002082, -0.6880953679982598 
4.840000000002059, -0.6811362136369729 
4.850000000002035, -0.675229405013038 
4.860000000002012, -0.6704343429260031 
4.870000000001989, -0.6666884388360867 
4.880000000001965, -0.6638710883320604 
4.890000000001942, -0.6618407465448539 
4.900000000001919, -0.660453598482793 
4.9100000000018955, -0.6595731619023255 
4.920000000001872, -0.6590761364541315 
