t, s[1].omega / s[0].omega 
0, -1.3099931292296554 
0.009999999999999995, -1.3091180441669623 
0.019999999999999934, -1.307871270455246 
0.029999999999999874, -1.3062541646431376 
0.04000000000000012, -1.3042687815247025 
0.050000000000000405, -1.3019180439465667 
0.06000000000000069, -1.2992059673016727 
0.07000000000000098, -1.2961379278734595 
0.08000000000000126, -1.2927209624681852 
0.09000000000000155, -1.2889640853516335 
0.10000000000000184, -1.284878607218403 
0.11000000000000212, -1.2804784400418407 
0.12000000000000241, -1.2757803720890346 
0.130000000000002, -1.2708043005613874 
0.1400000000000009, -1.2655734166229236 
0.1499999999999998, -1.26011434940175 
0.1599999999999987, -1.2544572902102318 
0.1699999999999976, -1.2486361312417165 
0.1799999999999965, -1.2426886573455003 
0.1899999999999954, -1.236656817287175 
0.1999999999999943, -1.230587066461503 
0.2099999999999932, -1.2245307163439827 
0.2199999999999921, -1.2185441554968528 
0.229999999999991, -1.2126887401152067 
0.2399999999999899, -1.207030112749205 
0.2499999999999888, -1.2016367205241818 
0.2599999999999877, -1.1965773862225184 
0.2699999999999866, -1.1919179386394683 
0.2799999999999855, -1.1877171123963366 
0.2899999999999844, -1.1840221389126606 
0.2999999999999833, -1.1808646114714925 
0.3099999999999822, -1.1782572615762967 
0.3199999999999811, -1.1761921968169022 
0.32999999999998, -1.1746409275798224 
0.3399999999999789, -1.1735562001788706 
0.3499999999999778, -1.1728753364150504 
0.35999999999997667, -1.1725245362247683 
0.36999999999997557, -1.172423487189151 
0.37999999999997447, -1.1724896553954127 
0.38999999999997337, -1.172641777439347 
0.39999999999997227, -1.1728022785604493 
0.40999999999997117, -1.1728985491634698 
0.41999999999997006, -1.1728631784250305 
0.42999999999996896, -1.1726333494196413 
0.43999999999996786, -1.1721496464232612 
0.44999999999996676, -1.1713545263389897 
0.45999999999996566, -1.1701906817272314 
0.46999999999996456, -1.1685994898663878 
0.47999999999996346, -1.1665197122195357 
0.48999999999996235, -1.1638865867826478 
0.49999999999996125, -1.1606314413975451 
0.5099999999999602, -1.1566819441436489 
0.519999999999959, -1.1519630894564357 
0.529999999999958, -1.1463989867633317 
0.5399999999999568, -1.1399154646127363 
0.5499999999999557, -1.1324434240409238 
0.5599999999999546, -1.1239227737906836 
0.5699999999999535, -1.1143066694241734 
0.5799999999999524, -1.1035656794672841 
0.5899999999999513, -1.0916914405353972 
0.5999999999999502, -1.0786993638022875 
0.6099999999999491, -1.0646300301650193 
0.619999999999948, -1.0495490561560752 
0.6299999999999469, -1.0335454027617546 
0.6399999999999458, -1.016728296652986 
0.6499999999999447, -0.9992230970527852 
0.6599999999999436, -0.9811665403927547 
0.6699999999999425, -0.9627018161577354 
0.6799999999999414, -0.9439738778659245 
0.6899999999999403, -0.925125294760167 
0.6999999999999392, -0.9062928303523206 
0.7099999999999381, -0.8876048189204304 
0.719999999999937, -0.8691793179805174 
0.7299999999999359, -0.8511229516877545 
0.7399999999999348, -0.8335303269718264 
0.7499999999999337, -0.8164838956431922 
0.7599999999999326, -0.8000541441648376 
0.7699999999999315, -0.7843000107960143 
0.7799999999999304, -0.7692694513211992 
0.7899999999999293, -0.755000095409453 
0.7999999999999282, -0.7415199534349965 
0.8099999999999271, -0.7288481473774961 
0.819999999999926, -0.7169956492227944 
0.8299999999999249, -0.7059660166647466 
0.8399999999999238, -0.6957561196616351 
0.8499999999999227, -0.6863568533391048 
0.8599999999999216, -0.6777538335612276 
0.8699999999999205, -0.6699280717552413 
0.8799999999999194, -0.6628566256452925 
0.8899999999999183, -0.6565132226462335 
0.8999999999999172, -0.650868852891866 
0.9099999999999161, -0.6458923292431982 
0.919999999999915, -0.6415508121138724 
0.9299999999999139, -0.6378102975140914 
0.9399999999999128, -0.6346360673019457 
0.9499999999999117, -0.6319931012036112 
0.9599999999999106, -0.629846450698236 
0.9699999999999095, -0.6281615753519917 
0.9799999999999084, -0.626904642633334 
0.9899999999999073, -0.6260427926594437 
0.9999999999999062, -0.6255443697243248 
1.0099999999999052, -0.6253791228493191 
1.019999999999904, -0.6255183779738004 
1.029999999999903, -0.6259351847506375 
1.039999999999902, -0.6266044411944597 
1.0499999999999008, -0.6275029996008327 
1.0599999999998997, -0.6286097571462018 
1.0699999999998986, -0.6299057343160762 
1.0799999999998975, -0.6313741437132716 
1.0899999999998964, -0.6330004507977519 
1.0999999999998953, -0.6347724266561964 
1.1099999999998942, -0.6366801909848827 
1.119999999999893, -0.6387162411458888 
1.129999999999892, -0.6408754605518676 
1.1399999999998909, -0.6431550969611823 
1.1499999999998898, -0.6455546988139681 
1.1599999999998887, -0.6480759958565224 
1.1699999999998876, -0.6507227093446804 
1.1799999999998865, -0.6535002774026698 
1.1899999999998854, -0.6564154828643604 
1.1999999999998843, -0.6594759742335022 
1.2099999999998832, -0.6626896752409567 
1.219999999999882, -0.6660640847464483 
1.229999999999881, -0.6696054763262865 
1.2399999999998799, -0.673318015770823 
1.2499999999998788, -0.6772028249283077 
1.2599999999998777, -0.6812570318979765 
1.2699999999998766, -0.6854728602683976 
1.2799999999998755, -0.6898368231085829 
1.2899999999998744, -0.6943290990148482 
1.2999999999998733, -0.6989231748489353 
1.3099999999998722, -0.7035858390842373 
1.319999999999871, -0.708277596878617 
1.32999999999987, -0.712953550107206 
1.3399999999998689, -0.7175647422275228 
1.3499999999998678, -0.7220599126423944 
1.3599999999998666, -0.7263875463015409 
1.3699999999998655, -0.7304980531940356 
1.3799999999998644, -0.7343458813752479 
1.3899999999998633, -0.7378913654549462 
1.3999999999998622, -0.7411021428839969 
1.4099999999998611, -0.7439540278896108 
1.41999999999986, -0.7464313058174076 
1.429999999999859, -0.7485264840453014 
1.4399999999998578, -0.7502395958421235 
1.4499999999998567, -0.7515771916294528 
1.4599999999998556, -0.7525511654857915 
1.4699999999998545, -0.7531775565421989 
1.4799999999998534, -0.7534754418953274 
1.4899999999998523, -0.7534660076178168 
1.4999999999998512, -0.7531718542119326 
1.5099999999998501, -0.7526165671612902 
1.519999999999849, -0.7518245644866538 
1.529999999999848, -0.7508212218549014 
1.5399999999998468, -0.7496332709711104 
1.5499999999998457, -0.7482894671822299 
1.5599999999998446, -0.7468215257357727 
1.5699999999998435, -0.7452653313787843 
1.5799999999998424, -0.7436624315972153 
1.5899999999998413, -0.7420618286697851 
1.5999999999998402, -0.7405220888958066 
1.6099999999998391, -0.7391137879472643 
1.619999999999838, -0.7379223082554451 
1.629999999999837, -0.7370509962704662 
1.6399999999998358, -0.7366246722349713 
1.6499999999998347, -0.7367934595503878 
1.6599999999998336, -0.7377368598923232 
1.6699999999998325, -0.7396679364737415 
1.6799999999998314, -0.7428373705759227 
1.6899999999998303, -0.7475370114155738 
1.6999999999998292, -0.7541023295384268 
1.709999999999828, -0.762912892710885 
1.719999999999827, -0.7743896030910471 
1.729999999999826, -0.7889869833940535 
1.7399999999998248, -0.807178350661817 
1.7499999999998237, -0.8294314384092943 
1.7599999999998226, -0.8561722309959555 
1.7699999999998215, -0.8877359188804075 
1.7799999999998204, -0.9243064872521958 
1.7899999999998193, -0.9658507901473274 
1.7999999999998182, -1.012058538172146 
1.809999999999817, -1.0623045966772848 
1.819999999999816, -1.115651167632352 
1.8299999999998149, -1.1709016225143798 
1.8399999999998138, -1.2267044176599815 
1.8499999999998127, -1.2816889139234748 
1.8599999999998116, -1.3346029944226343 
1.8699999999998105, -1.384421828528794 
1.8799999999998094, -1.4304083267514558 
1.8899999999998083, -1.4721224477822985 
1.8999999999998072, -1.5093903562968505 
1.909999999999806, -1.5422507305444952 
1.919999999999805, -1.5708945502515261 
1.9299999999998039, -1.5956096977170786 
1.9399999999998028, -1.6167360470162497 
1.9499999999998017, -1.6346323667897928 
1.9599999999998006, -1.6496538380091423 
1.9699999999997995, -1.662137968180648 
1.9799999999997984, -1.6723965993822612 
1.9899999999997973, -1.6807120679543028 
1.9999999999997962, -1.6873360610017616 
2.0099999999998173, -1.6924901661402514 
2.0199999999998384, -1.6963674651418816 
2.0299999999998595, -1.6991347727804766 
2.0399999999998806, -1.7009352851797899 
2.0499999999999017, -1.7018914977218103 
2.059999999999923, -1.7021082975275172 
2.069999999999944, -1.7016761400209732 
2.079999999999965, -1.700674189537002 
2.089999999999986, -1.6991732485023856 
2.100000000000007, -1.6972382364067593 
2.1100000000000283, -1.6949299435330285 
2.1200000000000494, -1.6923058264804471 
2.1300000000000705, -1.6894197832566087 
2.1400000000000916, -1.6863211579509851 
2.1500000000001127, -1.683053611834771 
2.160000000000134, -1.6796547992608863 
2.170000000000155, -1.6761577997880888 
2.180000000000176, -1.6725948435237246 
2.190000000000197, -1.669003052979156 
2.2000000000002182, -1.665430930373409 
2.2100000000002393, -1.6619434823942787 
2.2200000000002604, -1.6586235478278266 
2.2300000000002815, -1.6555673602970815 
2.2400000000003026, -1.6528737586452542 
2.2500000000003237, -1.650628550498832 
2.260000000000345, -1.648887670321931 
2.270000000000366, -1.647663920513471 
2.280000000000387, -1.6469213859209024 
2.290000000000408, -1.6465790878618902 
2.3000000000004293, -1.6465222107050546 
2.3100000000004504, -1.6466168713310234 
2.3200000000004715, -1.6467239014428192 
2.3300000000004926, -1.6467083179234874 
2.3400000000005137, -1.6464430895718025 
2.3500000000005348, -1.645807450386782 
2.360000000000556, -1.644680842316289 
2.370000000000577, -1.6429336168740596 
2.380000000000598, -1.6404151840892032 
2.390000000000619, -1.6369396774911893 
2.4000000000006403, -1.6322686000660742 
2.4100000000006614, -1.626089412879597 
2.4200000000006825, -1.6179886628374023 
2.4300000000007036, -1.6074180874455213 
2.4400000000007247, -1.5936523676449286 
2.450000000000746, -1.5757382336230716 
2.460000000000767, -1.5524372349216087 
2.470000000000788, -1.5221699376159494 
2.480000000000809, -1.4829793428770632 
2.49000000000083, -1.4325474336637305 
2.5000000000008513, -1.3683198925491085 
2.5100000000008724, -1.2878115071287284 
2.5200000000008935, -1.1891553743767143 
2.5300000000009146, -1.0718845991923591 
2.5400000000009357, -0.9377685369095242 
2.550000000000957, -0.7913159973675056 
2.560000000000978, -0.6394859120048455 
2.570000000000999, -0.4904266358149466 
2.58000000000102, -0.35164995641931135 
2.5900000000010412, -0.22847384639549737 
2.6000000000010624, -0.12339321726880557 
2.6100000000010835, -0.036415680820875124 
2.6200000000011046, 0.03340153492916617 
2.6300000000011257, 0.08849052786865709 
2.6400000000011468, 0.13204206199175086 
2.650000000001168, 0.16636961715962514 
2.660000000001189, 0.19342773719876133 
2.67000000000121, 0.21479579459168535 
2.680000000001231, 0.23171752036281387 
2.6900000000012523, 0.24515867847148948 
2.7000000000012734, 0.25586440731101806 
2.7100000000012945, 0.26440886843581984 
2.7200000000013156, 0.2712354246118491 
2.7300000000013367, 0.2766879857881412 
2.740000000001358, 0.28103497720189424 
2.750000000001379, 0.28448747686290693 
2.7600000000014, 0.28721288455667476 
2.770000000001421, 0.28934522670245 
2.780000000001442, 0.290992955750935 
2.7900000000014633, 0.2922448976376027 
2.8000000000014844, 0.29317484014837547 
2.8100000000015055, 0.2938451338643181 
2.8200000000015266, 0.29430958826582077 
2.8300000000015477, 0.2946158815971732 
2.840000000001569, 0.2948076584474414 
2.85000000000159, 0.2949264592181406 
2.860000000001611, 0.29501360729903686 
2.870000000001632, 0.29511217010713203 
2.8800000000016532, 0.2952691065942324 
2.8900000000016743, 0.295537713384718 
2.9000000000016954, 0.2959804800300488 
2.9100000000017165, 0.29667245402426307 
2.9200000000017377, 0.2977051868795041 
2.9300000000017588, 0.2991912656115833 
2.94000000000178, 0.3012693019579241 
2.950000000001801, 0.30410901604834245 
2.960000000001822, 0.30791566492658373 
2.970000000001843, 0.31293248616429753 
2.9800000000018643, 0.3194390474238057 
2.9900000000018854, 0.3277425145984585 
3.0000000000019065, 0.3381581880510834 
3.0100000000019276, 0.3509758515063059 
3.0200000000019487, 0.3664105067590174 
3.03000000000197, 0.38454088832189426 
3.040000000001991, 0.40524676017858596 
3.050000000002012, 0.42816406134680024 
3.060000000002033, 0.4526802810955315 
3.070000000002054, 0.4779851895861941 
3.0800000000020753, 0.5031732224256585 
3.0900000000020964, 0.527371509861176 
3.1000000000021175, 0.5498554637107357 
3.1100000000021386, 0.5701203564856485 
3.1200000000021597, 0.5878977308967245 
3.130000000002181, 0.6031263948397144 
3.140000000002202, 0.6158986179279295 
3.150000000002223, 0.6264015192421598 
3.160000000002244, 0.63486659332515 
3.1700000000022652, 0.6415325799919422 
3.1800000000022863, 0.646621510549753 
3.1900000000023074, 0.6503252024362263 
3.2000000000023285, 0.6527989040725533 
3.2100000000023496, 0.6541592277577677 
3.2200000000023707, 0.6544842658259078 
3.230000000002392, 0.6538145183089169 
3.240000000002413, 0.6521538541732562 
3.250000000002434, 0.6494701884076025 
3.260000000002455, 0.6456959385424533 
3.2700000000024763, 0.6407286932352065 
3.2800000000024974, 0.6344329406671232 
3.2900000000025185, 0.6266441952716235 
3.3000000000025396, 0.6171773939672873 
3.3100000000025607, 0.6058418533732823 
3.3200000000025818, 0.5924650438984373 
3.330000000002603, 0.5769263869514047 
3.340000000002624, 0.559199588590207 
3.350000000002645, 0.5393974590616705 
3.360000000002666, 0.5178077060205486 
3.3700000000026873, 0.49490460861816715 
3.3800000000027084, 0.4713236499302599 
3.3900000000027295, 0.4477962858943381 
3.4000000000027506, 0.42505720508191824 
3.4100000000027717, 0.40374872688407404 
3.420000000002793, 0.38434858284861034 
3.430000000002814, 0.3671370934796711 
3.440000000002835, 0.35220425082240947 
3.450000000002856, 0.33948508135659805 
3.460000000002877, 0.32880738595656367 
3.4700000000028983, 0.31993847987580176 
3.4800000000029194, 0.3126230988481615 
3.4900000000029405, 0.30660988225861086 
3.5000000000029616, 0.3016672643468611 
3.5100000000029827, 0.29759114219319965 
3.520000000003004, 0.2942069375340759 
3.530000000003025, 0.29136827119128994 
3.540000000003046, 0.28895387246132337 
3.550000000003067, 0.28686378676120844 
3.5600000000030882, 0.2850155107249702 
3.5700000000031094, 0.28334038312694937 
3.5800000000031305, 0.28178036859521016 
3.5900000000031516, 0.2802852582081487 
3.6000000000031727, 0.2788102496345207 
3.6100000000031938, 0.2773138391230722 
3.620000000003215, 0.27575594436753037 
3.630000000003236, 0.27409617193639146 
3.640000000003257, 0.27229213976950384 
3.650000000003278, 0.27029776048601056 
3.6600000000032993, 0.2680613823518296 
3.6700000000033204, 0.265523669647005 
3.6800000000033415, 0.26261508082012913 
3.6900000000033626, 0.25925276890473664 
3.7000000000033837, 0.2553366814114192 
3.710000000003405, 0.2507445730119997 
3.720000000003426, 0.24532556033027308 
3.730000000003447, 0.23889174143160477 
3.740000000003468, 0.23120727392238768 
3.750000000003489, 0.22197416459893493 
3.7600000000035103, 0.21081390025416755 
3.7700000000035314, 0.19724401586092769 
3.7800000000035525, 0.18064890822767354 
3.7900000000035736, 0.16024496773868732 
3.8000000000035947, 0.13504197952385644 
3.810000000003616, 0.10380666333599892 
3.820000000003637, 0.06504145689544502 
3.830000000003658, 0.017003335480213967 
3.840000000003679, -0.04127031664738423 
3.8500000000037002, -0.11211296065015114 
3.8600000000037213, -0.1972823249224431 
3.8700000000037424, -0.2970700568918031 
3.8800000000037635, -0.41010910069374007 
3.8900000000037847, -0.5330161300342176 
3.9000000000038058, -0.6605978857357069 
3.910000000003827, -0.7867205844163979 
3.920000000003848, -0.9055552093489622 
3.930000000003869, -1.0126695433044572 
3.94000000000389, -1.1055611935456786 
3.9500000000039113, -1.183578903942635 
3.9600000000039324, -1.247457114437367 
3.9700000000039535, -1.2987467351260937 
3.9800000000039746, -1.339331803821525 
3.9900000000039957, -1.3711016100857063 
4.000000000004016, -1.3957690094784914 
4.010000000003993, -1.4147947578940234 
4.02000000000397, -1.429376360671333 
4.030000000003946, -1.4404700968854103 
4.040000000003923, -1.4488263123276484 
4.0500000000039, -1.4550269374023184 
4.0600000000038765, -1.4595199578390559 
4.070000000003853, -1.4626489103128206 
4.08000000000383, -1.4646772230156593 
4.090000000003807, -1.4658080270175906 
4.100000000003783, -1.4662003556769387 
4.11000000000376, -1.4659826731305512 
4.120000000003737, -1.4652645519197227 
4.130000000003713, -1.4641470990203327 
4.14000000000369, -1.4627324107985866 
4.150000000003667, -1.4611319117980512 
4.1600000000036434, -1.4594729179415131 
4.17000000000362, -1.4579022504607586 
4.180000000003597, -1.4565854042821766 
4.1900000000035735, -1.4556999209591135 
4.20000000000355, -1.455422484367128 
4.210000000003527, -1.4559108727613528 
4.220000000003504, -1.4572838662441872 
4.23000000000348, -1.4596037074314379 
4.240000000003457, -1.4628658499972607 
4.250000000003434, -1.4669990969497633 
4.26000000000341, -1.471876302619962 
4.270000000003387, -1.4773327924195954 
4.280000000003364, -1.4831878008123711 
4.2900000000033405, -1.4892641453184363 
4.300000000003317, -1.495402758533999 
4.310000000003294, -1.5014707453222051 
4.320000000003271, -1.5073634612258122 
4.330000000003247, -1.513002227810256 
4.340000000003224, -1.5183296402525859 
4.350000000003201, -1.5233041817833752 
4.360000000003177, -1.527895322446498 
4.370000000003154, -1.5320796920356015 
4.380000000003131, -1.535838438689519 
4.390000000003107, -1.5391555857389387 
4.400000000003084, -1.5420170784959746 
4.410000000003061, -1.5444102233804575 
4.4200000000030375, -1.5463233018345588 
4.430000000003014, -1.547745236503776 
4.440000000002991, -1.5486652633281575 
4.450000000002968, -1.5490726083141522 
4.460000000002944, -1.5489561849404805 
4.470000000002921, -1.548304327420408 
4.480000000002898, -1.5471045668785874 
4.490000000002874, -1.545343449469074 
4.500000000002851, -1.5430063914388787 
4.510000000002828, -1.5400775670040083 
4.520000000002804, -1.5365398297193356 
4.530000000002781, -1.532374675191768 
4.540000000002758, -1.5275622611298323 
4.5500000000027345, -1.5220815092922448 
4.560000000002711, -1.515910323546667 
4.570000000002688, -1.5090259709818103 
4.580000000002665, -1.5014056919862304 
4.590000000002641, -1.493027633888438 
4.600000000002618, -1.483872243072889 
4.610000000002595, -1.4739242996534436 
4.620000000002571, -1.4631758250656866 
4.630000000002548, -1.4516301116377368 
4.640000000002525, -1.4393070753128787 
4.6500000000025015, -1.4262499695740871 
4.660000000002478, -1.412533175916712 
4.670000000002455, -1.398270288922973 
4.6800000000024315, -1.3836210904389679 
4.690000000002408, -1.3687954023050293 
4.700000000002385, -1.3540514718460697 
4.710000000002362, -1.3396867910276185 
4.720000000002338, -1.326020325188917 
4.730000000002315, -1.3133670241269824 
4.740000000002292, -1.3020077971823076 
4.750000000002268, -1.2921600719730448 
4.760000000002245, -1.2839547591186218 
4.770000000002222, -1.2774244158040036 
4.7800000000021985, -1.2725048431209014 
4.790000000002175, -1.2690491372791635 
4.800000000002152, -1.2668504729671837 
4.810000000002129, -1.265668483288631 
4.820000000002105, -1.2652542546689352 
4.830000000002082, -1.2653703108914025 
4.840000000002059, -1.2658038285587003 
4.850000000002035, -1.2663730429957232 
4.860000000002012, -1.266927963687246 
4.870000000001989, -1.26734702563726 
4.880000000001965, -1.2675312838158173 
4.890000000001942, -1.2673974282680975 
4.900000000001919, -1.2668704581001033 
4.9100000000018955, -1.2658764379138199 
4.920000000001872, -1.2643354344928708 
4.930000000001849, -1.2621545082816803 
4.940000000001826, -1.2592205014070252 
