t, s[1].omega / s[0].omega 
0, -0.6799976993382165 
0.009999999999999995, -0.6797581809300424 
0.019999999999999934, -0.6794959533821155 
0.029999999999999874, -0.6792013732566026 
0.04000000000000012, -0.678864515074484 
0.050000000000000405, -0.6784803928062987 
0.06000000000000069, -0.6780517854649484 
0.07000000000000098, -0.6775897976632709 
0.08000000000000126, -0.6771138582636039 
0.09000000000000155, -0.6766528136356406 
0.10000000000000184, -0.6762478375992609 
0.11000000000000212, -0.6759569321964471 
0.12000000000000241, -0.675860103262521 
0.130000000000002, -0.676063779430694 
0.1400000000000009, -0.6767026220264973 
0.1499999999999998, -0.6779364685589941 
0.1599999999999987, -0.6799394928257498 
0.1699999999999976, -0.682877371715205 
0.1799999999999965, -0.6868668217935316 
0.1899999999999954, -0.6919138439436541 
0.1999999999999943, -0.6978404153551712 
0.2099999999999932, -0.7042396556476781 
0.2199999999999921, -0.7105253952852217 
0.229999999999991, -0.7161046004933537 
0.2399999999999899, -0.7205859598731739 
0.2499999999999888, -0.7238752106244063 
0.2599999999999877, -0.7261099227828114 
0.2699999999999866, -0.7275244206131706 
0.2799999999999855, -0.7283455923586342 
0.2899999999999844, -0.7287476863205696 
0.2999999999999833, -0.7288461687245895 
0.3099999999999822, -0.728706027816752 
0.3199999999999811, -0.72835057544299 
0.32999999999998, -0.7277652744324634 
0.3399999999999789, -0.7268947687613485 
0.3499999999999778, -0.7256322923847239 
0.35999999999997667, -0.7238015693988468 
0.36999999999997557, -0.7211355411993444 
0.37999999999997447, -0.7172692769378785 
0.38999999999997337, -0.7117902739365217 
0.39999999999997227, -0.7044084190563972 
0.40999999999997117, -0.6952449869385368 
0.41999999999997006, -0.6850441554416886 
0.42999999999996896, -0.6750070383645539 
0.43999999999996786, -0.6662700358537855 
0.44999999999996676, -0.6594604744553425 
0.45999999999996566, -0.6546339077034478 
0.46999999999996456, -0.6514833200713784 
0.47999999999996346, -0.6495784941189998 
0.48999999999996235, -0.6485161033007178 
0.49999999999996125, -0.6479795027614889 
0.5099999999999602, -0.6477448139397645 
0.519999999999959, -0.6476643898460346 
0.529999999999958, -0.6476451406911339 
0.5399999999999568, -0.647629314715786 
0.5499999999999557, -0.6475800578074011 
0.5599999999999546, -0.6474718684294528 
0.5699999999999535, -0.6472854912319831 
0.5799999999999524, -0.6470067979851319 
0.5899999999999513, -0.646628925575498 
0.5999999999999502, -0.6461558533033124 
0.6099999999999491, -0.6456042304167612 
0.619999999999948, -0.6450004600384094 
0.6299999999999469, -0.6443730627265775 
0.6399999999999458, -0.6437441823972894 
0.6499999999999447, -0.643124983084623 
0.6599999999999436, -0.6425168088146422 
0.6699999999999425, -0.641916301636363 
0.6799999999999414, -0.6413211504463863 
0.6899999999999403, -0.6407341732086929 
0.6999999999999392, -0.6401654406559432 
0.7099999999999381, -0.6396334438951754 
0.719999999999937, -0.6391663903185628 
0.7299999999999359, -0.6388041109382947 
0.7399999999999348, -0.6386004292154678 
0.7499999999999337, -0.6386254581680368 
0.7599999999999326, -0.6389671406540897 
0.7699999999999315, -0.6397312665122781 
0.7799999999999304, -0.6410389057025736 
0.7899999999999293, -0.6430192842751203 
0.7999999999999282, -0.6457943172394588 
0.8099999999999271, -0.649448948340358 
0.819999999999926, -0.6539823568708333 
0.8299999999999249, -0.6592460519201313 
0.8399999999999238, -0.6649013412765838 
0.8499999999999227, -0.670453763119445 
0.8599999999999216, -0.6753943374235053 
0.8699999999999205, -0.6793789888825363 
0.8799999999999194, -0.6823168389727512 
0.8899999999999183, -0.6843200412653362 
0.8999999999999172, -0.6855889928438602 
0.9099999999999161, -0.686320835542312 
0.919999999999915, -0.6866681459081464 
0.9299999999999139, -0.6867319410815755 
0.9399999999999128, -0.6865677621928672 
0.9499999999999117, -0.6861923443270046 
0.9599999999999106, -0.6855856780913019 
0.9699999999999095, -0.6846864907327468 
0.9799999999999084, -0.6833802500371701 
0.9899999999999073, -0.6814804688382374 
0.9999999999999062, -0.6787103794124267 
1.0099999999999052, -0.6747085104708912 
1.019999999999904, -0.6691068038268208 
1.029999999999903, -0.6617276166944281 
1.039999999999902, -0.6528414443742128 
1.0499999999999008, -0.6432535730006164 
1.0599999999998997, -0.6340322398900083 
1.0699999999998986, -0.6260558946872297 
1.0799999999998975, -0.6197466934066966 
1.0899999999998964, -0.6151041354732947 
1.0999999999998953, -0.6118842512415368 
1.1099999999998942, -0.6097640573610037 
1.119999999999893, -0.6084373230117905 
1.129999999999892, -0.607653208239683 
1.1399999999998909, -0.6072226753903407 
1.1499999999998898, -0.607010808412176 
1.1599999999998887, -0.6069248694159204 
1.1699999999998876, -0.6069026278149116 
1.1799999999998865, -0.606902780193711 
1.1899999999998854, -0.6068980457308204 
1.1999999999998843, -0.6068709954035795 
1.2099999999998832, -0.6068123277936422 
1.219999999999882, -0.6067207670079757 
1.229999999999881, -0.6066029925620168 
1.2399999999998799, -0.6064716257000904 
1.2499999999998788, -0.6063402459238316 
1.2599999999998777, -0.6062167266591636 
1.2699999999998766, -0.6060982111553302 
1.2799999999998755, -0.6059708465404705 
1.2899999999998744, -0.605814740482181 
1.2999999999998733, -0.6056113731937656 
1.3099999999998722, -0.6053494677712647 
1.319999999999871, -0.6050270916115513 
1.32999999999987, -0.6046507465096377 
1.3399999999998689, -0.6042338666006485 
1.3499999999998678, -0.6037969156128169 
1.3599999999998666, -0.6033703387084429 
1.3699999999998655, -0.6030010253872768 
1.3799999999998644, -0.6027628023275906 
1.3899999999998633, -0.602771333169536 
1.3999999999998622, -0.6032029063516771 
1.4099999999998611, -0.6043137650842734 
1.41999999999986, -0.6064499634152253 
1.429999999999859, -0.610025221633049 
1.4399999999998578, -0.6154287844756939 
1.4499999999998567, -0.6228287592726666 
1.4599999999998556, -0.6319105320012017 
1.4699999999998545, -0.6417511516193929 
1.4799999999998534, -0.6510856675502694 
1.4899999999998523, -0.6588848639051449 
1.4999999999998512, -0.6647509192194424 
1.5099999999998501, -0.6688421601679772 
1.519999999999849, -0.6715588815334127 
1.529999999999848, -0.6733021168456349 
1.5399999999998468, -0.6743807569490339 
1.5499999999998457, -0.6750055667675816 
1.5599999999998446, -0.6753102882688123 
1.5699999999998435, -0.6753730787033769 
1.5799999999998424, -0.6752311400367363 
1.5899999999998413, -0.6748882931354077 
1.5999999999998402, -0.6743168927407309 
1.6099999999998391, -0.6734561746773597 
1.619999999999838, -0.6722109931009188 
1.629999999999837, -0.670458844694038 
1.6399999999998358, -0.6680770266930478 
1.6499999999998347, -0.6649971578093188 
1.6599999999998336, -0.6612705350117526 
1.6699999999998325, -0.6570971217013722 
1.6799999999998314, -0.6527794445584403 
1.6899999999998303, -0.6486244060189013 
1.6999999999998292, -0.6448603614727955 
1.709999999999828, -0.6416100737241408 
1.719999999999827, -0.6389085619363488 
1.729999999999826, -0.6367356097418424 
1.7399999999998248, -0.6350431453689721 
1.7499999999998237, -0.6337722770430563 
1.7599999999998226, -0.6328621377311194 
1.7699999999998215, -0.6322541042465195 
1.7799999999998204, -0.6318939712687502 
1.7899999999998193, -0.631733363262819 
1.7999999999998182, -0.6317307842401245 
1.809999999999817, -0.631852320254638 
1.819999999999816, -0.6320719613198782 
1.8299999999998149, -0.6323715603443666 
1.8399999999998138, -0.6327403743479136 
1.8499999999998127, -0.6331738295940453 
1.8599999999998116, -0.6336707651016178 
1.8699999999998105, -0.6342284343308686 
1.8799999999998094, -0.6348355971642433 
1.8899999999998083, -0.6354661438030326 
1.8999999999998072, -0.6360775445953226 
1.909999999999806, -0.6366175435294273 
1.919999999999805, -0.6370376066589134 
1.9299999999998039, -0.6373059488224543 
1.9399999999998028, -0.6374126890737866 
1.9499999999998017, -0.6373658192389333 
1.9599999999998006, -0.6371827012773399 
1.9699999999997995, -0.6368826153632166 
1.9799999999997984, -0.6364831416872463 
1.9899999999997973, -0.6360007691236753 
1.9999999999997962, -0.6354555726384156 
2.0099999999998173, -0.6348804845072202 
2.0199999999998384, -0.6343365464487352 
2.0299999999998595, -0.6339353938305551 
2.0399999999998806, -0.6338670300044374 
2.0499999999999017, -0.6344210253524797 
2.059999999999923, -0.6359694415295472 
2.069999999999944, -0.6388594840860111 
2.079999999999965, -0.6431900022794264 
2.089999999999986, -0.6485857421384987 
2.100000000000007, -0.6542442345882203 
2.1100000000000283, -0.6593525681757545 
2.1200000000000494, -0.6634903505540319 
2.1300000000000705, -0.6666440165676388 
2.1400000000000916, -0.6689811138733252 
2.1500000000001127, -0.6706826497575104 
2.160000000000134, -0.6718938578941062 
2.170000000000155, -0.6727257382130813 
2.180000000000176, -0.6732626241599627 
2.190000000000197, -0.6735663261703327 
2.2000000000002182, -0.6736781258297102 
2.2100000000002393, -0.673619848753982 
2.2200000000002604, -0.6733941529405746 
2.2300000000002815, -0.6729840729943726 
2.2400000000003026, -0.6723526924434572 
2.2500000000003237, -0.6714454672025341 
2.260000000000345, -0.6701996512986714 
2.270000000000366, -0.6685651220699753 
2.280000000000387, -0.6665345021853976 
2.290000000000408, -0.6641678298356031 
2.3000000000004293, -0.6615908430483337 
2.3100000000004504, -0.6589614079633727 
2.3200000000004715, -0.65642468715985 
2.3300000000004926, -0.6540839607027643 
2.3400000000005137, -0.6519961328457485 
2.3500000000005348, -0.6501830394465642 
2.360000000000556, -0.6486461459305469 
2.370000000000577, -0.6473776203865952 
2.380000000000598, -0.6463663364778329 
2.390000000000619, -0.6456000738853482 
2.4000000000006403, -0.6450657331620148 
2.4100000000006614, -0.6447490110850423 
2.4200000000006825, -0.6446344011396922 
2.4300000000007036, -0.6447058506702896 
2.4400000000007247, -0.6449479985122006 
2.450000000000746, -0.6453476534966921 
2.460000000000767, -0.6458950172572833 
2.470000000000788, -0.6465840071093478 
2.480000000000809, -0.6474108286305992 
2.49000000000083, -0.6483698350724573 
2.5000000000008513, -0.6494462196004909 
2.5100000000008724, -0.6506069194293471 
2.5200000000008935, -0.6517942244660702 
2.5300000000009146, -0.6529287424010705 
2.5400000000009357, -0.6539253209324076 
2.550000000000957, -0.654716141311569 
2.560000000000978, -0.655267479126419 
2.570000000000999, -0.6555806328879219 
2.58000000000102, -0.6556797734721433 
2.5900000000010412, -0.6555966233092947 
2.6000000000010624, -0.655359391421736 
2.6100000000010835, -0.6549877199075682 
2.6200000000011046, -0.6544922918801076 
2.6300000000011257, -0.6538776648919671 
2.6400000000011468, -0.6531481212303669 
2.650000000001168, -0.652317543967736 
2.660000000001189, -0.6514245293113186 
2.67000000000121, -0.6505513308852553 
2.680000000001231, -0.6498366773479514 
2.6900000000012523, -0.6494571186647561 
2.7000000000012734, -0.6495448721474287 
2.7100000000012945, -0.6500587883578204 
2.7200000000013156, -0.6507437643131113 
2.7300000000013367, -0.6513180382365598 
2.740000000001358, -0.6517248475788342 
2.750000000001379, -0.6521171886985059 
2.7600000000014, -0.6526327947999786 
2.770000000001421, -0.6532736521510774 
2.780000000001442, -0.6539533684826178 
2.7900000000014633, -0.6545796448062219 
2.8000000000014844, -0.6550936209307004 
2.8100000000015055, -0.6554707983221976 
2.8200000000015266, -0.6557077867933795 
2.8300000000015477, -0.655809019486864 
2.840000000001569, -0.6557774202676165 
2.85000000000159, -0.6556086574046549 
2.860000000001611, -0.655287947414869 
2.870000000001632, -0.6547892730381106 
2.8800000000016532, -0.6540782833953881 
2.8900000000016743, -0.6531210378895682 
2.9000000000016954, -0.6518993042622148 
2.9100000000017165, -0.650427817406768 
2.9200000000017377, -0.6487627352314168 
2.9300000000017588, -0.6469920760780976 
2.94000000000178, -0.6452114642370138 
2.950000000001801, -0.6435000511183155 
2.960000000001822, -0.6419091247346755 
2.970000000001843, -0.6404644079558893 
2.9800000000018643, -0.6391753113543788 
2.9900000000018854, -0.6380444015982765 
3.0000000000019065, -0.6370738410469925 
3.0100000000019276, -0.6362684741051353 
3.0200000000019487, -0.6356364875118805 
3.03000000000197, -0.635188712655842 
3.040000000001991, -0.6349374051440634 
3.050000000002012, -0.6348950995181709 
3.060000000002033, -0.6350739405460113 
3.070000000002054, -0.6354856615896681 
3.0800000000020753, -0.6361420545500008 
3.0900000000020964, -0.6370553363950651 
3.1000000000021175, -0.6382372757179493 
3.1100000000021386, -0.6396954012575233 
3.1200000000021597, -0.641424485830048 
3.130000000002181, -0.6433927906580033 
3.140000000002202, -0.6455266194689544 
3.150000000002223, -0.6477032320573326 
3.160000000002244, -0.6497653164906033 
3.1700000000022652, -0.6515601452478188 
3.1800000000022863, -0.652984669072507 
3.1900000000023074, -0.6540075980623502 
3.2000000000023285, -0.6546577756692459 
3.2100000000023496, -0.6549940900037123 
3.2200000000023707, -0.6550778023293915 
3.230000000002392, -0.6549565271526673 
3.240000000002413, -0.6546581204500297 
3.250000000002434, -0.6541893648319411 
3.260000000002455, -0.6535354301220966 
3.2700000000024763, -0.6526578331086565 
3.2800000000024974, -0.6514895772424404 
3.2900000000025185, -0.6499262574807716 
3.3000000000025396, -0.6478117900781307 
3.3100000000025607, -0.6449197454519908 
3.3200000000025818, -0.6409446436993387 
3.330000000002603, -0.6355542198675626 
3.340000000002624, -0.6285861590758107 
3.350000000002645, -0.62036587481692 
3.360000000002666, -0.6118302090132272 
3.3700000000026873, -0.6041454122914112 
3.3800000000027084, -0.5981065475082794 
3.3900000000027295, -0.5938881497517068 
3.4000000000027506, -0.591220676377514 
3.4100000000027717, -0.58967889884146 
3.420000000002793, -0.5888683645486779 
3.430000000002814, -0.5884921333866665 
3.440000000002835, -0.5883507603710387 
3.450000000002856, -0.588319294416976 
3.460000000002877, -0.588322538772861 
3.4700000000028983, -0.5883155775729916 
3.4800000000029194, -0.588270440516945 
3.4900000000029405, -0.588167970319158 
3.5000000000029616, -0.5879938984968123 
3.5100000000029827, -0.5877384537433888 
3.520000000003004, -0.587398708832931 
3.530000000003025, -0.5869819245193486 
3.540000000003046, -0.58650693386314 
3.550000000003067, -0.5860008466536393 
3.5600000000030882, -0.5854911899494534 
3.5700000000031094, -0.5849972349749522 
3.5800000000031305, -0.5845252285898213 
3.5900000000031516, -0.5840696503716138 
3.6000000000031727, -0.5836189427799419 
3.6100000000031938, -0.5831621927553543 
3.620000000003215, -0.5826938664221966 
3.630000000003236, -0.5822158724521805 
3.640000000003257, -0.5817381170292133 
3.650000000003278, -0.5812792815780734 
3.6600000000032993, -0.5808691274482511 
3.6700000000033204, -0.5805530156149648 
3.6800000000033415, -0.580398931769887 
3.6900000000033626, -0.5805070364610024 
3.7000000000033837, -0.5810212504879277 
3.710000000003405, -0.5821410396514235 
3.720000000003426, -0.5841283629858254 
3.730000000003447, -0.5872982503139352 
3.740000000003468, -0.5919713557486663 
3.750000000003489, -0.5983600883323568 
3.7600000000035103, -0.6063822245260113 
3.7700000000035314, -0.6154839648781867 
3.7800000000035525, -0.6246687647383964 
3.7900000000035736, -0.6328587737925186 
3.8000000000035947, -0.6393665225972253 
3.810000000003616, -0.6440756336472195 
3.820000000003637, -0.6472615919141531 
3.830000000003658, -0.6493186516207425 
3.840000000003679, -0.6505941249799602 
3.8500000000037002, -0.6513397738998298 
3.8600000000037213, -0.6517199953778712 
3.8700000000037424, -0.6518334437864642 
3.8800000000037635, -0.651731041053773 
3.8900000000037847, -0.6514266730683858 
3.9000000000038058, -0.6509011944650112 
3.910000000003827, -0.6501015606141927 
3.920000000003848, -0.6489383696501089 
3.930000000003869, -0.6472886340412757 
3.94000000000389, -0.6450157499845656 
3.9500000000039113, -0.6420187731010558 
3.9600000000039324, -0.6383047772035462 
3.9700000000039535, -0.6340412217474841 
3.9800000000039746, -0.6295327795637167 
3.9900000000039957, -0.6251220630002517 
4.000000000004016, -0.6210835364718903 
4.010000000003993, -0.6175745138439315 
4.02000000000397, -0.6146460695275767 
4.030000000003946, -0.6122799619974856 
4.040000000003923, -0.6104233369853855 
4.0500000000039, -0.6090112875859954 
4.0600000000038765, -0.6079785178036387 
4.070000000003853, -0.6072643463047533 
4.08000000000383, -0.606814536489584 
4.090000000003807, -0.6065819452656875 
4.100000000003783, -0.6065268428022752 
4.11000000000376, -0.6066171379636732 
4.120000000003737, -0.6068285117705362 
4.130000000003713, -0.6071444041652522 
4.14000000000369, -0.6075557111381331 
4.150000000003667, -0.6080597894228095 
4.1600000000036434, -0.608657975715921 
4.17000000000362, -0.6093506678424525 
4.180000000003597, -0.6101297298758614 
4.1900000000035735, -0.6109700272567078 
4.20000000000355, -0.6118246272098666 
4.210000000003527, -0.6126291064132513 
4.220000000003504, -0.6133163479964331 
4.23000000000348, -0.6138351624681806 
4.240000000003457, -0.6141617572019251 
4.250000000003434, -0.6142984315667175 
4.26000000000341, -0.6142633152586685 
4.270000000003387, -0.6140788482004038 
4.280000000003364, -0.613763914060603 
4.2900000000033405, -0.6133304595553782 
4.300000000003317, -0.6127835338432392 
4.310000000003294, -0.6121237913974141 
4.320000000003271, -0.6113522894380231 
4.330000000003247, -0.6104777820977024 
4.340000000003224, -0.6095254705328268 
4.350000000003201, -0.6085413682074091 
4.360000000003177, -0.607576825255389 
4.370000000003154, -0.6066314995572278 
4.380000000003131, -0.605563835158917 
4.390000000003107, -0.6040784282917414 
4.400000000003084, -0.6019450893213241 
4.410000000003061, -0.5993233589040126 
4.4200000000030375, -0.596749675098164 
4.430000000003014, -0.5947365380220573 
4.440000000002991, -0.5934717204328152 
4.450000000002968, -0.5928534043183997 
4.460000000002944, -0.5926676490850815 
4.470000000002921, -0.5927153244280774 
4.480000000002898, -0.5928558019431928 
4.490000000002874, -0.5930039594558807 
4.500000000002851, -0.5931130324473611 
4.510000000002828, -0.5931581324989004 
4.520000000002804, -0.593124398224589 
4.530000000002781, -0.5929996602583052 
4.540000000002758, -0.5927708005093688 
4.5500000000027345, -0.5924234719965089 
4.560000000002711, -0.5919453057116221 
4.570000000002688, -0.5913322201641511 
4.580000000002665, -0.5905954589480154 
4.590000000002641, -0.5897647065841792 
4.600000000002618, -0.5888832600445748 
4.610000000002595, -0.5879962878325597 
4.620000000002571, -0.5871386104447283 
4.630000000002548, -0.5863285408277933 
4.640000000002525, -0.5855694928511321 
4.6500000000025015, -0.5848564410167689 
4.660000000002478, -0.5841830801476664 
4.670000000002455, -0.5835470570284316 
4.6800000000024315, -0.5829528622157265 
4.690000000002408, -0.5824133657785985 
4.700000000002385, -0.5819512152802916 
4.710000000002362, -0.5816008805201808 
4.720000000002338, -0.581411611787804 
4.730000000002315, -0.5814512287216542 
4.740000000002292, -0.5818104232531358 
4.750000000002268, -0.5826069223094599 
4.760000000002245, -0.583988043368662 
4.770000000002222, -0.58612831865095 
4.7800000000021985, -0.5892153668041403 
4.790000000002175, -0.5934125423433346 
4.800000000002152, -0.598785870734881 
4.810000000002129, -0.6051987366263629 
4.820000000002105, -0.6122254159963008 
4.830000000002082, -0.6191874969339373 
4.840000000002059, -0.6253731605655735 
4.850000000002035, -0.6303181291230662 
4.860000000002012, -0.6339268167491664 
4.870000000001989, -0.63637633340158 
4.880000000001965, -0.6379431393467698 
4.890000000001942, -0.6388829781556067 
4.900000000001919, -0.6393866131797152 
4.9100000000018955, -0.6395789852377722 
4.920000000001872, -0.6395316803318141 
