t, s[1].omega / s[0].omega 
0, -0.11999783011174117 
0.009999999999999995, -0.11991919012630532 
0.019999999999999934, -0.12009724302481803 
0.029999999999999874, -0.1204802079748194 
0.04000000000000012, -0.12098536744417968 
0.050000000000000405, -0.12151355429940017 
0.06000000000000069, -0.12197258162482819 
0.07000000000000098, -0.1222966076570257 
0.08000000000000126, -0.12245028815407859 
0.09000000000000155, -0.12241873445521326 
0.10000000000000184, -0.12219189951647699 
0.11000000000000212, -0.12175024931568572 
0.12000000000000241, -0.12105414436301498 
0.130000000000002, -0.12003833314054294 
0.1400000000000009, -0.11861670012047618 
0.1499999999999998, -0.11670826004675088 
0.1599999999999987, -0.114292989602687 
0.1699999999999976, -0.11147829385345362 
0.1799999999999965, -0.10851422443790826 
0.1899999999999954, -0.1057104577748631 
0.1999999999999943, -0.10330823237549418 
0.2099999999999932, -0.10141205250900982 
0.2199999999999921, -0.10000870166611239 
0.229999999999991, -0.09902153600005063 
0.2399999999999899, -0.09835309597329302 
0.2499999999999888, -0.09790643542748934 
0.2599999999999877, -0.09759403578388996 
0.2699999999999866, -0.09734223545386689 
0.2799999999999855, -0.09709304277234895 
0.2899999999999844, -0.096802197581186 
0.2999999999999833, -0.09643292324706115 
0.3099999999999822, -0.09594585529232919 
0.3199999999999811, -0.09528504240960534 
0.32999999999998, -0.09435812679700817 
0.3399999999999789, -0.09300815101813878 
0.3499999999999778, -0.09098056637072896 
0.35999999999997667, -0.08791444110668967 
0.36999999999997557, -0.08343836107979725 
0.37999999999997447, -0.07745668012880612 
0.38999999999997337, -0.07048041875709526 
0.39999999999997227, -0.06353711390984702 
0.40999999999997117, -0.05756804928566769 
0.41999999999997006, -0.052969044797281185 
0.42999999999996896, -0.04965514232462761 
0.43999999999996786, -0.04734273494657828 
0.44999999999996676, -0.04574145951494072 
0.45999999999996566, -0.044620228118459684 
0.46999999999996456, -0.04381074539289349 
0.47999999999996346, -0.04319397417618457 
0.48999999999996235, -0.04268628095114158 
0.49999999999996125, -0.042228009216669915 
0.5099999999999602, -0.041773198379595956 
0.519999999999959, -0.041278482969089536 
0.529999999999958, -0.04068827461677138 
0.5399999999999568, -0.03991072426820887 
0.5499999999999557, -0.038774703697880705 
0.5599999999999546, -0.03695677145796354 
0.5699999999999535, -0.033891895604872574 
0.5799999999999524, -0.028790350975630225 
0.5899999999999513, -0.021058301079516454 
0.5999999999999502, -0.011163403802814904 
0.6099999999999491, -0.0008869142895561359 
0.619999999999948, 0.007502195767809049 
0.6299999999999469, 0.013592113421704697 
0.6399999999999458, 0.017637417067149903 
0.6499999999999447, 0.020184728545473422 
0.6599999999999436, 0.021732066380128416 
0.6699999999999425, 0.022637222907215954 
0.6799999999999414, 0.023138310326336262 
0.6899999999999403, 0.02339178895734188 
0.6999999999999392, 0.02350199901818393 
0.7099999999999381, 0.02354122940347781 
0.719999999999937, 0.023564596885620008 
0.7299999999999359, 0.023623985444122822 
0.7399999999999348, 0.023785450131030852 
0.7499999999999337, 0.02415630103864563 
0.7599999999999326, 0.02493032943677435 
0.7699999999999315, 0.026453799715397713 
0.7799999999999304, 0.029272452471126763 
0.7899999999999293, 0.03400476455970982 
0.7999999999999282, 0.040833903319746304 
0.8099999999999271, 0.048907459265791695 
0.819999999999926, 0.056624897894393414 
0.8299999999999249, 0.06277112661216927 
0.8399999999999238, 0.06706949404493104 
0.8499999999999227, 0.06983482847915184 
0.8599999999999216, 0.07151070090519616 
0.8699999999999205, 0.07246334678596963 
0.8799999999999194, 0.07295153363406527 
0.8899999999999183, 0.07315164113848939 
0.8999999999999172, 0.07318565696956812 
0.9099999999999161, 0.07314075923560058 
0.919999999999915, 0.0730826800882005 
0.9299999999999139, 0.07306704570528627 
0.9399999999999128, 0.07315176976210483 
0.9499999999999117, 0.0734125095909083 
0.9599999999999106, 0.07396196342797932 
0.9699999999999095, 0.07496885296931717 
0.9799999999999084, 0.07665711887026301 
0.9899999999999073, 0.07924021249526045 
0.9999999999999062, 0.08275261133375335 
1.0099999999999052, 0.0868695283932687 
1.019999999999904, 0.09096202638027376 
1.029999999999903, 0.09443684008610659 
1.039999999999902, 0.09701549280195712 
1.0499999999999008, 0.09872037047505838 
1.0599999999998997, 0.09971357289006355 
1.0699999999998986, 0.10017498815571542 
1.0799999999998975, 0.10025755655388217 
1.0899999999998964, 0.10008522490724614 
1.0999999999998953, 0.09976138981947284 
1.1099999999998942, 0.09937366239056238 
1.119999999999893, 0.09899394645944828 
1.129999999999892, 0.09867848725687355 
1.1399999999998909, 0.09847161654964844 
1.1499999999998898, 0.09841313050818432 
1.1599999999998887, 0.09854642383433036 
1.1699999999998876, 0.09892310551851927 
1.1799999999998865, 0.09959821186211612 
1.1899999999998854, 0.10060913443131499 
1.1999999999998843, 0.10193774397049338 
1.2099999999998832, 0.10347576136429475 
1.219999999999882, 0.10503207764163272 
1.229999999999881, 0.1063963965345031 
1.2399999999998799, 0.10741421822463619 
1.2499999999998788, 0.10801599571972073 
1.2599999999998777, 0.10819691171447472 
1.2699999999998766, 0.10798404918143967 
1.2799999999998755, 0.10741948489056716 
1.2899999999998744, 0.1065632280435869 
1.2999999999998733, 0.10550315166494677 
1.3099999999998722, 0.10435372966954677 
1.319999999999871, 0.10323494600002876 
1.32999999999987, 0.10224295185252638 
1.3399999999998689, 0.10143332554821778 
1.3499999999998678, 0.10082487883532268 
1.3599999999998666, 0.10041491398648601 
1.3699999999998655, 0.10019330466835216 
1.3799999999998644, 0.10014885671482099 
1.3899999999998633, 0.10026713737873424 
1.3999999999998622, 0.10052197568793349 
1.4099999999998611, 0.10086545473626267 
1.41999999999986, 0.10122361956952537 
1.429999999999859, 0.10150322546324905 
1.4399999999998578, 0.10160637723093595 
1.4499999999998567, 0.10144222755124217 
1.4599999999998556, 0.10092815462516276 
1.4699999999998545, 0.09998510054741375 
1.4799999999998534, 0.09854236564316582 
1.4899999999998523, 0.09656859321248135 
1.4999999999998512, 0.094129267735387 
1.5099999999998501, 0.09142979675102167 
1.519999999999849, 0.08877572120270358 
1.529999999999848, 0.0864459838577123 
1.5399999999998468, 0.08458345073316129 
1.5499999999998457, 0.08318824538545753 
1.5599999999998446, 0.08218202520825732 
1.5699999999998435, 0.08147031066080115 
1.5799999999998424, 0.08097268802820584 
1.5899999999998413, 0.08062775788684474 
1.5999999999998402, 0.08038640971790575 
1.6099999999998391, 0.08020181541735451 
1.619999999999838, 0.0800201268280771 
1.629999999999837, 0.0797737665706316 
1.6399999999998358, 0.07937731673499467 
1.6499999999998347, 0.07872345795929273 
1.6599999999998336, 0.07767531625834538 
1.6699999999998325, 0.07605582085105482 
1.6799999999998314, 0.07364787118117373 
1.6899999999998303, 0.07024185495040142 
1.6999999999998292, 0.0657781483337961 
1.709999999999828, 0.060554860941114994 
1.719999999999827, 0.055273805253129395 
1.729999999999826, 0.050706589678759184 
1.7399999999998248, 0.047253143677701046 
1.7499999999998237, 0.044862795784794095 
1.7599999999998226, 0.04326690759576803 
1.7699999999998215, 0.04219261519377427 
1.7799999999998204, 0.04144086175671073 
1.7899999999998193, 0.0408835535091525 
1.7999999999998182, 0.04043896421796918 
1.809999999999817, 0.040048835311696056 
1.819999999999816, 0.039661183133362976 
1.8299999999998149, 0.03921736629677192 
1.8399999999998138, 0.03864134674646526 
1.8499999999998127, 0.03782881861609575 
1.8599999999998116, 0.03663315636914306 
1.8699999999998105, 0.03484612396712797 
1.8799999999998094, 0.032179754353384445 
1.8899999999998083, 0.028281606336136734 
1.8999999999998072, 0.022860712892063883 
1.909999999999806, 0.01599717789234379 
1.919999999999805, 0.008464287150873748 
1.9299999999998039, 0.001529525696827765 
1.9399999999998028, -0.0035260618207057877 
1.9499999999998017, -0.006761588855726849 
1.9599999999998006, -0.008675243630882606 
1.9699999999997995, -0.009737416452127707 
1.9799999999997984, -0.010296813637813231 
1.9899999999997973, -0.010567869688690527 
1.9999999999997962, -0.01067473035484924 
2.0099999999998173, -0.010691905363026265 
2.0199999999998384, -0.0106715422273404 
2.0299999999998595, -0.010661107966091004 
2.0399999999998806, -0.010715925281490752 
2.0499999999999017, -0.010909425905115112 
2.059999999999923, -0.011343223166106614 
2.069999999999944, -0.012159130751771961 
2.079999999999965, -0.013553638889992947 
2.089999999999986, -0.015786745161758133 
2.100000000000007, -0.019154393514282653 
2.1100000000000283, -0.02386273372196268 
2.1200000000000494, -0.029769568040559163 
2.1300000000000705, -0.03616837076052763 
2.1400000000000916, -0.042006634886716125 
2.1500000000001127, -0.04651403706059075 
2.160000000000134, -0.04955634979727323 
2.170000000000155, -0.05142914614222384 
2.180000000000176, -0.05251351058278401 
2.190000000000197, -0.05310584604631402 
2.2000000000002182, -0.05339661506994055 
2.2100000000002393, -0.05349975041387066 
2.2200000000002604, -0.0534843329674138 
2.2300000000002815, -0.05339771899065264 
2.2400000000003026, -0.05328148447783286 
2.2500000000003237, -0.05318275717051289 
2.260000000000345, -0.0531621654294238 
2.270000000000366, -0.05329888808128534 
2.280000000000387, -0.05369373311252786 
2.290000000000408, -0.05447105938401916 
2.3000000000004293, -0.05577628678971343 
2.3100000000004504, -0.05775591723085377 
2.3200000000004715, -0.060497848627535974 
2.3300000000004926, -0.06392629622984582 
2.3400000000005137, -0.06771743058235358 
2.3500000000005348, -0.0713671439586885 
2.360000000000556, -0.07442664759972638 
2.370000000000577, -0.07669821519624234 
2.380000000000598, -0.07822709964995292 
2.390000000000619, -0.07917147535014862 
2.4000000000006403, -0.07969426409337096 
2.4100000000006614, -0.07991939808756836 
2.4200000000006825, -0.07992881654130282 
2.4300000000007036, -0.07977396298999137 
2.4400000000007247, -0.07948979856251992 
2.450000000000746, -0.0791080833266034 
2.460000000000767, -0.07866876059669671 
2.470000000000788, -0.07822722842444235 
2.480000000000809, -0.07785486525557983 
2.49000000000083, -0.07763284916058338 
2.5000000000008513, -0.07764315641184699 
2.5100000000008724, -0.07796032745101004 
2.5200000000008935, -0.07864178640068405 
2.5300000000009146, -0.07970963540219488 
2.5400000000009357, -0.08112230171159882 
2.550000000000957, -0.08275317730734158 
2.560000000000978, -0.08440784471092534 
2.570000000000999, -0.08588836992179091 
2.58000000000102, -0.08706246190272468 
2.5900000000010412, -0.08788665172361738 
2.6000000000010624, -0.08838125396125111 
2.6100000000010835, -0.088591026135633 
2.6200000000011046, -0.08855720147952492 
2.6300000000011257, -0.08830557901349435 
2.6400000000011468, -0.0878461361656384 
2.650000000001168, -0.08718041755416892 
2.660000000001189, -0.08631537960999852 
2.67000000000121, -0.08528121353641643 
2.680000000001231, -0.08414507101077565 
2.6900000000012523, -0.08300874591299263 
2.7000000000012734, -0.08198630051363462 
2.7100000000012945, -0.08117445801588248 
2.7200000000013156, -0.08063416425086582 
2.7300000000013367, -0.08038824143342828 
2.740000000001358, -0.08042573681727695 
2.750000000001379, -0.08070389886612592 
2.7600000000014, -0.08114909240632368 
2.770000000001421, -0.08166522935046737 
2.780000000001442, -0.08215351461842298 
2.7900000000014633, -0.08253465982526129 
2.8000000000014844, -0.0827598741892654 
2.8100000000015055, -0.08280615119585183 
2.8200000000015266, -0.08266234497023442 
2.8300000000015477, -0.08231450113488704 
2.840000000001569, -0.08173498127099824 
2.85000000000159, -0.08087739393824796 
2.860000000001611, -0.07968096144643556 
2.870000000001632, -0.07809141208804127 
2.8800000000016532, -0.07610286930627672 
2.8900000000016743, -0.07380556615699135 
2.9000000000016954, -0.07139617038250237 
2.9100000000017165, -0.06911839364398162 
2.9200000000017377, -0.0671691323007757 
2.9300000000017588, -0.06564368674382348 
2.94000000000178, -0.06454434165246853 
2.950000000001801, -0.0638181143541766 
2.960000000001822, -0.06338803759444037 
2.970000000001843, -0.063169131982686 
2.9800000000018643, -0.06307629870790762 
2.9900000000018854, -0.0630312719853636 
3.0000000000019065, -0.06296912170605182 
3.0100000000019276, -0.0628407006693274 
3.0200000000019487, -0.06260878877127374 
3.03000000000197, -0.062238963268613855 
3.040000000001991, -0.061687414780849645 
3.050000000002012, -0.06088714855590823 
3.060000000002033, -0.05973434531541225 
3.070000000002054, -0.058081962661450534 
3.0800000000020753, -0.05576037970536089 
3.0900000000020964, -0.05265527312059246 
3.1000000000021175, -0.04884088725064341 
3.1100000000021386, -0.044664686601913646 
3.1200000000021597, -0.04063852644447774 
3.130000000002181, -0.03718715753670218 
3.140000000002202, -0.03449132443196379 
3.150000000002223, -0.03252036394142929 
3.160000000002244, -0.03114323836032567 
3.1700000000022652, -0.030210567996125787 
3.1800000000022863, -0.02958855057571285 
3.1900000000023074, -0.029165938801299383 
3.2000000000023285, -0.028852888061164643 
3.2100000000023496, -0.028578792576900536 
3.2200000000023707, -0.028289031327790325 
3.230000000002392, -0.027939003678681223 
3.240000000002413, -0.02748478626142333 
3.250000000002434, -0.02687020484156318 
3.260000000002455, -0.02600960363941906 
3.2700000000024763, -0.024766295681335523 
3.2800000000024974, -0.022933768970281418 
3.2900000000025185, -0.020247910343318527 
3.3000000000025396, -0.01648766005429394 
3.3100000000025607, -0.011690930471761774 
3.3200000000025818, -0.006329623786441819 
3.330000000002603, -0.001158170387226616 
3.340000000002624, 0.0028793065302336737 
3.350000000002645, 0.005775288442718877 
3.360000000002666, 0.007721381681271938 
3.3700000000026873, 0.008923244890604753 
3.3800000000027084, 0.009588862157250935 
3.3900000000027295, 0.00988875157841119 
3.4000000000027506, 0.009954609626324173 
3.4100000000027717, 0.009887213140174676 
3.420000000002793, 0.009763509369978825 
3.430000000002814, 0.00964270069635957 
3.440000000002835, 0.009573505128023617 
3.450000000002856, 0.009604024236241798 
3.460000000002877, 0.00979496122775559 
3.4700000000028983, 0.010236869280599987 
3.4800000000029194, 0.011070374730478075 
3.4900000000029405, 0.012499491019316588 
3.5000000000029616, 0.014766177528202532 
3.5100000000029827, 0.018033682411242938 
3.520000000003004, 0.022181756040584154 
3.530000000003025, 0.026698301306968937 
3.540000000003046, 0.030891115311379995 
3.550000000003067, 0.03426554780030058 
3.5600000000030882, 0.0366837346501324 
3.5700000000031094, 0.03825459822237145 
3.5800000000031305, 0.03917022267925407 
3.5900000000031516, 0.03961443167799618 
3.6000000000031727, 0.03973736877597075 
3.6100000000031938, 0.03965788957082157 
3.620000000003215, 0.039470425034203185 
3.630000000003236, 0.039249549457408266 
3.640000000003257, 0.03905373122071925 
3.650000000003278, 0.038931104512942016 
3.6600000000032993, 0.03892837335532507 
3.6700000000033204, 0.03910237227574562 
3.6800000000033415, 0.0395328079831227 
3.6900000000033626, 0.040331920011691655 
3.7000000000033837, 0.041638993781696346 
3.710000000003405, 0.04357692166777622 
3.720000000003426, 0.046156111758389996 
3.730000000003447, 0.04917393857474301 
3.740000000003468, 0.052232312406072734 
3.750000000003489, 0.05491663792121976 
3.7600000000035103, 0.05698010143648611 
3.7700000000035314, 0.05837849364008979 
3.7800000000035525, 0.05919098241345742 
3.7900000000035736, 0.059536334075492005 
3.8000000000035947, 0.0595314017510468 
3.810000000003616, 0.05928200920160218 
3.820000000003637, 0.05888465602416952 
3.830000000003658, 0.058426187579924606 
3.840000000003679, 0.05797979392845588 
3.8500000000037002, 0.057602115321747284 
3.8600000000037213, 0.05733559963716646 
3.8700000000037424, 0.05721595088967672 
3.8800000000037635, 0.057281467680647714 
3.8900000000037847, 0.05758023919407225 
3.9000000000038058, 0.0581702032245915 
3.910000000003827, 0.059105001494405084 
3.920000000003848, 0.06040006429147106 
3.930000000003869, 0.061988406451355726 
3.94000000000389, 0.06370216251276037 
3.9500000000039113, 0.06531596920222069 
3.9600000000039324, 0.06663228496077747 
3.9700000000039535, 0.06754070898678864 
3.9800000000039746, 0.06801699995656055 
3.9900000000039957, 0.06808880856448177 
4.000000000004016, 0.06780689484795627 
4.010000000003993, 0.06723593552011703 
4.02000000000397, 0.06645729464347745 
4.030000000003946, 0.06556884163880572 
4.040000000003923, 0.06467272209627276 
4.0500000000039, 0.06385588449462645 
4.0600000000038765, 0.06317681859878567 
4.070000000003853, 0.06266618759119194 
4.08000000000383, 0.06233744119038113 
4.090000000003807, 0.06219869454920947 
4.100000000003783, 0.062259527207493434 
4.11000000000376, 0.06252969807436351 
4.120000000003737, 0.06300877721917283 
4.130000000003713, 0.06366900465303242 
4.14000000000369, 0.06444056405408119 
4.150000000003667, 0.06521350889467692 
4.1600000000036434, 0.06586206041901733 
4.17000000000362, 0.06627684611777429 
4.180000000003597, 0.06638288718439546 
4.1900000000035735, 0.06613733568190053 
4.20000000000355, 0.06552034785041902 
4.210000000003527, 0.06453557977616585 
4.220000000003504, 0.06322543692826631 
4.23000000000348, 0.061688562363675106 
4.240000000003457, 0.06007473773724146 
4.250000000003434, 0.05854507760818839 
4.26000000000341, 0.05722079579395093 
4.270000000003387, 0.05615811642002555 
4.280000000003364, 0.055359155819186046 
4.2900000000033405, 0.05479880333257251 
4.300000000003317, 0.05444667265866966 
4.310000000003294, 0.0542768509686389 
4.320000000003271, 0.05426709632171591 
4.330000000003247, 0.05439123830751376 
4.340000000003224, 0.0546090154842123 
4.350000000003201, 0.05485889633642702 
4.360000000003177, 0.055059234572687445 
4.370000000003154, 0.05511802097314611 
4.380000000003131, 0.05494424456535223 
4.390000000003107, 0.05445305094601051 
4.400000000003084, 0.05356541185242569 
4.410000000003061, 0.052213611387947244 
4.4200000000030375, 0.050367192382710736 
4.430000000003014, 0.048081145312978774 
4.440000000002991, 0.045534050904631085 
4.450000000002968, 0.042998878580326874 
4.460000000002944, 0.040736878039472964 
4.470000000002921, 0.038896565870754754 
4.480000000002898, 0.03749689672252621 
4.490000000002874, 0.03647826802325095 
4.500000000002851, 0.03575956815077666 
4.510000000002828, 0.03526946440619134 
4.520000000002804, 0.034954073207290534 
4.530000000002781, 0.034772137692906865 
4.540000000002758, 0.03468551212945668 
4.5500000000027345, 0.03464927636320332 
4.560000000002711, 0.03460467804541923 
4.570000000002688, 0.0344771352296344 
4.580000000002665, 0.034178624769141866 
4.590000000002641, 0.03361047591405166 
4.600000000002618, 0.032663484170222176 
4.610000000002595, 0.031219699143833435 
4.620000000002571, 0.02917105344854501 
4.630000000002548, 0.026474149254388894 
4.640000000002525, 0.023236221822324935 
4.6500000000025015, 0.019762869101561033 
4.660000000002478, 0.016470357334858333 
4.670000000002455, 0.013691468190091599 
4.6800000000024315, 0.01154994755065906 
4.690000000002408, 0.009992188337621206 
4.700000000002385, 0.00889049144507641 
4.710000000002362, 0.008119076568405968 
4.720000000002338, 0.00758205923091756 
4.730000000002315, 0.0072129735444991004 
4.740000000002292, 0.006964164711518757 
4.750000000002268, 0.006794496991357248 
4.760000000002245, 0.0066584471587430695 
4.770000000002222, 0.006498334182814735 
4.7800000000021985, 0.006240864750716788 
4.790000000002175, 0.005797237542849833 
4.800000000002152, 0.00506388545477668 
4.810000000002129, 0.003922368749893672 
4.820000000002105, 0.00224441475740791 
4.830000000002082, -0.00006729926823229177 
