t, s[1].omega / s[0].omega 
0, -0.6099977240671073 
0.009999999999999995, -0.6097740455137319 
0.019999999999999934, -0.6095521083661378 
0.029999999999999874, -0.6093167980497419 
0.04000000000000012, -0.6090506584628623 
0.050000000000000405, -0.608740713478418 
0.06000000000000069, -0.608382308910381 
0.07000000000000098, -0.6079796681539014 
0.08000000000000126, -0.6075450638948101 
0.09000000000000155, -0.6070988916344799 
0.10000000000000184, -0.606672165225838 
0.11000000000000212, -0.6063121845284888 
0.12000000000000241, -0.606091758916887 
0.130000000000002, -0.6061221334957602 
0.1400000000000009, -0.6065690892139262 
0.1499999999999998, -0.6076697547590365 
0.1599999999999987, -0.6097431476602695 
0.1699999999999976, -0.613178558723171 
0.1799999999999965, -0.618372670936603 
0.1899999999999954, -0.6255795354759675 
0.1999999999999943, -0.6346732411430549 
0.2099999999999932, -0.6449446450217317 
0.2199999999999921, -0.6551846800803693 
0.229999999999991, -0.6641652812611286 
0.2399999999999899, -0.6711795862284201 
0.2499999999999888, -0.6761806012502478 
0.2599999999999877, -0.6795257880451211 
0.2699999999999866, -0.6816672740185539 
0.2799999999999855, -0.6829854772614036 
0.2899999999999844, -0.6837496386309351 
0.2999999999999833, -0.6841330121101908 
0.3099999999999822, -0.684238151726991 
0.3199999999999811, -0.6841164565653732 
0.32999999999998, -0.6837791058941916 
0.3399999999999789, -0.6832002547390353 
0.3499999999999778, -0.6823142172168686 
0.35999999999997667, -0.6810098515315075 
0.36999999999997557, -0.6791297523028581 
0.37999999999997447, -0.6764894976807625 
0.38999999999997337, -0.6729359314180215 
0.39999999999997227, -0.6684440618271694 
0.40999999999997117, -0.6632008877248031 
0.41999999999997006, -0.6575932921359543 
0.42999999999996896, -0.6520816264695363 
0.43999999999996786, -0.6470478981189414 
0.44999999999996676, -0.6427166628401769 
0.45999999999996566, -0.6391624516817914 
0.46999999999996456, -0.6363583934679246 
0.47999999999996346, -0.6342246839769837 
0.48999999999996235, -0.6326613958308422 
0.49999999999996125, -0.6315665983930651 
0.5099999999999602, -0.630845246306716 
0.519999999999959, -0.6304132743424338 
0.529999999999958, -0.6301993222596396 
0.5399999999999568, -0.6301451272028842 
0.5499999999999557, -0.630205028206429 
0.5599999999999546, -0.6303449235661958 
0.5699999999999535, -0.630541052495402 
0.5799999999999524, -0.6307788676082102 
0.5899999999999513, -0.6310518821797511 
0.5999999999999502, -0.631359793163164 
0.6099999999999491, -0.6317048346876264 
0.619999999999948, -0.6320858944108096 
0.6299999999999469, -0.632491709729483 
0.6399999999999458, -0.6328965517669297 
0.6499999999999447, -0.6332621858833613 
0.6599999999999436, -0.6335469273843456 
0.6699999999999425, -0.6337175354740611 
0.6799999999999414, -0.6337571547840171 
0.6899999999999403, -0.6336656580595134 
0.6999999999999392, -0.6334543946989271 
0.7099999999999381, -0.6331400624187955 
0.719999999999937, -0.6327412559985355 
0.7299999999999359, -0.6322790819307607 
0.7399999999999348, -0.6317822363996987 
0.7499999999999337, -0.6312972260315357 
0.7599999999999326, -0.6309051091558435 
0.7699999999999315, -0.630746134788935 
0.7799999999999304, -0.6310511892801174 
0.7899999999999293, -0.6321707772479592 
0.7999999999999282, -0.6345740600504798 
0.8099999999999271, -0.6387638785357856 
0.819999999999926, -0.6450488182398526 
0.8299999999999249, -0.6532095453331989 
0.8399999999999238, -0.6623233381898371 
0.8499999999999227, -0.67107889427046 
0.8599999999999216, -0.6784399288919357 
0.8699999999999205, -0.6840353008585286 
0.8799999999999194, -0.6880214522072517 
0.8899999999999183, -0.6907545221077738 
0.8999999999999172, -0.69257993893654 
0.9099999999999161, -0.6937647639430762 
0.919999999999915, -0.6944970770748127 
0.9299999999999139, -0.6949022930419668 
0.9399999999999128, -0.6950586720042032 
0.9499999999999117, -0.6950080781499033 
0.9599999999999106, -0.6947618550814864 
0.9699999999999095, -0.6943025242801817 
0.9799999999999084, -0.6935826265680357 
0.9899999999999073, -0.6925236529805445 
0.9999999999999062, -0.6910212717095384 
1.0099999999999052, -0.6889665019382241 
1.019999999999904, -0.6862896796779265 
1.029999999999903, -0.6830162464246022 
1.039999999999902, -0.6792977418304998 
1.0499999999999008, -0.675382962227182 
1.0599999999998997, -0.6715404929497771 
1.0699999999998986, -0.6679851103332324 
1.0799999999998975, -0.6648467694342002 
1.0899999999998964, -0.6621792126028551 
1.0999999999998953, -0.6599846760773523 
1.1099999999998942, -0.6582366589423784 
1.119999999999893, -0.656894684898217 
1.129999999999892, -0.6559121203264937 
1.1399999999998909, -0.6552400413599273 
1.1499999999998898, -0.6548295583310431 
1.1599999999998887, -0.6546338206482226 
1.1699999999998876, -0.6546099758244669 
1.1799999999998865, -0.6547208840530808 
1.1899999999998854, -0.6549363383101616 
1.1999999999998843, -0.6552336898297908 
1.2099999999998832, -0.6555978560838758 
1.219999999999882, -0.6560205025284314 
1.229999999999881, -0.6564978056423443 
1.2399999999998799, -0.6570260776011573 
1.2499999999998788, -0.6575953365129175 
1.2599999999998777, -0.6581828429737672 
1.2699999999998766, -0.658750589313581 
1.2799999999998755, -0.659250369334033 
1.2899999999998744, -0.6596358153218703 
1.2999999999998733, -0.6598751597336603 
1.3099999999998722, -0.6599573195655524 
1.319999999999871, -0.6598891547549248 
1.32999999999987, -0.6596878906186225 
1.3399999999998689, -0.6593742026490754 
1.3499999999998678, -0.6589691642752548 
1.3599999999998666, -0.6584958989289299 
1.3699999999998655, -0.6579861332256643 
1.3799999999998644, -0.6574924664920022 
1.3899999999998633, -0.6571079374250861 
1.3999999999998622, -0.6569940894211184 
1.4099999999998611, -0.6574151560206036 
1.41999999999986, -0.6587657352822627 
1.429999999999859, -0.6615588731296274 
1.4399999999998578, -0.6663162745205449 
1.4499999999998567, -0.6733099020324599 
1.4599999999998556, -0.6822225743804842 
1.4699999999998545, -0.6920181904038096 
1.4799999999998534, -0.7013176256213794 
1.4899999999998523, -0.7090707901275369 
1.4999999999998512, -0.7149167091823485 
1.5099999999998501, -0.7190324127855061 
1.519999999999849, -0.7218043865979442 
1.529999999999848, -0.7236110415006403 
1.5399999999998468, -0.724746076458028 
1.5499999999998457, -0.725414268817421 
1.5599999999998446, -0.7257487846631236 
1.5699999999998435, -0.7258289782069134 
1.5799999999998424, -0.7256927319711943 
1.5899999999998413, -0.7253425279016039 
1.5999999999998402, -0.7247457984811903 
1.6099999999998391, -0.7238308857520658 
1.619999999999838, -0.7224820785581452 
1.629999999999837, -0.7205422082172792 
1.6399999999998358, -0.7178381437490278 
1.6499999999998347, -0.7142440387546494 
1.6599999999998336, -0.7097721642167324 
1.6699999999998325, -0.704634950191437 
1.6799999999998314, -0.6992117990077492 
1.6899999999998303, -0.6939264861340171 
1.6999999999998292, -0.6891207585528553 
1.709999999999828, -0.6849959790094872 
1.719999999999827, -0.6816230442891485 
1.729999999999826, -0.6789820531574321 
1.7399999999998248, -0.6770011198828768 
1.7499999999998237, -0.6755837869290687 
1.7599999999998226, -0.6746260935754014 
1.7699999999998215, -0.6740270628523908 
1.7799999999998204, -0.673695257168212 
1.7899999999998193, -0.673552549499336 
1.7999999999998182, -0.673535548694055 
1.809999999999817, -0.6735951417700344 
1.819999999999816, -0.6736949015273892 
1.8299999999998149, -0.6738092438021892 
1.8399999999998138, -0.6739219902648127 
1.8499999999998127, -0.674025357033247 
1.8599999999998116, -0.6741185543233748 
1.8699999999998105, -0.6742047729924083 
1.8799999999998094, -0.6742861293669884 
1.8899999999998083, -0.6743580933919491 
1.8999999999998072, -0.6744065332263531 
1.909999999999806, -0.6744098782626704 
1.919999999999805, -0.6743458154105398 
1.9299999999998039, -0.67419874301605 
1.9399999999998028, -0.6739639686163856 
1.9499999999998017, -0.6736476138910812 
1.9599999999998006, -0.6732643667730583 
1.9699999999997995, -0.6728360905535028 
1.9799999999997984, -0.6723932851803467 
1.9899999999997973, -0.6719801498082927 
1.9999999999997962, -0.6716632670168544 
2.0099999999998173, -0.6715434166786193 
2.0199999999998384, -0.6717691273132111 
2.0299999999998595, -0.6725488076226501 
2.0399999999998806, -0.6741553237890032 
2.0499999999999017, -0.6769124102427293 
2.059999999999923, -0.681146772676847 
2.069999999999944, -0.6870875696939024 
2.079999999999965, -0.694710785766339 
2.089999999999986, -0.7035824127105398 
2.100000000000007, -0.7128379730657738 
2.1100000000000283, -0.7214272552721872 
2.1200000000000494, -0.7285327124460884 
2.1300000000000705, -0.7338444174316955 
2.1400000000000916, -0.73750702523687 
2.1500000000001127, -0.7398804665565254 
2.160000000000134, -0.741336051228657 
2.170000000000155, -0.7421650547203675 
2.180000000000176, -0.7425653757847359 
2.190000000000197, -0.7426576522168866 
2.2000000000002182, -0.742504036832701 
2.2100000000002393, -0.7421202540886244 
2.2200000000002604, -0.7414788889218832 
2.2300000000002815, -0.7405036469012055 
2.2400000000003026, -0.739054716376294 
2.2500000000003237, -0.7369077983778951 
2.260000000000345, -0.733738551259934 
2.270000000000366, -0.7291449319544733 
2.280000000000387, -0.7227629675569778 
2.290000000000408, -0.7145050704453839 
2.3000000000004293, -0.7048092368366521 
2.3100000000004504, -0.6946397542059302 
2.3200000000004715, -0.6851272576858853 
2.3300000000004926, -0.6771141780977197 
2.3400000000005137, -0.6709457289099736 
2.3500000000005348, -0.6665475527627234 
2.360000000000556, -0.6636175093328134 
2.370000000000577, -0.6617892993102472 
2.380000000000598, -0.6607264394175045 
2.390000000000619, -0.6601597688022233 
2.4000000000006403, -0.659892030876008 
2.4100000000006614, -0.6597872901547679 
2.4200000000006825, -0.6597556647514643 
2.4300000000007036, -0.6597387177049232 
2.4400000000007247, -0.6596978149987214 
2.450000000000746, -0.6596062112794041 
2.460000000000767, -0.6594449670398767 
2.470000000000788, -0.6592023915614208 
2.480000000000809, -0.6588759201553025 
2.49000000000083, -0.658474072599707 
2.5000000000008513, -0.6580154711127515 
2.5100000000008724, -0.6575234242912761 
2.5200000000008935, -0.6570180447642768 
2.5300000000009146, -0.6565102655303952 
2.5400000000009357, -0.6560009994715887 
2.550000000000957, -0.6554851887289735 
2.560000000000978, -0.6549577740311415 
2.570000000000999, -0.6544185360869996 
2.58000000000102, -0.6538746743950045 
2.5900000000010412, -0.6533419136614566 
2.6000000000010624, -0.6528455554060203 
2.6100000000010835, -0.6524223849120504 
2.6200000000011046, -0.6521235124027638 
2.6300000000011257, -0.6520175950573766 
2.6400000000011468, -0.6521935508087477 
2.650000000001168, -0.652761743466715 
2.660000000001189, -0.6538524949194761 
2.67000000000121, -0.6556102905598814 
2.680000000001231, -0.6581807006767351 
2.6900000000012523, -0.661684810692192 
2.7000000000012734, -0.6661747228766759 
2.7100000000012945, -0.6715693742871067 
2.7200000000013156, -0.6775912924765098 
2.7300000000013367, -0.6837586471574733 
2.740000000001358, -0.6894910814171581 
2.750000000001379, -0.6943077169881015 
2.7600000000014, -0.6979859944654524 
2.770000000001421, -0.7005691815684817 
2.780000000001442, -0.7022544390065806 
2.7900000000014633, -0.7032710376478493 
2.8000000000014844, -0.7038111724555699 
2.8100000000015055, -0.7040098251326145 
2.8200000000015266, -0.7039483957566904 
2.8300000000015477, -0.7036634699461672 
2.840000000001569, -0.7031521559522882 
2.85000000000159, -0.7023708432178729 
2.860000000001611, -0.7012259564320937 
2.870000000001632, -0.6995559786055133 
2.8800000000016532, -0.697107058789822 
2.8900000000016743, -0.693515625035722 
2.9000000000016954, -0.6883372104048028 
2.9100000000017165, -0.6811898883676776 
2.9200000000017377, -0.6720436841652176 
2.9300000000017588, -0.6614988226610803 
2.94000000000178, -0.6507217297450795 
2.950000000001801, -0.6409549508407876 
2.960000000001822, -0.6330021994988484 
2.970000000001843, -0.6270770117551983 
2.9800000000018643, -0.6229715375131584 
2.9900000000018854, -0.6202979146716217 
3.0000000000019065, -0.6186555427320449 
3.0100000000019276, -0.6177080436967615 
3.0200000000019487, -0.6172023232512885 
3.03000000000197, -0.6169606195956241 
3.040000000001991, -0.6168637441913931 
3.050000000002012, -0.6168340515226037 
3.060000000002033, -0.6168214024657466 
3.070000000002054, -0.6167929760653819 
3.0800000000020753, -0.616726879136899 
3.0900000000020964, -0.6166092125503755 
3.1000000000021175, -0.6164339278294547 
3.1100000000021386, -0.616204048695337 
3.1200000000021597, -0.6159319039670255 
3.130000000002181, -0.6156360843502144 
3.140000000002202, -0.6153348840288898 
3.150000000002223, -0.6150389926083658 
3.160000000002244, -0.6147474920466828 
3.1700000000022652, -0.6144494226164322 
3.1800000000022863, -0.6141297500603902 
3.1900000000023074, -0.6137761846005401 
3.2000000000023285, -0.6133836523465286 
3.2100000000023496, -0.612955652286056 
3.2200000000023707, -0.6125039991685746 
3.230000000002392, -0.6120490873168002 
3.240000000002413, -0.611622195945834 
3.250000000002434, -0.6112705523863821 
3.260000000002455, -0.6110653741183428 
3.2700000000024763, -0.6111127679589301 
3.2800000000024974, -0.6115667369574859 
3.2900000000025185, -0.6126420384296373 
3.3000000000025396, -0.6146213285256611 
3.3100000000025607, -0.6178446313021453 
3.3200000000025818, -0.6226594432124559 
3.330000000002603, -0.6293033332534609 
3.340000000002624, -0.6377120872446091 
3.350000000002645, -0.6473317017905721 
3.360000000002666, -0.6571299689876234 
3.3700000000026873, -0.665951863459846 
3.3800000000027084, -0.6730196548292586 
3.3900000000027295, -0.6781591137210186 
3.4000000000027506, -0.6816378521952304 
3.4100000000027717, -0.683874993315883 
3.420000000002793, -0.6852510637636279 
3.430000000002814, -0.6860456399314236 
3.440000000002835, -0.6864419978783648 
3.450000000002856, -0.6865497327838027 
3.460000000002877, -0.6864245163739526 
3.4700000000028983, -0.6860797135848047 
3.4800000000029194, -0.6854898324964761 
3.4900000000029405, -0.6845870327264031 
3.5000000000029616, -0.6832532187120004 
3.5100000000029827, -0.6813144964450183 
3.520000000003004, -0.6785537360884497 
3.530000000003025, -0.6747657422360678 
3.540000000003046, -0.6698670545146921 
3.550000000003067, -0.6640155479959449 
3.5600000000030882, -0.6576344197347482 
3.5700000000031094, -0.6512817904646888 
3.5800000000031305, -0.6454520781625681 
3.5900000000031516, -0.6404500012451633 
3.6000000000031727, -0.6363823981470065 
3.6100000000031938, -0.6332169969743118 
3.620000000003215, -0.6308482859268116 
3.630000000003236, -0.6291441176955257 
3.640000000003257, -0.627971879884696 
3.650000000003278, -0.6272110751973718 
3.6600000000032993, -0.6267584628237464 
3.6700000000033204, -0.6265293780041515 
3.6800000000033415, -0.6264570101047362 
3.6900000000033626, -0.6264905627708356 
3.7000000000033837, -0.6265929532165458 
3.710000000003405, -0.6267386206397336 
3.720000000003426, -0.6269118285342777 
3.730000000003447, -0.627105411171173 
3.740000000003468, -0.6273192624934121 
3.750000000003489, -0.627557377951056 
3.7600000000035103, -0.6278226369083912 
3.7700000000035314, -0.6281101476989581 
3.7800000000035525, -0.6284021111264562 
3.7900000000035736, -0.6286679257884601 
3.8000000000035947, -0.6288710479827413 
3.810000000003616, -0.6289796305131097 
3.820000000003637, -0.6289749577807175 
3.830000000003658, -0.6288535226064642 
3.840000000003679, -0.6286235186921897 
3.8500000000037002, -0.628299702720545 
3.8600000000037213, -0.6279002082298922 
3.8700000000037424, -0.6274470488168473 
3.8800000000037635, -0.6269709365776783 
3.8900000000037847, -0.6265210837379475 
3.9000000000038058, -0.6261811750792534 
3.910000000003827, -0.6260926812448262 
3.920000000003848, -0.6264845958421313 
3.930000000003869, -0.6277017708602457 
3.94000000000389, -0.63020836783581 
3.9500000000039113, -0.6345182860847054 
3.9600000000039324, -0.6409923228362616 
3.9700000000039535, -0.6495104809541687 
3.9800000000039746, -0.6592339646654153 
3.9900000000039957, -0.6688128541929177 
4.000000000004016, -0.6770395882586896 
4.010000000003993, -0.6833680516721421 
4.02000000000397, -0.6878819963887898 
4.030000000003946, -0.6909564295146573 
4.040000000003923, -0.6929891939158512 
4.0500000000039, -0.6942959452202747 
4.0600000000038765, -0.6950989865875971 
4.070000000003853, -0.6955452091546201 
4.08000000000383, -0.6957257470363564 
4.090000000003807, -0.695690134818621 
4.100000000003783, -0.6954543472790821 
4.11000000000376, -0.6950036094443203 
4.120000000003737, -0.6942913997531523 
4.130000000003713, -0.6932374437808919 
4.14000000000369, -0.6917307258712851 
4.150000000003667, -0.689647865279643 
4.1600000000036434, -0.6868967101941961 
4.17000000000362, -0.6834788910809555 
4.180000000003597, -0.6795349012989303 
4.1900000000035735, -0.6753264492248198 
4.20000000000355, -0.6711555933928085 
4.210000000003527, -0.6672757090745352 
4.220000000003504, -0.6638463008530551 
4.23000000000348, -0.660936510437774 
4.240000000003457, -0.6585519084268507 
4.250000000003434, -0.6566616987970104 
4.26000000000341, -0.6552173476152259 
4.270000000003387, -0.654162961134415 
4.280000000003364, -0.6534406374561372 
4.2900000000033405, -0.6529935790142145 
4.300000000003317, -0.6527684465115379 
4.310000000003294, -0.6527173676601123 
4.320000000003271, -0.6527994925409233 
4.330000000003247, -0.6529819354768482 
4.340000000003224, -0.6532401087209261 
4.350000000003201, -0.6535575439707924 
4.360000000003177, -0.6539251096576006 
4.370000000003154, -0.6543390984466939 
4.380000000003131, -0.6547973917551679 
4.390000000003107, -0.6552934875629981 
4.400000000003084, -0.6558099278841947 
4.410000000003061, -0.6563147088658029 
4.4200000000030375, -0.6567644566428108 
4.430000000003014, -0.6571147461010589 
4.440000000002991, -0.657332529288459 
4.450000000002968, -0.6574034717640347 
4.460000000002944, -0.6573309951477333 
4.470000000002921, -0.6571298749737221 
4.480000000002898, -0.656819603596164 
4.490000000002874, -0.6564210635193559 
4.500000000002851, -0.6559577164627545 
4.510000000002828, -0.6554616139232519 
4.520000000002804, -0.6549849380518933 
4.530000000002781, -0.654618466300167 
4.540000000002758, -0.6545181006996675 
4.5500000000027345, -0.6549375939991119 
4.560000000002711, -0.6562567829229848 
4.570000000002688, -0.6589765048148791 
4.580000000002665, -0.6636268454975347 
4.590000000002641, -0.6705336994513854 
4.600000000002618, -0.6794814984827753 
4.610000000002595, -0.6895230880637098 
4.620000000002571, -0.6992653638298034 
4.630000000002548, -0.7075370166719442 
4.640000000002525, -0.7138476038924966 
4.6500000000025015, -0.7183132198693906 
4.660000000002478, -0.7213224544263293 
4.670000000002455, -0.7232814175217406 
4.6800000000024315, -0.7245123019929707 
4.690000000002408, -0.7252412350272339 
4.700000000002385, -0.7256156633510312 
4.710000000002362, -0.7257242670195372 
4.720000000002338, -0.7256112998098142 
4.730000000002315, -0.7252841125674167 
4.740000000002292, -0.7247144158861846 
4.750000000002268, -0.723834519663484 
4.760000000002245, -0.7225315727082801 
4.770000000002222, -0.7206474779001082 
4.7800000000021985, -0.7179995365019509 
4.790000000002175, -0.7144393192151447 
4.800000000002152, -0.709946686556376 
4.810000000002129, -0.7047075454195182 
4.820000000002105, -0.6990994738696925 
4.830000000002082, -0.6935725186408694 
4.840000000002059, -0.6885075395641614 
4.850000000002035, -0.6841395541070606 
4.860000000002012, -0.6805590755651818 
4.870000000001989, -0.6777526863480484 
4.880000000001965, -0.6756464984269817 
4.890000000001942, -0.674137948746681 
4.900000000001919, -0.6731157607542007 
4.9100000000018955, -0.6724719934185794 
4.920000000001872, -0.6721092921380641 
