t, s[1].omega / s[0].omega 
0, -1.8399649209191247 
0.009999999999999995, -1.8354524283270959 
0.019999999999999934, -1.8285708181826448 
0.029999999999999874, -1.8197433045797318 
0.04000000000000012, -1.812127959698317 
0.050000000000000405, -1.8094487109601076 
0.06000000000000069, -1.8105602431016194 
0.07000000000000098, -1.8122035586680862 
0.08000000000000126, -1.8131357422370993 
0.09000000000000155, -1.8133807620243971 
0.10000000000000184, -1.8131333757085084 
0.11000000000000212, -1.8125192993227017 
0.12000000000000241, -1.8117159359090902 
0.130000000000002, -1.8112091374778418 
0.1400000000000009, -1.8117178786590933 
0.1499999999999998, -1.8133614899316797 
0.1599999999999987, -1.81541288886021 
0.1699999999999976, -1.8171804271822372 
0.1799999999999965, -1.8184121282800245 
0.1899999999999954, -1.8190957327008348 
0.1999999999999943, -1.8192710074587013 
0.2099999999999932, -1.8189595054098582 
0.2199999999999921, -1.8181436877974035 
0.229999999999991, -1.816761802525851 
0.2399999999999899, -1.8147177348424062 
0.2499999999999888, -1.811942034584764 
0.2599999999999877, -1.8086019605748944 
0.2699999999999866, -1.8054524712849669 
0.2799999999999855, -1.803612346301352 
0.2899999999999844, -1.803292918324517 
0.2999999999999833, -1.8036135975993166 
0.3099999999999822, -1.8038290946449524 
0.3199999999999811, -1.803690420666055 
0.32999999999998, -1.803123422711495 
0.3399999999999789, -1.8020265676175367 
0.3499999999999778, -1.8003592355408664 
0.35999999999997667, -1.7987725916440969 
0.36999999999997557, -1.7994129087652702 
0.37999999999997447, -1.8039602490385735 
0.38999999999997337, -1.8104962446318082 
0.39999999999997227, -1.8161711069452964 
0.40999999999997117, -1.8200354248560735 
0.41999999999997006, -1.8223297979910835 
0.42999999999996896, -1.823499820555071 
0.43999999999996786, -1.82388926123457 
0.44999999999996676, -1.823717070281393 
0.45999999999996566, -1.823112916734042 
0.46999999999996456, -1.8221589090766148 
0.47999999999996346, -1.8209309587138123 
0.48999999999996235, -1.8195492255305523 
0.49999999999996125, -1.8182526172681073 
0.5099999999999602, -1.8173748108402215 
0.519999999999959, -1.8170419252152255 
0.529999999999958, -1.8169961361753413 
0.5399999999999568, -1.8168857851964144 
0.5499999999999557, -1.8164732606427478 
0.5599999999999546, -1.8155333228976303 
0.5699999999999535, -1.8136565610814457 
0.5799999999999524, -1.8101261574739826 
0.5899999999999513, -1.8045527868371516 
0.5999999999999502, -1.8000758324552102 
0.6099999999999491, -1.8048047268992509 
0.619999999999948, -1.8189450768328315 
0.6299999999999469, -1.832639677689563 
0.6399999999999458, -1.841265956271434 
0.6499999999999447, -1.8457697826216215 
0.6599999999999436, -1.847861793819947 
0.6699999999999425, -1.8486450483070413 
0.6799999999999414, -1.8487011624698937 
0.6899999999999403, -1.84832932665315 
0.6999999999999392, -1.847712620668218 
0.7099999999999381, -1.847004286334006 
0.719999999999937, -1.8463352092130747 
0.7299999999999359, -1.845804766544008 
0.7399999999999348, -1.8454882401087906 
0.7499999999999337, -1.8453666961196458 
0.7599999999999326, -1.8452778521596884 
0.7699999999999315, -1.8450089145724284 
0.7799999999999304, -1.8443401963840877 
0.7899999999999293, -1.8429275764231619 
0.7999999999999282, -1.8400485044800932 
0.8099999999999271, -1.8342309891437012 
0.819999999999926, -1.823378577114952 
0.8299999999999249, -1.8084852147741661 
0.8399999999999238, -1.8008969825678751 
0.8499999999999227, -1.809248465023605 
0.8599999999999216, -1.8223343617476229 
0.8699999999999205, -1.8309281111204965 
0.8799999999999194, -1.8351248281791381 
0.8899999999999183, -1.8368841964078626 
0.8999999999999172, -1.8374327202430667 
0.9099999999999161, -1.837356781526854 
0.919999999999915, -1.8369468761199805 
0.9299999999999139, -1.836418856414145 
0.9399999999999128, -1.835993967378118 
0.9499999999999117, -1.8358109300908487 
0.9599999999999106, -1.8358428813440546 
0.9699999999999095, -1.835983287401577 
0.9799999999999084, -1.83611673178698 
0.9899999999999073, -1.836110955173663 
0.9999999999999062, -1.8358201895187225 
1.0099999999999052, -1.8350616102805268 
1.019999999999904, -1.8335260981174355 
1.029999999999903, -1.8306288155045554 
1.039999999999902, -1.8253215116374526 
1.0499999999999008, -1.8161252986858039 
1.0599999999998997, -1.8025694990359729 
1.0699999999998986, -1.7892188428349869 
1.0799999999998975, -1.784293812663578 
1.0899999999998964, -1.787157245750593 
1.0999999999998953, -1.7910969971714015 
1.1099999999998942, -1.7934622615814917 
1.119999999999893, -1.7944755175713916 
1.129999999999892, -1.79468584409844 
1.1399999999998909, -1.7944191200961033 
1.1499999999998898, -1.7938687678715328 
1.1599999999998887, -1.7932825570892728 
1.1699999999998876, -1.7930657732661708 
1.1799999999998865, -1.7935219894636591 
1.1899999999998854, -1.7944859714124963 
1.1999999999998843, -1.795536122123248 
1.2099999999998832, -1.7963817508809878 
1.219999999999882, -1.7969008287440065 
1.229999999999881, -1.7970404808264029 
1.2399999999998799, -1.796753337229589 
1.2499999999998788, -1.7959619391813901 
1.2599999999998777, -1.7945333803823327 
1.2699999999998766, -1.7922633252714433 
1.2799999999998755, -1.7888950751619124 
1.2899999999998744, -1.784284991981054 
1.2999999999998733, -1.778927937325636 
1.3099999999998722, -1.7745121997442834 
1.319999999999871, -1.772703331471257 
1.32999999999987, -1.7729632844772305 
1.3399999999998689, -1.7736873592952036 
1.3499999999998678, -1.7740823204081395 
1.3599999999998666, -1.7740285978954464 
1.3699999999998655, -1.7735482701736127 
1.3799999999998644, -1.772638178388443 
1.3899999999998633, -1.7714077110713646 
1.3999999999998622, -1.7705454546879 
1.4099999999998611, -1.7714913090160347 
1.41999999999986, -1.7748490983081104 
1.429999999999859, -1.7792133673652581 
1.4399999999998578, -1.782996974778629 
1.4499999999998567, -1.7856635182849523 
1.4599999999998556, -1.7873007863214028 
1.4699999999998545, -1.788129319684833 
1.4799999999998534, -1.7883330398182722 
1.4899999999998523, -1.788033489133716 
1.4999999999998512, -1.7873009411804373 
1.5099999999998501, -1.7861759400963728 
1.519999999999849, -1.7847020466603005 
1.529999999999848, -1.7829871686654652 
1.5399999999998468, -1.781307650363311 
1.5499999999998457, -1.7801047493100188 
1.5599999999998446, -1.7796158172430565 
1.5699999999998435, -1.779579561171636 
1.5799999999998424, -1.7795663306427105 
1.5899999999998413, -1.779303358028742 
1.5999999999998402, -1.7786083290408938 
1.6099999999998391, -1.7772037001376089 
1.619999999999838, -1.7745967063741452 
1.629999999999837, -1.7704000076620041 
1.6399999999998358, -1.7663136866430527 
1.6499999999998347, -1.7684153278984742 
1.6599999999998336, -1.779762877588182 
1.6699999999998325, -1.7933776045995624 
1.6799999999998314, -1.8032094451313274 
1.6899999999998303, -1.8088454790671578 
1.6999999999998292, -1.8117041478181775 
1.709999999999828, -1.8129627081425592 
1.719999999999827, -1.8133127233457844 
1.729999999999826, -1.8131242234516514 
1.7399999999998248, -1.812605557087851 
1.7499999999998237, -1.8119090327588183 
1.7599999999998226, -1.8111730808838238 
1.7699999999998215, -1.8105148783207938 
1.7799999999998204, -1.8100339270991888 
1.7899999999998193, -1.8097876493669856 
1.7999999999998182, -1.809700301701966 
1.809999999999817, -1.809577809795001 
1.819999999999816, -1.8092125611526206 
1.8299999999998149, -1.8083731929076474 
1.8399999999998138, -1.8066511587814056 
1.8499999999998127, -1.8031856977931409 
1.8599999999998116, -1.7963243203928254 
1.8699999999998105, -1.78413133586259 
1.8799999999998094, -1.7690176365510066 
1.8899999999998083, -1.7632130439024511 
1.8999999999998072, -1.772314722922869 
1.909999999999806, -1.7845337373564418 
1.919999999999805, -1.792317780242838 
1.9299999999998039, -1.7961126893637622 
1.9399999999998028, -1.797702257040464 
1.9499999999998017, -1.7981810497536261 
1.9599999999998006, -1.7980767851743955 
1.9699999999997995, -1.7976581183486005 
1.9799999999997984, -1.7971379092609368 
1.9899999999997973, -1.7967478316639482 
1.9999999999997962, -1.7966390017463367 
2.0099999999998173, -1.79677515110984 
2.0199999999998384, -1.7970206480142792 
2.0299999999998595, -1.797244145858048 
2.0399999999998806, -1.797321014092271 
2.0499999999999017, -1.7971246064587074 
2.059999999999923, -1.796506428014213 
2.069999999999944, -1.7952357071997198 
2.079999999999965, -1.7929064033253201 
2.089999999999986, -1.788829788458657 
2.100000000000007, -1.7820221768632458 
2.1100000000000283, -1.7717964455060535 
2.1200000000000494, -1.759898721926671 
2.1300000000000705, -1.7519441348078826 
2.1400000000000916, -1.7510890943657713 
2.1500000000001127, -1.7535816294905076 
2.160000000000134, -1.7557628430623473 
2.170000000000155, -1.7568803887390119 
2.180000000000176, -1.7572071586455753 
2.190000000000197, -1.7570209767073404 
2.2000000000002182, -1.75648172889926 
2.2100000000002393, -1.7557655157517442 
2.2200000000002604, -1.755270794873687 
2.2300000000002815, -1.7555778026650422 
2.2400000000003026, -1.756856500534576 
2.2500000000003237, -1.758596462139018 
2.260000000000345, -1.7602041469498075 
2.270000000000366, -1.7613991044521289 
2.280000000000387, -1.762120469114111 
2.290000000000408, -1.7623769090633612 
2.3000000000004293, -1.7621772803736788 
2.3100000000004504, -1.7615055583429027 
2.3200000000004715, -1.7603124643496284 
2.3300000000004926, -1.7585187129016553 
2.3400000000005137, -1.756046883088852 
2.3500000000005348, -1.752940502216621 
2.360000000000556, -1.749633611589911 
2.370000000000577, -1.7470841285633967 
2.380000000000598, -1.7460242510411572 
2.390000000000619, -1.7460701565008563 
2.4000000000006403, -1.746363808421059 
2.4100000000006614, -1.7464308714161743 
2.4200000000006825, -1.7461289131450997 
2.4300000000007036, -1.7453681690116647 
2.4400000000007247, -1.7439983573485258 
2.450000000000746, -1.7419803587765696 
2.460000000000767, -1.7402016146806432 
2.470000000000788, -1.7413474609541726 
2.480000000000809, -1.7472832381213792 
2.49000000000083, -1.7554968660599652 
2.5000000000008513, -1.762536296044443 
2.5100000000008724, -1.7672990308890497 
2.5200000000008935, -1.770126091836835 
2.5300000000009146, -1.7716041134810723 
2.5400000000009357, -1.7721863471772341 
2.550000000000957, -1.7721647959883193 
2.560000000000978, -1.7717177084287694 
2.570000000000999, -1.7709632854655244 
2.58000000000102, -1.7700043548681865 
2.5900000000010412, -1.768956997955708 
2.6000000000010624, -1.7679777617841033 
2.6100000000010835, -1.7672657443335944 
2.6200000000011046, -1.7669278110876234 
2.6300000000011257, -1.7668310682066681 
2.6400000000011468, -1.7667135670836178 
2.650000000001168, -1.7663489708128277 
2.660000000001189, -1.7655140297511807 
2.67000000000121, -1.7638181734208036 
2.680000000001231, -1.7604555068636472 
2.6900000000012523, -1.7540412888585426 
2.7000000000012734, -1.7437949948417466 
2.7100000000012945, -1.7346707569027118 
2.7200000000013156, -1.7380403366679116 
2.7300000000013367, -1.7530080932296221 
2.740000000001358, -1.7670865737334966 
2.750000000001379, -1.7754486009410577 
2.7600000000014, -1.7795443005648213 
2.770000000001421, -1.7813192596912082 
2.780000000001442, -1.7819095636675786 
2.7900000000014633, -1.7818719151655233 
2.8000000000014844, -1.7814880120201722 
2.8100000000015055, -1.780955953979539 
2.8200000000015266, -1.7804707703886944 
2.8300000000015477, -1.7801749858641862 
2.840000000001569, -1.7800860822060536 
2.85000000000159, -1.7801395031308354 
2.860000000001611, -1.780241088786972 
2.870000000001632, -1.7802642362917993 
2.8800000000016532, -1.78006412810576 
2.8900000000016743, -1.7794766357427907 
2.9000000000016954, -1.7782538470220461 
2.9100000000017165, -1.7759444256000687 
2.9200000000017377, -1.7717324241246981 
2.9300000000017588, -1.7643417686418732 
2.94000000000178, -1.7526130266484874 
2.950000000001801, -1.7381526063271355 
2.960000000001822, -1.7279580965914803 
2.970000000001843, -1.7269374373580089 
2.9800000000018643, -1.7305674768624981 
2.9900000000018854, -1.7337829879160147 
3.0000000000019065, -1.7355134692676732 
3.0100000000019276, -1.736178015795824 
3.0200000000019487, -1.7362028193402665 
3.03000000000197, -1.7358237992310783 
3.040000000001991, -1.7352070704505647 
3.050000000002012, -1.7346299333242488 
3.060000000002033, -1.7345521297470252 
3.070000000002054, -1.7352796700431778 
3.0800000000020753, -1.736578184685105 
3.0900000000020964, -1.7379503513419614 
3.1000000000021175, -1.7390666060601057 
3.1100000000021386, -1.7398037176716006 
3.1200000000021597, -1.7401298298187755 
3.130000000002181, -1.7400310725723902 
3.140000000002202, -1.7394788899760034 
3.150000000002223, -1.738415002054244 
3.160000000002244, -1.736746857366836 
3.1700000000022652, -1.734361904741522 
3.1800000000022863, -1.7312026083629815 
3.1900000000023074, -1.727490664634659 
3.2000000000023285, -1.7240432553189127 
3.2100000000023496, -1.721987175101944 
3.2200000000023707, -1.7215461570173751 
3.230000000002392, -1.7218591573683564 
3.240000000002413, -1.7221403158818884 
3.250000000002434, -1.7220997019623137 
3.260000000002455, -1.7216605324187686 
3.2700000000024763, -1.7207314030425642 
3.2800000000024974, -1.7191849374952675 
3.2900000000025185, -1.717196524768901 
3.3000000000025396, -1.716190294131937 
3.3100000000025607, -1.7188746906844092 
3.3200000000025818, -1.7257056406237457 
3.330000000002603, -1.7335417104782216 
3.340000000002624, -1.7397600842821592 
3.350000000002645, -1.7438504349655297 
3.360000000002666, -1.7462424951874538 
3.3700000000026873, -1.747456157327192 
3.3800000000027084, -1.7478764858366496 
3.3900000000027295, -1.7477518355957482 
3.4000000000027506, -1.7472377083009103 
3.4100000000027717, -1.746444419958698 
3.420000000002793, -1.7454755562454776 
3.430000000002814, -1.744451173154935 
3.440000000002835, -1.7435300383941228 
3.450000000002856, -1.7428952841282388 
3.460000000002877, -1.7426139097171813 
3.4700000000028983, -1.7425300765515945 
3.4800000000029194, -1.7423931912311474 
3.4900000000029405, -1.7419901300471008 
3.5000000000029616, -1.7410935988248402 
3.5100000000029827, -1.739291245196555 
3.520000000003004, -1.7357342915234426 
3.530000000003025, -1.728948846750285 
3.540000000003046, -1.7178871283165953 
3.550000000003067, -1.7068502322071688 
3.5600000000030882, -1.707366123335299 
3.5700000000031094, -1.7206647197658107 
3.5800000000031305, -1.7346425095392426 
3.5900000000031516, -1.7433195219166406 
3.6000000000031727, -1.7476534311344416 
3.6100000000031938, -1.7495629022350339 
3.620000000003215, -1.7502304518553928 
3.630000000003236, -1.7502426674918783 
3.640000000003257, -1.749892419914362 
3.650000000003278, -1.7493803455355708 
3.6600000000032993, -1.7489138242986546 
3.6700000000033204, -1.7486665607126857 
3.6800000000033415, -1.7486703431036144 
3.6900000000033626, -1.7488350936295554 
3.7000000000033837, -1.7490438983961034 
3.710000000003405, -1.7491760383079065 
3.720000000003426, -1.749105471595384 
3.730000000003447, -1.7486991093215476 
3.740000000003468, -1.7477793849027417 
3.750000000003489, -1.7460528563077093 
3.7600000000035103, -1.743021484149534 
3.7700000000035314, -1.7379158892196087 
3.7800000000035525, -1.72985377079373 
3.7900000000035736, -1.7188509772526157 
3.8000000000035947, -1.7079480479096691 
3.810000000003616, -1.7023651051905482 
3.820000000003637, -1.7027375497246346 
3.830000000003658, -1.7050509689030284 
3.840000000003679, -1.7067897849348515 
3.8500000000037002, -1.7076152472018624 
3.8600000000037213, -1.7077791284022634 
3.8700000000037424, -1.7074893920523764 
3.8800000000037635, -1.706866172090273 
3.8900000000037847, -1.7060853333851536 
3.9000000000038058, -1.7056004547376837 
3.910000000003827, -1.7060889995670838 
3.920000000003848, -1.7077601574565104 
3.930000000003869, -1.7100107157989957 
3.94000000000389, -1.7121135417341402 
3.9500000000039113, -1.7137193507478894 
3.9600000000039324, -1.7147647368434273 
3.9700000000039535, -1.7152860498582558 
3.9800000000039746, -1.715330105648031 
3.9900000000039957, -1.714925632507309 
4.000000000004016, -1.7140774929148819 
4.010000000003993, -1.712771719247033 
4.02000000000397, -1.7109952513879463 
4.030000000003946, -1.7087914047775938 
4.040000000003923, -1.7063839195536172 
4.0500000000039, -1.7042932162964366 
4.0600000000038765, -1.7030889287666455 
4.070000000003853, -1.702793521087446 
4.08000000000383, -1.702894140859711 
4.090000000003807, -1.7029258095164 
4.100000000003783, -1.7026669991500316 
4.11000000000376, -1.7019766496841608 
4.120000000003737, -1.7006257257168165 
4.130000000003713, -1.6982408564568137 
4.14000000000369, -1.694676288427679 
4.150000000003667, -1.6916368059011007 
4.1600000000036434, -1.6940684390825118 
4.17000000000362, -1.704444731740472 
4.180000000003597, -1.7174011868863857 
4.1900000000035735, -1.7274685104354073 
4.20000000000355, -1.7336702206898758 
4.210000000003527, -1.7370415166767237 
4.220000000003504, -1.7386719476422237 
4.23000000000348, -1.7392775023429217 
4.240000000003457, -1.739268765516022 
4.250000000003434, -1.7388788910198074 
4.26000000000341, -1.7382653973313906 
4.270000000003387, -1.7375690561382449 
4.280000000003364, -1.736916418970172 
4.2900000000033405, -1.73640154865578 
4.300000000003317, -1.736086443351279 
4.310000000003294, -1.735963650141602 
4.320000000003271, -1.7359118408867111 
4.330000000003247, -1.7357494601407317 
4.340000000003224, -1.7352931091296573 
4.350000000003201, -1.7343090072133027 
4.360000000003177, -1.7323690906937972 
4.370000000003154, -1.7286190756155961 
4.380000000003131, -1.7215110076481959 
4.390000000003107, -1.7091245465511449 
4.400000000003084, -1.69221022742969 
4.410000000003061, -1.6793435525926341 
4.4200000000030375, -1.6793700715872828 
4.430000000003014, -1.6870322081774412 
4.440000000002991, -1.693788146416404 
4.450000000002968, -1.6975969083517672 
4.460000000002944, -1.6993475190117195 
4.470000000002921, -1.6999639987188355 
4.480000000002898, -1.6999583499327966 
4.490000000002874, -1.6995886489138077 
4.500000000002851, -1.6990441573135464 
4.510000000002828, -1.6985861149188424 
4.520000000002804, -1.698531142555773 
4.530000000002781, -1.6990021691209065 
4.540000000002758, -1.699802035057441 
4.5500000000027345, -1.700636540886152 
4.560000000002711, -1.7013072310645978 
4.570000000002688, -1.7017086451552867 
4.580000000002665, -1.7017765974695689 
4.590000000002641, -1.7014525799840967 
4.600000000002618, -1.7006585362672983 
4.610000000002595, -1.6992792413614328 
4.620000000002571, -1.6971549228587435 
4.630000000002548, -1.6940999491975348 
4.640000000002525, -1.6900088107641469 
4.6500000000025015, -1.6851691653976935 
4.660000000002478, -1.6806830723932038 
4.670000000002455, -1.678045258808916 
4.6800000000024315, -1.6775255042232113 
4.690000000002408, -1.6779936104107098 
4.700000000002385, -1.6784536421983973 
4.710000000002362, -1.6785655718130361 
4.720000000002338, -1.6782802145453068 
4.730000000002315, -1.6775605464022938 
4.740000000002292, -1.6763276620904168 
4.750000000002268, -1.6746605018863125 
4.760000000002245, -1.6734378260228628 
4.770000000002222, -1.67475062865139 
4.7800000000021985, -1.6798491780444305 
4.790000000002175, -1.6868827745839519 
4.800000000002152, -1.6932122674810248 
4.810000000002129, -1.6977713628512632 
4.820000000002105, -1.7006599553295279 
4.830000000002082, -1.7022897098156053 
4.840000000002059, -1.7030330310233246 
4.850000000002035, -1.7031558565393996 
4.860000000002012, -1.7028334196636663 
4.870000000001989, -1.7021846486682706 
4.880000000001965, -1.7013086187993491 
4.890000000001942, -1.700311236563526 
4.900000000001919, -1.699321239201166 
4.9100000000018955, -1.6985025370033742 
4.920000000001872, -1.6980030819689897 
4.930000000001849, -1.6978136452771182 
4.940000000001826, -1.6977416590929397 
