t, s[1].omega / s[0].omega 
0, -0.6699977033350419 
0.009999999999999995, -0.6697634954485403 
0.019999999999999934, -0.6695147247329688 
0.029999999999999874, -0.6692377263073919 
0.04000000000000012, -0.6689177520540702 
0.050000000000000405, -0.6685458640487433 
0.06000000000000069, -0.6681226998410728 
0.07000000000000098, -0.6676591586103012 
0.08000000000000126, -0.6671762138828592 
0.09000000000000155, -0.6667061052917729 
0.10000000000000184, -0.6662960097041661 
0.11000000000000212, -0.666014120415904 
0.12000000000000241, -0.6659572243190662 
0.130000000000002, -0.6662582009124881 
0.1400000000000009, -0.6670912162284934 
0.1499999999999998, -0.6686716183620566 
0.1599999999999987, -0.6712462359315639 
0.1699999999999976, -0.6750671715912693 
0.1799999999999965, -0.6803384181440897 
0.1899999999999954, -0.6871244835919464 
0.1999999999999943, -0.6952278420131933 
0.2099999999999932, -0.7040936617128843 
0.2199999999999921, -0.7128596592905164 
0.229999999999991, -0.7206238567799722 
0.2399999999999899, -0.7267944898876001 
0.2499999999999888, -0.731250898406895 
0.2599999999999877, -0.7342275995938571 
0.2699999999999866, -0.7360895892905123 
0.2799999999999855, -0.7371726205006478 
0.2899999999999844, -0.7377240755436671 
0.2999999999999833, -0.7379027116530149 
0.3099999999999822, -0.7377962107222067 
0.3199999999999811, -0.7374364707263543 
0.32999999999998, -0.7368060812233163 
0.3399999999999789, -0.735834119296314 
0.3499999999999778, -0.7343798567766008 
0.35999999999997667, -0.7322031420944881 
0.36999999999997557, -0.7289251449250791 
0.37999999999997447, -0.7240027236295647 
0.38999999999997337, -0.7167853543758573 
0.39999999999997227, -0.7067698549593658 
0.40999999999997117, -0.6940773026161238 
0.41999999999997006, -0.6798215848488894 
0.42999999999996896, -0.6658295352520709 
0.43999999999996786, -0.6537719451898976 
0.44999999999996676, -0.6444897400052138 
0.45999999999996566, -0.6379755001777786 
0.46999999999996456, -0.6337409354167524 
0.47999999999996346, -0.6311707498761405 
0.48999999999996235, -0.6297166030090263 
0.49999999999996125, -0.6289608118705454 
0.5099999999999602, -0.6286131485495706 
0.519999999999959, -0.6284838455417956 
0.529999999999958, -0.6284537156340203 
0.5399999999999568, -0.6284492234986998 
0.5499999999999557, -0.6284243043951478 
0.5599999999999546, -0.6283485079754314 
0.5699999999999535, -0.6282006021766832 
0.5799999999999524, -0.6279668449864712 
0.5899999999999513, -0.6276427911681247 
0.5999999999999502, -0.6272362902185876 
0.6099999999999491, -0.6267680463879645 
0.619999999999948, -0.6262668422294573 
0.6299999999999469, -0.6257602208582872 
0.6399999999999458, -0.6252653714497918 
0.6499999999999447, -0.624785280743014 
0.6599999999999436, -0.6243116834429396 
0.6699999999999425, -0.6238322682965732 
0.6799999999999414, -0.6233379614897261 
0.6899999999999403, -0.6228274846001072 
0.6999999999999392, -0.6223091074092251 
0.7099999999999381, -0.6218013568670859 
0.719999999999937, -0.6213345795469316 
0.7299999999999359, -0.6209544185977477 
0.7399999999999348, -0.6207273957645645 
0.7499999999999337, -0.6207482066929474 
0.7599999999999326, -0.6211479048691807 
0.7699999999999315, -0.6221015833632979 
0.7799999999999304, -0.6238330310248186 
0.7899999999999293, -0.6266113386375035 
0.7999999999999282, -0.6307294696501908 
0.8099999999999271, -0.6364475953524824 
0.819999999999926, -0.6438812721986608 
0.8299999999999249, -0.6528377312423033 
0.8399999999999238, -0.6626794812090401 
0.8499999999999227, -0.6723839476837947 
0.8599999999999216, -0.6808964949856149 
0.8699999999999205, -0.6875693993261067 
0.8799999999999194, -0.6923243258844254 
0.8899999999999183, -0.6954723121604827 
0.8999999999999172, -0.6974393038349745 
0.9099999999999161, -0.6985958691438154 
0.919999999999915, -0.6992062236526826 
0.9299999999999139, -0.699437027116985 
0.9399999999999128, -0.6993802055793777 
0.9499999999999117, -0.6990706576237381 
0.9599999999999106, -0.6984937956137721 
0.9699999999999095, -0.6975821453446793 
0.9799999999999084, -0.6962008644088218 
0.9899999999999073, -0.6941238496977291 
0.9999999999999062, -0.6910108570643059 
1.0099999999999052, -0.6864188874962083 
1.019999999999904, -0.6799122681941343 
1.029999999999903, -0.6713191873120489 
1.039999999999902, -0.661027978545561 
1.0499999999999008, -0.6500237593774969 
1.0599999999998997, -0.639510322247584 
1.0699999999998986, -0.630410791643244 
1.0799999999998975, -0.6231382352576035 
1.0899999999998964, -0.617676811316614 
1.0999999999998953, -0.6137764822660519 
1.1099999999998942, -0.6111120622310517 
1.119999999999893, -0.6093714525146828 
1.129999999999892, -0.6082915978212167 
1.1399999999998909, -0.6076663147362571 
1.1499999999998898, -0.6073416438444414 
1.1599999999998887, -0.6072067501748503 
1.1699999999998876, -0.6071841223089345 
1.1799999999998865, -0.6072208207515775 
1.1899999999998854, -0.6072816304168156 
1.1999999999998843, -0.6073444969410724 
1.2099999999998832, -0.6073981722651043 
1.219999999999882, -0.6074412995899526 
1.229999999999881, -0.6074812904892326 
1.2399999999998799, -0.6075309713075587 
1.2499999999998788, -0.6076020698406177 
1.2599999999998777, -0.6076971606252539 
1.2699999999998766, -0.6078039950962799 
1.2799999999998755, -0.607896082407363 
1.2899999999998744, -0.6079402419539747 
1.2999999999998733, -0.6079073412820477 
1.3099999999998722, -0.6077803016847368 
1.319999999999871, -0.6075559958250663 
1.32999999999987, -0.6072423827232835 
1.3399999999998689, -0.6068547718597685 
1.3499999999998678, -0.6064145130924287 
1.3599999999998666, -0.6059518334389847 
1.3699999999998655, -0.6055137977608227 
1.3799999999998644, -0.6051786332820461 
1.3899999999998633, -0.6050781964051336 
1.3999999999998622, -0.605430014319866 
1.4099999999998611, -0.6065769929129685 
1.41999999999986, -0.6090222969817005 
1.429999999999859, -0.6134225315294093 
1.4399999999998578, -0.620463583827062 
1.4499999999998567, -0.6305290856137875 
1.4599999999998556, -0.6432040313444487 
1.4699999999998545, -0.6570117651896182 
1.4799999999998534, -0.6699234288539768 
1.4899999999998523, -0.680420032461565 
1.4999999999998512, -0.6880785475067295 
1.5099999999998501, -0.693288356924136 
1.519999999999849, -0.696694039866469 
1.529999999999848, -0.6988662266567122 
1.5399999999998468, -0.7002158522011283 
1.5499999999998457, -0.701013211432585 
1.5599999999998446, -0.7014268674975824 
1.5699999999998435, -0.7015549354935007 
1.5799999999998424, -0.7014447019115406 
1.5899999999998413, -0.7011022999440859 
1.5999999999998402, -0.7004946789777501 
1.6099999999998391, -0.6995463420352821 
1.619999999999838, -0.6981355535305646 
1.629999999999837, -0.6961003185536971 
1.6399999999998358, -0.6932712211582017 
1.6499999999998347, -0.6895440704935905 
1.6599999999998336, -0.6849723335436055 
1.6699999999998325, -0.679811833061779 
1.6799999999998314, -0.6744589239172079 
1.6899999999998303, -0.6693146423637122 
1.6999999999998292, -0.6646726211060067 
1.709999999999828, -0.6606862729851268 
1.719999999999827, -0.6573958023694353 
1.729999999999826, -0.6547719215611819 
1.7399999999998248, -0.6527507120634051 
1.7499999999998237, -0.6512544146289098 
1.7599999999998226, -0.6502020193592858 
1.7699999999998215, -0.6495145875028278 
1.7799999999998204, -0.6491184739752537 
1.7899999999998193, -0.6489477468950012 
1.7999999999998182, -0.6489459835424632 
1.809999999999817, -0.6490672907602046 
1.819999999999816, -0.6492765479253563 
1.8299999999998149, -0.6495491052670258 
1.8399999999998138, -0.6498701518194456 
1.8499999999998127, -0.6502335425839046 
1.8599999999998116, -0.6506392384717312 
1.8699999999998105, -0.6510883227777609 
1.8799999999998094, -0.6515756130572383 
1.8899999999998083, -0.6520822178243391 
1.8999999999998072, -0.6525725083986809 
1.909999999999806, -0.6529993501161249 
1.919999999999805, -0.653316716964361 
1.9299999999998039, -0.653492939500225 
1.9399999999998028, -0.6535169407451797 
1.9499999999998017, -0.6533955317338832 
1.9599999999998006, -0.6531461143121968 
1.9699999999997995, -0.6527904768962589 
1.9799999999997984, -0.6523529780060706 
1.9899999999997973, -0.6518641772273994 
1.9999999999997962, -0.6513705493213888 
2.0099999999998173, -0.6509517140707046 
2.0199999999998384, -0.6507473793160562 
2.0299999999998595, -0.6509953470175341 
2.0399999999998806, -0.6520767445519847 
2.0499999999999017, -0.6545502722907248 
2.059999999999923, -0.6591282424949949 
2.069999999999944, -0.6665101403643818 
2.079999999999965, -0.6769997194332524 
2.089999999999986, -0.6900132021503439 
2.100000000000007, -0.7039326438342267 
2.1100000000000283, -0.71674092569142 
2.1200000000000494, -0.7270418128091404 
2.1300000000000705, -0.734508081842906 
2.1400000000000916, -0.7395542609586694 
2.1500000000001127, -0.7428186421102065 
2.160000000000134, -0.7448647671423074 
2.170000000000155, -0.7461004725869369 
2.180000000000176, -0.7467936337868151 
2.190000000000197, -0.7471087408010737 
2.2000000000002182, -0.7471372391474208 
2.2100000000002393, -0.7469161918941744 
2.2200000000002604, -0.7464359045896328 
2.2300000000002815, -0.7456378912377826 
2.2400000000003026, -0.7444048189135926 
2.2500000000003237, -0.7425470362881545 
2.260000000000345, -0.7397994038696201 
2.270000000000366, -0.735857610074651 
2.280000000000387, -0.730488546816747 
2.290000000000408, -0.7237040902647045 
2.3000000000004293, -0.7158860167125861 
2.3100000000004504, -0.707717736451547 
2.3200000000004715, -0.6999361767289377 
2.3300000000004926, -0.6930914373959668 
2.3400000000005137, -0.6874567161158092 
2.3500000000005348, -0.6830705154215919 
2.360000000000556, -0.6798245663039715 
2.370000000000577, -0.6775402987736319 
2.380000000000598, -0.6760191971417597 
2.390000000000619, -0.675071852716228 
2.4000000000006403, -0.6745331421678996 
2.4100000000006614, -0.6742684905347046 
2.4200000000006825, -0.6741741389545586 
2.4300000000007036, -0.674173590251416 
2.4400000000007247, -0.6742122473947624 
2.450000000000746, -0.6742520611692051 
2.460000000000767, -0.6742675558006843 
2.470000000000788, -0.6742438605098929 
2.480000000000809, -0.6741762794841802 
2.49000000000083, -0.6740696914639962 
2.5000000000008513, -0.6739355998474268 
2.5100000000008724, -0.6737860562229983 
2.5200000000008935, -0.6736265415088837 
2.5300000000009146, -0.6734517819746701 
2.5400000000009357, -0.6732473018949527 
2.550000000000957, -0.6729959067061058 
2.560000000000978, -0.6726852062170459 
2.570000000000999, -0.6723123662958316 
2.58000000000102, -0.6718851964768581 
2.5900000000010412, -0.671421529153574 
2.6000000000010624, -0.670949532570564 
2.6100000000010835, -0.6705105913764764 
2.6200000000011046, -0.6701650898530392 
2.6300000000011257, -0.6700004743483468 
2.6400000000011468, -0.6701402146021274 
2.650000000001168, -0.6707514838688018 
2.660000000001189, -0.6720484309498366 
2.67000000000121, -0.6742865990114735 
2.680000000001231, -0.6777417226054193 
2.6900000000012523, -0.6826624346708264 
2.7000000000012734, -0.6891843107946237 
2.7100000000012945, -0.6972040091910816 
2.7200000000013156, -0.7062565509061888 
2.7300000000013367, -0.7155086064331493 
2.740000000001358, -0.7239795728325269 
2.750000000001379, -0.7309184304435297 
2.7600000000014, -0.7360563820000778 
2.770000000001421, -0.739557099690207 
2.780000000001442, -0.7417871679795234 
2.7900000000014633, -0.7431178124493143 
2.8000000000014844, -0.7438360431000774 
2.8100000000015055, -0.7441327562219305 
2.8200000000015266, -0.7441194190456215 
2.8300000000015477, -0.7438463192870345 
2.840000000001569, -0.7433127815620466 
2.85000000000159, -0.742466862677799 
2.860000000001611, -0.7411933236266108 
2.870000000001632, -0.7392884586484907 
2.8800000000016532, -0.7364228977702483 
2.8900000000016743, -0.7321066700497993 
2.9000000000016954, -0.7257071741915957 
2.9100000000017165, -0.7166252242970053 
2.9200000000017377, -0.7047128239348339 
2.9300000000017588, -0.6907439028894602 
2.94000000000178, -0.6763973511459437 
2.950000000001801, -0.6635162744834752 
2.960000000001822, -0.6532673975696458 
2.970000000001843, -0.6458962300195632 
2.9800000000018643, -0.6410193502573164 
2.9900000000018854, -0.6380202881252848 
3.0000000000019065, -0.6363046800893861 
3.0100000000019276, -0.635402432394593 
3.0200000000019487, -0.6349803926566502 
3.03000000000197, -0.6348186470026642 
3.040000000001991, -0.6347788373965237 
3.050000000002012, -0.6347761428078875 
3.060000000002033, -0.6347582146045722 
3.070000000002054, -0.6346910081422419 
3.0800000000020753, -0.6345505841721423 
3.0900000000020964, -0.6343200324781894 
3.1000000000021175, -0.6339906084220253 
3.1100000000021386, -0.6335652152951278 
3.1200000000021597, -0.6330607693868735 
3.130000000002181, -0.6325056678264794 
3.140000000002202, -0.6319314854864461 
3.150000000002223, -0.6313626880538272 
3.160000000002244, -0.6308101329255831 
3.1700000000022652, -0.6302714982712413 
3.1800000000022863, -0.6297372909706471 
3.1900000000023074, -0.6291984359493039 
3.2000000000023285, -0.6286519709369741 
3.2100000000023496, -0.6281038531374119 
3.2200000000023707, -0.6275700838704283 
3.230000000002392, -0.6270779715849772 
3.240000000002413, -0.626668723985832 
3.250000000002434, -0.6264016441941629 
3.260000000002455, -0.6263595363070514 
3.2700000000024763, -0.62665452255805 
3.2800000000024974, -0.6274331496096214 
3.2900000000025185, -0.6288791060785571 
3.3000000000025396, -0.6312105079961751 
3.3100000000025607, -0.6346656563941432 
3.3200000000025818, -0.6394660518269193 
3.330000000002603, -0.6457412999975388 
3.340000000002624, -0.65340952793332 
3.350000000002645, -0.6620506531431858 
3.360000000002666, -0.6708849792681685 
3.3700000000026873, -0.6789779281054994 
3.3800000000027084, -0.6856082322777153 
3.3900000000027295, -0.6905186383857194 
3.4000000000027506, -0.6938678264405149 
3.4100000000027717, -0.6960068406876481 
3.420000000002793, -0.6972887524092743 
3.430000000002814, -0.6979852106331783 
3.440000000002835, -0.6982762247077664 
3.450000000002856, -0.6982662880618571 
3.460000000002877, -0.6980013739728794 
3.4700000000028983, -0.6974779315239269 
3.4800000000029194, -0.696641588253439 
3.4900000000029405, -0.6953745968797789 
3.5000000000029616, -0.6934718368355236 
3.5100000000029827, -0.6906106535086197 
3.520000000003004, -0.6863382956782653 
3.530000000003025, -0.6801370836183734 
3.540000000003046, -0.671647992396162 
3.550000000003067, -0.6610294356127617 
3.5600000000030882, -0.6491699939608228 
3.5700000000031094, -0.6374236940517174 
3.5800000000031305, -0.627007174271989 
3.5900000000031516, -0.6185784813412482 
3.6000000000031727, -0.6122302436395856 
3.6100000000031938, -0.6077109555148812 
3.620000000003215, -0.6046427651134691 
3.630000000003236, -0.6026514645860771 
3.640000000003257, -0.6014213044614386 
3.650000000003278, -0.6007075417079981 
3.6600000000032993, -0.6003303697200939 
3.6700000000033204, -0.600162642374361 
3.6800000000033415, -0.6001169869476536 
3.6900000000033626, -0.6001346112743406 
3.7000000000033837, -0.6001766816508649 
3.710000000003405, -0.6002185321468382 
3.720000000003426, -0.600246576484442 
3.730000000003447, -0.6002572407801581 
3.740000000003468, -0.6002563946970545 
3.750000000003489, -0.6002571152297079 
3.7600000000035103, -0.6002742087722346 
3.7700000000035314, -0.6003162004638191 
3.7800000000035525, -0.6003781921005832 
3.7900000000035736, -0.6004398401590294 
3.8000000000035947, -0.600470498934546 
3.810000000003616, -0.6004392711962921 
3.820000000003637, -0.6003244495202738 
3.830000000003658, -0.6001177377064978 
3.840000000003679, -0.5998229520743544 
3.8500000000037002, -0.5994524413953651 
3.8600000000037213, -0.599024853942189 
3.8700000000037424, -0.5985664623803806 
3.8800000000037635, -0.5981171773847777 
3.8900000000037847, -0.5977423498607153 
3.9000000000038058, -0.5975520074792701 
3.910000000003827, -0.5977293257575658 
3.920000000003848, -0.5985682288816168 
3.930000000003869, -0.6005125976612161 
3.94000000000389, -0.6041703851938007 
3.9500000000039113, -0.6102398967112783 
3.9600000000039324, -0.6192524608513678 
3.9700000000039535, -0.6311025603889664 
3.9800000000039746, -0.6446390919145799 
3.9900000000039957, -0.6579013391763229 
4.000000000004016, -0.6691139421406627 
4.010000000003993, -0.6775263055840981 
4.02000000000397, -0.6833511329572419 
4.030000000003946, -0.6872045887312088 
4.040000000003923, -0.6896900827892142 
4.0500000000039, -0.6912589023264828 
4.0600000000038765, -0.6922134922733904 
4.070000000003853, -0.6927458026303975 
4.08000000000383, -0.6929713719494621 
4.090000000003807, -0.6929518351270583 
4.100000000003783, -0.6927071841456209 
4.11000000000376, -0.6922201602366339 
4.120000000003737, -0.6914351230901394 
4.130000000003713, -0.6902550849088949 
4.14000000000369, -0.6885446732970188 
4.150000000003667, -0.6861527120715313 
4.1600000000036434, -0.6829678167181525 
4.17000000000362, -0.6789984338234942 
4.180000000003597, -0.6744274019297529 
4.1900000000035735, -0.669581778837107 
4.20000000000355, -0.6648240617460786 
4.210000000003527, -0.6604428034984426 
4.220000000003504, -0.6566061204721707 
4.23000000000348, -0.6533753677682285 
4.240000000003457, -0.6507424077811808 
4.250000000003434, -0.6486629525082604 
4.26000000000341, -0.6470774484067962 
4.270000000003387, -0.6459215984320003 
4.280000000003364, -0.6451310892358707 
4.2900000000033405, -0.644644016745813 
4.300000000003317, -0.6444027717385388 
4.310000000003294, -0.6443558508453442 
4.320000000003271, -0.644459428790657 
4.330000000003247, -0.6446784422327061 
4.340000000003224, -0.6449871091713759 
4.350000000003201, -0.645368909534221 
4.360000000003177, -0.645815839519673 
4.370000000003154, -0.6463262499263286 
4.380000000003131, -0.6469002554930965 
4.390000000003107, -0.6475323610306567 
4.400000000003084, -0.6482030412919404 
4.410000000003061, -0.6488736656613577 
4.4200000000030375, -0.649489848245775 
4.430000000003014, -0.6499943846833325 
4.440000000002991, -0.6503436821692955 
4.450000000002968, -0.6505179300566609 
4.460000000002944, -0.6505201601800362 
4.470000000002921, -0.6503677221942138 
4.480000000002898, -0.650083157007152 
4.490000000002874, -0.649689155329831 
4.500000000002851, -0.649209005883873 
4.510000000002828, -0.6486727395095852 
4.520000000002804, -0.6481299169053003 
4.530000000002781, -0.6476714190708532 
4.540000000002758, -0.6474632626844463 
4.5500000000027345, -0.6477930142414696 
4.560000000002711, -0.6491189140151616 
4.570000000002688, -0.6520855631766017 
4.580000000002665, -0.6574260824664463 
4.590000000002641, -0.6656484431170626 
4.600000000002618, -0.6765310671991875 
4.610000000002595, -0.6888133652050684 
4.620000000002571, -0.7006267234704217 
4.630000000002548, -0.7104874111401669 
4.640000000002525, -0.717882580406999 
4.6500000000025015, -0.7230576578626624 
4.660000000002478, -0.726532790780325 
4.670000000002455, -0.728802478806675 
4.6800000000024315, -0.7302428517132371 
4.690000000002408, -0.7311137415262863 
4.700000000002385, -0.7315843501254204 
4.710000000002362, -0.7317572827248215 
4.720000000002338, -0.7316850385903265 
4.730000000002315, -0.7313786007882342 
4.740000000002292, -0.7308089105445235 
4.750000000002268, -0.7299025538347613 
4.760000000002245, -0.7285350462422072 
4.770000000002222, -0.7265306372195884 
4.7800000000021985, -0.7236863319606556 
4.790000000002175, -0.7198402866640643 
4.800000000002152, -0.7149788753084078 
4.810000000002129, -0.7093193751734781 
4.820000000002105, -0.7032827907276878 
4.830000000002082, -0.6973535588197611 
4.840000000002059, -0.6919277038036126 
4.850000000002035, -0.6872411903713156 
4.860000000002012, -0.683381065834703 
4.870000000001989, -0.6803320272835104 
4.880000000001965, -0.6780209318551722 
4.890000000001942, -0.6763470113381667 
4.900000000001919, -0.6751998224979574 
4.9100000000018955, -0.6744700342416335 
4.920000000001872, -0.6740564950238038 
