t, s[1].omega / s[0].omega 
0, -0.6599977066533879 
0.009999999999999995, -0.6597626469403903 
0.019999999999999934, -0.6595116966676249 
0.029999999999999874, -0.6592336938649902 
0.04000000000000012, -0.6589166293144559 
0.050000000000000405, -0.6585533021680519 
0.06000000000000069, -0.6581444065557681 
0.07000000000000098, -0.6576990794005616 
0.08000000000000126, -0.6572346923469096 
0.09000000000000155, -0.6567777454847503 
0.10000000000000184, -0.6563668422109069 
0.11000000000000212, -0.6560578269864474 
0.12000000000000241, -0.6559305243524409 
0.130000000000002, -0.6560959529181145 
0.1400000000000009, -0.6567021802195188 
0.1499999999999998, -0.6579359410769439 
0.1599999999999987, -0.6600154480371917 
0.1699999999999976, -0.6631671160149778 
0.1799999999999965, -0.6675759594277769 
0.1899999999999954, -0.6733012266417276 
0.1999999999999943, -0.6801678217034333 
0.2099999999999932, -0.6876905361416593 
0.2199999999999921, -0.6951310729662319 
0.229999999999991, -0.7017334322121511 
0.2399999999999899, -0.7070089144907677 
0.2499999999999888, -0.7108556747047106 
0.2599999999999877, -0.7134596514824786 
0.2699999999999866, -0.7151150282875435 
0.2799999999999855, -0.7160967512556184 
0.2899999999999844, -0.7166113911671242 
0.2999999999999833, -0.7167947450068827 
0.3099999999999822, -0.7167246265976857 
0.3199999999999811, -0.7164328979444037 
0.32999999999998, -0.7159112675474342 
0.3399999999999789, -0.7151094343434131 
0.3499999999999778, -0.7139251786074646 
0.35999999999997667, -0.712187203025805 
0.36999999999997557, -0.7096366237833781 
0.37999999999997447, -0.7059270382527209 
0.38999999999997337, -0.7006862020543994 
0.39999999999997227, -0.6936872467366604 
0.40999999999997117, -0.6850976004189886 
0.41999999999997006, -0.6756112898913753 
0.42999999999996896, -0.6662562439433771 
0.43999999999996786, -0.6579702089795149 
0.44999999999996676, -0.6512850104519546 
0.45999999999996566, -0.6462949083687078 
0.46999999999996456, -0.6428062709297839 
0.47999999999996346, -0.6405063941618068 
0.48999999999996235, -0.6390758500893757 
0.49999999999996125, -0.6382419459348433 
0.5099999999999602, -0.6377941808560904 
0.519999999999959, -0.6375805285105075 
0.529999999999958, -0.6374962138628549 
0.5399999999999568, -0.6374711367672398 
0.5499999999999557, -0.6374588342097315 
0.5599999999999546, -0.6374281598460638 
0.5699999999999535, -0.6373580448613946 
0.5799999999999524, -0.6372352660864187 
0.5899999999999513, -0.6370546001122163 
0.5999999999999502, -0.6368198332008803 
0.6099999999999491, -0.6365432920869974 
0.619999999999948, -0.6362420569608518 
0.6299999999999469, -0.6359313758429582 
0.6399999999999458, -0.635618454061449 
0.6499999999999447, -0.6353002118014611 
0.6599999999999436, -0.6349661971095463 
0.6699999999999425, -0.6346046309902 
0.6799999999999414, -0.6342081179737245 
0.6899999999999403, -0.6337767636199618 
0.6999999999999392, -0.6333188766775097 
0.7099999999999381, -0.6328510017685793 
0.719999999999937, -0.6323990388112186 
0.7299999999999359, -0.6320014104799364 
0.7399999999999348, -0.6317144768825882 
0.7499999999999337, -0.6316198758710454 
0.7599999999999326, -0.6318329744111735 
0.7699999999999315, -0.6325108400764675 
0.7799999999999304, -0.6338567071721677 
0.7899999999999293, -0.6361152546060074 
0.7999999999999282, -0.6395486071809384 
0.8099999999999271, -0.6443780519163143 
0.819999999999926, -0.6506786240272496 
0.8299999999999249, -0.6582412476927779 
0.8399999999999238, -0.6664829609581244 
0.8499999999999227, -0.6745376090441125 
0.8599999999999216, -0.6815641007287158 
0.8699999999999205, -0.6870750699513956 
0.8799999999999194, -0.6910289684378597 
0.8899999999999183, -0.6936763235246398 
0.8999999999999172, -0.6953521465750541 
0.9099999999999161, -0.6963496643179701 
0.919999999999915, -0.6968813187247466 
0.9299999999999139, -0.6970839278921933 
0.9399999999999128, -0.6970350772745058 
0.9499999999999117, -0.6967664592641929 
0.9599999999999106, -0.6962701267335349 
0.9699999999999095, -0.695497132335146 
0.9799999999999084, -0.6943490464415893 
0.9899999999999073, -0.6926647751359432 
0.9999999999999062, -0.6902114119654235 
1.0099999999999052, -0.68670126916143 
1.019999999999904, -0.6818707002192804 
1.029999999999903, -0.6756373200958536 
1.039999999999902, -0.6682646969517936 
1.0499999999999008, -0.6603752959310759 
1.0599999999998997, -0.6527380115024458 
1.0699999999998986, -0.6459803735088334 
1.0799999999998975, -0.6404329033872029 
1.0899999999998964, -0.6361482617700858 
1.0999999999998953, -0.6330037514575392 
1.1099999999998942, -0.6308003410917122 
1.119999999999893, -0.6293268842616042 
1.129999999999892, -0.6283926605341267 
1.1399999999998909, -0.6278398481439613 
1.1499999999998898, -0.6275452310207966 
1.1599999999998887, -0.6274167246759162 
1.1699999999998876, -0.6273878224105508 
1.1799999999998865, -0.627411744182337 
1.1899999999998854, -0.6274563775587589 
1.1999999999998843, -0.6275006515528991 
1.2099999999998832, -0.6275325327758485 
1.219999999999882, -0.6275481990111671 
1.229999999999881, -0.6275511682809657 
1.2399999999998799, -0.6275497698577717 
1.2499999999998788, -0.6275521438721288 
1.2599999999998777, -0.6275600107006394 
1.2699999999998766, -0.6275643531161436 
1.2799999999998755, -0.6275460080382599 
1.2899999999998744, -0.6274814797736521 
1.2999999999998733, -0.6273508585259966 
1.3099999999998722, -0.6271435152357925 
1.319999999999871, -0.6268594214085527 
1.32999999999987, -0.6265073085842883 
1.3399999999998689, -0.6261025218766788 
1.3499999999998678, -0.6256669233733858 
1.3599999999998666, -0.6252320665071215 
1.3699999999998655, -0.6248462259299588 
1.3799999999998644, -0.6245857496259375 
1.3899999999998633, -0.6245710124398985 
1.3999999999998622, -0.6249861695562483 
1.4099999999998611, -0.6260987582587954 
1.41999999999986, -0.6282682172234306 
1.429999999999859, -0.6319200414948293 
1.4399999999998578, -0.6374482331147067 
1.4499999999998567, -0.6450150454536498 
1.4599999999998556, -0.6542923379237566 
1.4699999999998545, -0.6643434800370702 
1.4799999999998534, -0.673890698255893 
1.4899999999998523, -0.6818864057773728 
1.4999999999998512, -0.6879113168730917 
1.5099999999998501, -0.6921116123678805 
1.519999999999849, -0.6948900171587484 
1.529999999999848, -0.6966587466120909 
1.5399999999998468, -0.6977388865238954 
1.5499999999998457, -0.6983503496187541 
1.5599999999998446, -0.6986321639905773 
1.5699999999998435, -0.6986643705955061 
1.5799999999998424, -0.6984830898519798 
1.5899999999998413, -0.6980879157855291 
1.5999999999998402, -0.6974426990518856 
1.6099999999998391, -0.696471502477378 
1.619999999999838, -0.6950536131858315 
1.629999999999837, -0.6930266953243422 
1.6399999999998358, -0.6902143634720221 
1.6499999999998347, -0.6864936473914318 
1.6599999999998336, -0.681890380819572 
1.6699999999998325, -0.6766407758896313 
1.6799999999998314, -0.6711489976217464 
1.6899999999998303, -0.6658519639184 
1.6999999999998292, -0.661087256679535 
1.709999999999828, -0.657038984174072 
1.719999999999827, -0.6537563346411306 
1.729999999999826, -0.651200447648873 
1.7399999999998248, -0.6492869762014747 
1.7499999999998237, -0.6479143025713704 
1.7599999999998226, -0.6469795441609782 
1.7699999999998215, -0.646387039291232 
1.7799999999998204, -0.6460527073514 
1.7899999999998193, -0.645906004138298 
1.7999999999998182, -0.6458902376077473 
1.809999999999817, -0.6459617345650599 
1.819999999999816, -0.6460883904164485 
1.8299999999998149, -0.6462481539412379 
1.8399999999998138, -0.6464277821268886 
1.8499999999998127, -0.6466216776612613 
1.8599999999998116, -0.6468299796759025 
1.8699999999998105, -0.647054877875654 
1.8799999999998094, -0.64729501799571 
1.8899999999998083, -0.6475397801053504 
1.8999999999998072, -0.6477667694548117 
1.909999999999806, -0.6479451749174913 
1.919999999999805, -0.648044224592471 
1.9299999999998039, -0.6480421863056056 
1.9399999999998028, -0.6479309744028302 
1.9499999999998017, -0.6477150635793942 
1.9599999999998006, -0.6474073690196509 
1.9699999999997995, -0.6470257837583591 
1.9799999999997984, -0.6465927513299795 
1.9899999999997973, -0.6461388318502018 
1.9999999999997962, -0.6457107524618053 
2.0099999999998173, -0.6453845886199182 
2.0199999999998384, -0.6452846409456123 
2.0299999999998595, -0.6456071736508081 
2.0399999999998806, -0.6466439109860979 
2.0499999999999017, -0.6487908953979604 
2.059999999999923, -0.6525128866595397 
2.069999999999944, -0.6582192960504374 
2.079999999999965, -0.6660264392495847 
2.089999999999986, -0.6754868879349993 
2.100000000000007, -0.685533732777514 
2.1100000000000283, -0.6948561407019571 
2.1200000000000494, -0.7024986590943701 
2.1300000000000705, -0.7081687901977798 
2.1400000000000916, -0.712086122400822 
2.1500000000001127, -0.7146652938603879 
2.160000000000134, -0.7163011232177555 
2.170000000000155, -0.717292882605233 
2.180000000000176, -0.7178432686503535 
2.190000000000197, -0.718079343117195 
2.2000000000002182, -0.7180726851815956 
2.2100000000002393, -0.7178525500814769 
2.2200000000002604, -0.7174115872041577 
2.2300000000002815, -0.7167050413999203 
2.2400000000003026, -0.7156451266975975 
2.2500000000003237, -0.7140948057814158 
2.260000000000345, -0.7118713499232469 
2.270000000000366, -0.7087783439008211 
2.280000000000387, -0.7046832968649127 
2.290000000000408, -0.6996253365268439 
2.3000000000004293, -0.69388081689571 
2.3100000000004504, -0.6879092590659596 
2.3200000000004715, -0.6821980817681876 
2.3300000000004926, -0.6771164196102146 
2.3400000000005137, -0.6728584047673489 
2.3500000000005348, -0.6694662956668149 
2.360000000000556, -0.6668835767629162 
2.370000000000577, -0.6650029451983596 
2.380000000000598, -0.6636987839305372 
2.390000000000619, -0.6628463670866032 
2.4000000000006403, -0.6623324452180357 
2.4100000000006614, -0.6620604937237877 
2.4200000000006825, -0.6619524086533933 
2.4300000000007036, -0.6619477449153581 
2.4400000000007247, -0.6620014778253773 
2.450000000000746, -0.6620812887964653 
2.460000000000767, -0.6621652433557764 
2.470000000000788, -0.6622403123082798 
2.480000000000809, -0.662301462149712 
2.49000000000083, -0.6623502413812441 
2.5000000000008513, -0.6623915774058882 
2.5100000000008724, -0.6624285705743477 
2.5200000000008935, -0.6624571161997127 
2.5300000000009146, -0.6624635184344416 
2.5400000000009357, -0.6624272073206086 
2.550000000000957, -0.6623274865428364 
2.560000000000978, -0.6621504680078598 
2.570000000000999, -0.6618926299301855 
2.58000000000102, -0.6615604522950056 
2.5900000000010412, -0.6611683524909318 
2.6000000000010624, -0.660737678384989 
2.6100000000010835, -0.6602984943858834 
2.6200000000011046, -0.6598948138325874 
2.6300000000011257, -0.6595933467170131 
2.6400000000011468, -0.6594954019731614 
2.650000000001168, -0.6597507151368686 
2.660000000001189, -0.6605701228268599 
2.67000000000121, -0.6622306421728074 
2.680000000001231, -0.6650611502346078 
2.6900000000012523, -0.6693901902483808 
2.7000000000012734, -0.6754355518412788 
2.7100000000012945, -0.6831365865125616 
2.7200000000013156, -0.6919985156706163 
2.7300000000013367, -0.7011044468700633 
2.740000000001358, -0.7094088609275778 
2.750000000001379, -0.716165007978344 
2.7600000000014, -0.7211499084260351 
2.770000000001421, -0.7245595027632644 
2.780000000001442, -0.7267613698946815 
2.7900000000014633, -0.7281109908693147 
2.8000000000014844, -0.7288792574213145 
2.8100000000015055, -0.729247595568281 
2.8200000000015266, -0.7293255734368846 
2.8300000000015477, -0.729168653523785 
2.840000000001569, -0.7287889705325376 
2.85000000000159, -0.7281578885191181 
2.860000000001611, -0.7272004842945071 
2.870000000001632, -0.7257828432956349 
2.8800000000016532, -0.7236963867453552 
2.8900000000016743, -0.720653288716645 
2.9000000000016954, -0.7163246156433685 
2.9100000000017165, -0.7104618972678599 
2.9200000000017377, -0.7030965051103519 
2.9300000000017588, -0.6946908462983257 
2.94000000000178, -0.6860598836604613 
2.950000000001801, -0.6780627254346243 
2.960000000001822, -0.6712987804662026 
2.970000000001843, -0.6660029038495663 
2.9800000000018643, -0.6621192197243438 
2.9900000000018854, -0.6594326529976428 
3.0000000000019065, -0.6576766237357375 
3.0100000000019276, -0.6565968048307292 
3.0200000000019487, -0.6559799134319111 
3.03000000000197, -0.6556611260364846 
3.040000000001991, -0.6555203273559933 
3.050000000002012, -0.6554736031711609 
3.060000000002033, -0.6554637552453546 
3.070000000002054, -0.6554519560055322 
3.0800000000020753, -0.6554116421824144 
3.0900000000020964, -0.6553251035891036 
3.1000000000021175, -0.655182624625407 
3.1100000000021386, -0.6549831666268054 
3.1200000000021597, -0.6547345841470025 
3.130000000002181, -0.6544512062423136 
3.140000000002202, -0.6541482702050867 
3.150000000002223, -0.6538354566836061 
3.160000000002244, -0.6535131872962594 
3.1700000000022652, -0.6531738538052587 
3.1800000000022863, -0.6528069646222343 
3.1900000000023074, -0.6524050157552257 
3.2000000000023285, -0.6519673319098958 
3.2100000000023496, -0.6515013708474583 
3.2200000000023707, -0.6510228929417397 
3.230000000002392, -0.6505567720420575 
3.240000000002413, -0.6501395114304491 
3.250000000002434, -0.6498236451716298 
3.260000000002455, -0.6496835495072466 
3.2700000000024763, -0.6498216828409185 
3.2800000000024974, -0.6503737243191063 
3.2900000000025185, -0.6515102930722316 
3.3000000000025396, -0.6534315732091677 
3.3100000000025607, -0.6563487999395289 
3.3200000000025818, -0.6604434948666944 
3.330000000002603, -0.6657952532000373 
3.340000000002624, -0.6722822170140537 
3.350000000002645, -0.6794972816285221 
3.360000000002666, -0.6867701147033448 
3.3700000000026873, -0.6933598395298354 
3.3800000000027084, -0.698732779656267 
3.3900000000027295, -0.702719612242462 
3.4000000000027506, -0.7054567188676295 
3.4100000000027717, -0.7072178334585485 
3.420000000002793, -0.7082768731402765 
3.430000000002814, -0.7088470200588282 
3.440000000002835, -0.7090718447306946 
3.450000000002856, -0.7090360329488903 
3.460000000002877, -0.7087774761235097 
3.4700000000028983, -0.7082939142474486 
3.4800000000029194, -0.707542227835669 
3.4900000000029405, -0.7064298334516621 
3.5000000000029616, -0.70479867506687 
3.5100000000029827, -0.7024065683644791 
3.520000000003004, -0.6989230424059231 
3.530000000003025, -0.6939789406304844 
3.540000000003046, -0.6873191417955868 
3.550000000003067, -0.6790434510962061 
3.5600000000030882, -0.669764587764138 
3.5700000000031094, -0.6604640012160892 
3.5800000000031305, -0.6520911264271667 
3.5900000000031516, -0.6452272797460394 
3.6000000000031727, -0.6400207306816023 
3.6100000000031938, -0.6363178719224172 
3.620000000003215, -0.6338292051504151 
3.630000000003236, -0.6322454617360147 
3.640000000003257, -0.6312956639020613 
3.650000000003278, -0.6307662711269725 
3.6600000000032993, -0.6305001076712713 
3.6700000000033204, -0.6303869059970479 
3.6800000000033415, -0.6303517793394117 
3.6900000000033626, -0.6303446676330429 
3.7000000000033837, -0.6303320798668985 
3.710000000003405, -0.630291612530975 
3.720000000003426, -0.6302092625404018 
3.730000000003447, -0.6300790379316955 
3.740000000003468, -0.6299035454199584 
3.750000000003489, -0.6296934418370769 
3.7600000000035103, -0.629463921832781 
3.7700000000035314, -0.6292284453558807 
3.7800000000035525, -0.6289925090044222 
3.7900000000035736, -0.628751057784377 
3.8000000000035947, -0.6284911292024742 
3.810000000003616, -0.6281980548971717 
3.820000000003637, -0.6278616364517774 
3.830000000003658, -0.627479580992159 
3.840000000003679, -0.6270580575723361 
3.8500000000037002, -0.6266111875752631 
3.8600000000037213, -0.6261615250148225 
3.8700000000037424, -0.6257428036065611 
3.8800000000037635, -0.6254054384568156 
3.8900000000037847, -0.6252247902639915 
3.9000000000038058, -0.6253117758126878 
3.910000000003827, -0.6258246038394326 
3.920000000003848, -0.6269787002158979 
3.930000000003869, -0.6290484993246748 
3.94000000000389, -0.6323488722179293 
3.9500000000039113, -0.6371763816629982 
3.9600000000039324, -0.6436895240093687 
3.9700000000039535, -0.651735782715777 
3.9800000000039746, -0.6607150381519294 
3.9900000000039957, -0.6696502112668162 
4.000000000004016, -0.6775409251077371 
4.010000000003993, -0.6837761003413656 
4.02000000000397, -0.6882713600345352 
4.030000000003946, -0.6912970098198555 
4.040000000003923, -0.6932306035572642 
4.0500000000039, -0.6944053824249177 
4.0600000000038765, -0.6950637109267225 
4.070000000003853, -0.6953632266592285 
4.08000000000383, -0.6953963438447885 
4.090000000003807, -0.6952065729134282 
4.100000000003783, -0.694797367420748 
4.11000000000376, -0.6941333281996509 
4.120000000003737, -0.693134676782687 
4.130000000003713, -0.6916674800898686 
4.14000000000369, -0.6895371260319039 
4.150000000003667, -0.6865029419572911 
4.1600000000036434, -0.6823417705862816 
4.17000000000362, -0.6769731301964261 
4.180000000003597, -0.6705921711877414 
4.1900000000035735, -0.6636889993097881 
4.20000000000355, -0.6568924208695387 
4.210000000003527, -0.6507435868822463 
4.220000000003504, -0.6455596856184747 
4.23000000000348, -0.6414325733571404 
4.240000000003457, -0.6383002860190775 
4.250000000003434, -0.6360236436612732 
4.26000000000341, -0.6344395787421997 
4.270000000003387, -0.6333907328426129 
4.280000000003364, -0.6327391979441337 
4.2900000000033405, -0.632371292554374 
4.300000000003317, -0.6321975525193643 
4.310000000003294, -0.6321502387172662 
4.320000000003271, -0.6321797535330845 
4.330000000003247, -0.632250962036499 
4.340000000003224, -0.6323401555434585 
4.350000000003201, -0.6324330502619334 
4.360000000003177, -0.6325236510144804 
4.370000000003154, -0.6326130744113672 
4.380000000003131, -0.6327069563331355 
4.390000000003107, -0.632810609098909 
4.400000000003084, -0.6329228883035974 
4.410000000003061, -0.6330317026634584 
4.4200000000030375, -0.6331143636105527 
4.430000000003014, -0.6331435452866805 
4.440000000002991, -0.633095880004544 
4.450000000002968, -0.6329583953755644 
4.460000000002944, -0.6327300184845803 
4.470000000002921, -0.6324191947673313 
4.480000000002898, -0.6320407863039497 
4.490000000002874, -0.6316149768726135 
4.500000000002851, -0.6311695813249264 
4.510000000002828, -0.6307463882098966 
4.520000000002804, -0.6304120992880244 
4.530000000002781, -0.6302744454372957 
4.540000000002758, -0.630503263426476 
4.5500000000027345, -0.6313534498532956 
4.560000000002711, -0.6331798287448345 
4.570000000002688, -0.6364210494602166 
4.580000000002665, -0.6415131507597691 
4.590000000002641, -0.6486938808591913 
4.600000000002618, -0.6577271907912443 
4.610000000002595, -0.6677391266536777 
4.620000000002571, -0.6774389012414789 
4.630000000002548, -0.6856969900634478 
4.640000000002525, -0.6920019781344969 
4.6500000000025015, -0.6964443901583282 
4.660000000002478, -0.699410568477583 
4.670000000002455, -0.7013176412652473 
4.6800000000024315, -0.7024982100529543 
4.690000000002408, -0.7031836351587453 
4.700000000002385, -0.7035224714081086 
4.710000000002362, -0.7036024728532625 
4.720000000002338, -0.7034664102054033 
4.730000000002315, -0.703120403382752 
4.740000000002292, -0.7025356777762302 
4.750000000002268, -0.7016453299074564 
4.760000000002245, -0.7003394012986616 
4.770000000002222, -0.6984660523065995 
4.7800000000021985, -0.6958534937811987 
4.790000000002175, -0.6923686749210982 
4.800000000002152, -0.6880072587929681 
4.810000000002129, -0.6829629988412016 
4.820000000002105, -0.6776055802737757 
4.830000000002082, -0.6723614126984807 
4.840000000002059, -0.6675804313864794 
4.850000000002035, -0.6634696865960046 
4.860000000002012, -0.6601008547275459 
4.870000000001989, -0.6574521904568817 
4.880000000001965, -0.6554505558609219 
4.890000000001942, -0.6540007277308842 
4.900000000001919, -0.6530026606368944 
4.9100000000018955, -0.6523610154172796 
4.920000000001872, -0.6519903736301417 
