t, s[1].omega / s[0].omega 
0, -0.22001545679781156 
0.009999999999999995, -0.22176518208335697 
0.019999999999999934, -0.2238599436121103 
0.029999999999999874, -0.22612965179061023 
0.04000000000000012, -0.2283313662945643 
0.050000000000000405, -0.23023855121114356 
0.06000000000000069, -0.2317221792069985 
0.07000000000000098, -0.23276514441516252 
0.08000000000000126, -0.23342071916194168 
0.09000000000000155, -0.23376245506160626 
0.10000000000000184, -0.23385312315872278 
0.11000000000000212, -0.23373301678547392 
0.12000000000000241, -0.23341895242160868 
0.130000000000002, -0.23290799486818536 
0.1400000000000009, -0.23218469936155106 
0.1499999999999998, -0.2312336523999991 
0.1599999999999987, -0.2300583577186348 
0.1699999999999976, -0.22870127633885146 
0.1799999999999965, -0.22725132422657252 
0.1899999999999954, -0.22582660858452752 
0.1999999999999943, -0.22453851357121643 
0.2099999999999932, -0.22346017358417006 
0.2199999999999921, -0.22261599406991534 
0.229999999999991, -0.22198950491437258 
0.2399999999999899, -0.22153803616938833 
0.2499999999999888, -0.2212068151700548 
0.2599999999999877, -0.2209405006332256 
0.2699999999999866, -0.22069139423363446 
0.2799999999999855, -0.22042315759405615 
0.2899999999999844, -0.22010969576967815 
0.2999999999999833, -0.21973034152299076 
0.3099999999999822, -0.21926275367530126 
0.3199999999999811, -0.21867363653577207 
0.32999999999998, -0.2179051896627911 
0.3399999999999789, -0.2168526746336692 
0.3499999999999778, -0.2153268526201642 
0.35999999999997667, -0.21300068131595268 
0.36999999999997557, -0.20937254731730937 
0.37999999999997447, -0.2038617413292493 
0.38999999999997337, -0.19619922172723198 
0.39999999999997227, -0.18696405339089436 
0.40999999999997117, -0.17755229756837232 
0.41999999999997006, -0.16932637580770626 
0.42999999999996896, -0.16290221500202726 
0.43999999999996786, -0.1582049715867429 
0.44999999999996676, -0.15486537468538192 
0.45999999999996566, -0.1524975909918554 
0.46999999999996456, -0.15079867740374958 
0.47999999999996346, -0.14955682481778174 
0.48999999999996235, -0.14863272054845342 
0.49999999999996125, -0.14793969261128354 
0.5099999999999602, -0.14742933815232762 
0.519999999999959, -0.1470832636926745 
0.529999999999958, -0.1469104780899535 
0.5399999999999568, -0.1469503041944613 
0.5499999999999557, -0.14728092393670839 
0.5599999999999546, -0.14803200493539212 
0.5699999999999535, -0.1493906528684748 
0.5799999999999524, -0.1515567063535199 
0.5899999999999513, -0.15451459287765676 
0.5999999999999502, -0.15737732191851708 
0.6099999999999491, -0.15743052916547354 
0.619999999999948, -0.15083112600135812 
0.6299999999999469, -0.13695672241779425 
0.6399999999999458, -0.12055106550936764 
0.6499999999999447, -0.10665089819210552 
0.6599999999999436, -0.09682743511665039 
0.6699999999999425, -0.09040697159237385 
0.6799999999999414, -0.08629124878097719 
0.6899999999999403, -0.08363229969530314 
0.6999999999999392, -0.08188881934066738 
0.7099999999999381, -0.0807385721893974 
0.719999999999937, -0.07999771712502102 
0.7299999999999359, -0.07956987069517109 
0.7399999999999348, -0.07941916096729908 
0.7499999999999337, -0.07956039494810214 
0.7599999999999326, -0.08006336792018487 
0.7699999999999315, -0.08107266094480255 
0.7799999999999304, -0.08284837180208424 
0.7899999999999293, -0.08583450085868244 
0.7999999999999282, -0.09074544368465201 
0.8099999999999271, -0.09857290514317119 
0.819999999999926, -0.1101427426641032 
0.8299999999999249, -0.1245635119930304 
0.8399999999999238, -0.13735133192184 
0.8499999999999227, -0.14285100266849898 
0.8599999999999216, -0.1406112638585833 
0.8699999999999205, -0.1349833945099829 
0.8799999999999194, -0.12956154300936656 
0.8899999999999183, -0.12551658692247597 
0.8999999999999172, -0.12277342651789298 
0.9099999999999161, -0.12097325321722585 
0.919999999999915, -0.11980575367109758 
0.9299999999999139, -0.11906225356900317 
0.9399999999999128, -0.11861705892470267 
0.9499999999999117, -0.11840308604047496 
0.9599999999999106, -0.11839585203961607 
0.9699999999999095, -0.11860664870959614 
0.9799999999999084, -0.11908402805979448 
0.9899999999999073, -0.11992383592552132 
0.9999999999999062, -0.12128956134904892 
1.0099999999999052, -0.12344527808696107 
1.019999999999904, -0.1267986283802855 
1.029999999999903, -0.13192783507645311 
1.039999999999902, -0.1394984413658364 
1.0499999999999008, -0.14987214052710035 
1.0599999999998997, -0.16233211644187578 
1.0699999999998986, -0.17468031152169133 
1.0799999999998975, -0.18444767779601068 
1.0899999999998964, -0.19071834410215924 
1.0999999999998953, -0.1941838383881228 
1.1099999999998942, -0.1959544261317006 
1.119999999999893, -0.19684052028105886 
1.129999999999892, -0.19728873350387546 
1.1399999999998909, -0.19751777816469235 
1.1499999999998898, -0.19763149833788243 
1.1599999999998887, -0.19768087544531684 
1.1699999999998876, -0.1976940472624037 
1.1799999999998865, -0.19769099664103304 
1.1899999999998854, -0.19769183126381074 
1.1999999999998843, -0.19772262522455733 
1.2099999999998832, -0.19782007303727167 
1.219999999999882, -0.1980346737406744 
1.229999999999881, -0.19843139794997372 
1.2399999999998799, -0.1990863654280764 
1.2499999999998788, -0.20007702200932925 
1.2599999999998777, -0.2014615007970187 
1.2699999999998766, -0.20324420315609473 
1.2799999999998755, -0.20533720905820693 
1.2899999999998744, -0.2075495373451643 
1.2999999999998733, -0.20963727466985177 
1.3099999999998722, -0.21139663441815504 
1.319999999999871, -0.21272994161405495 
1.32999999999987, -0.2136421460212369 
1.3399999999998689, -0.21419380422511072 
1.3499999999998678, -0.2144556422619671 
1.3599999999998666, -0.21448373338656848 
1.3699999999998655, -0.21431169521596943 
1.3799999999998644, -0.21395160771460048 
1.3899999999998633, -0.2133991223062175 
1.3999999999998622, -0.21264246449358729 
1.4099999999998611, -0.2116767350822628 
1.41999999999986, -0.2105223269663054 
1.429999999999859, -0.2092393045894471 
1.4399999999998578, -0.20792480126917506 
1.4499999999998567, -0.2066886822662377 
1.4599999999998556, -0.20562082449962213 
1.4699999999998545, -0.20477009653227504 
1.4799999999998534, -0.2041422640681067 
1.4899999999998523, -0.20370969182890458 
1.4999999999998512, -0.20342398903723807 
1.5099999999998501, -0.20322803021187505 
1.519999999999849, -0.20306657318758603 
1.529999999999848, -0.20289388120922053 
1.5399999999998468, -0.2026763413261244 
1.5499999999998457, -0.20238979901096563 
1.5599999999998446, -0.20201316032204764 
1.5699999999998435, -0.20151975219148088 
1.5799999999998424, -0.20086624205038275 
1.5899999999998413, -0.19997686885585472 
1.5999999999998402, -0.19871966163876226 
1.6099999999998391, -0.1968745104449175 
1.619999999999838, -0.1941097932132529 
1.629999999999837, -0.19002692999036253 
1.6399999999998358, -0.18436941285584013 
1.6499999999998347, -0.17737122590813667 
1.6599999999998336, -0.16988485699303732 
1.6699999999998325, -0.16296239654965808 
1.6799999999998314, -0.15727445532311776 
1.6899999999998303, -0.15295146619025538 
1.6999999999998292, -0.14979612386186164 
1.709999999999828, -0.14752112003889978 
1.719999999999827, -0.14586990256313567 
1.729999999999826, -0.14464906474462574 
1.7399999999998248, -0.14372402999322684 
1.7499999999998237, -0.14300598458565855 
1.7599999999998226, -0.14243994154937026 
1.7699999999998215, -0.14199626771901502 
1.7799999999998204, -0.1416657552075841 
1.7899999999998193, -0.14145776120442405 
1.7999999999998182, -0.14140031966283828 
1.809999999999817, -0.1415387347455262 
1.819999999999816, -0.14192095920312137 
1.8299999999998149, -0.14253424244983054 
1.8399999999998138, -0.14310514812201724 
1.8499999999998127, -0.14263896803296408 
1.8599999999998116, -0.13889709948315138 
1.8699999999998105, -0.12919750399874344 
1.8799999999998094, -0.11368366765108631 
1.8899999999998083, -0.0966942582570732 
1.8999999999998072, -0.0825937921008898 
1.909999999999806, -0.0726592535091218 
1.919999999999805, -0.06614964267751341 
1.9299999999998039, -0.0619544974708038 
1.9399999999998028, -0.0592211356541555 
1.9499999999998017, -0.0574039264503605 
1.9599999999998006, -0.05617605934489861 
1.9699999999997995, -0.055348640541268826 
1.9799999999997984, -0.054819239331007644 
1.9899999999997973, -0.054543986812965885 
1.9999999999997962, -0.05452608387254178 
2.0099999999998173, -0.0548171140603391 
2.0199999999998384, -0.05553096380405962 
2.0299999999998595, -0.05687181415282304 
2.0399999999998806, -0.059172095942843526 
2.0499999999999017, -0.06290135664977906 
2.059999999999923, -0.06847939039939667 
2.069999999999944, -0.07545677762083805 
2.079999999999965, -0.08083403112250973 
2.089999999999986, -0.07910734893786066 
2.100000000000007, -0.06822304574069954 
2.1100000000000283, -0.05345252244365582 
2.1200000000000494, -0.040738222611237454 
2.1300000000000705, -0.031873664984099784 
2.1400000000000916, -0.02617517476056664 
2.1500000000001127, -0.02256948513802704 
2.160000000000134, -0.020262202561295236 
2.170000000000155, -0.018762893055871706 
2.180000000000176, -0.01778814047541663 
2.190000000000197, -0.017182470449069336 
2.2000000000002182, -0.016871761225089908 
2.2100000000002393, -0.016841067962675177 
2.2200000000002604, -0.017130251333392525 
2.2300000000002815, -0.017845797031559286 
2.2400000000003026, -0.019191957955040383 
2.2500000000003237, -0.021526424081157743 
2.260000000000345, -0.025432254219002453 
2.270000000000366, -0.031716334525146835 
2.280000000000387, -0.040965172580174285 
2.290000000000408, -0.05190928921750141 
2.3000000000004293, -0.059342061786295065 
2.3100000000004504, -0.05732032055311629 
2.3200000000004715, -0.04722601544898329 
2.3300000000004926, -0.0357074411225634 
2.3400000000005137, -0.02673290154344604 
2.3500000000005348, -0.020716213077395997 
2.360000000000556, -0.016867206848227942 
2.370000000000577, -0.0144106820983124 
2.380000000000598, -0.012826823822610776 
2.390000000000619, -0.011805668498295068 
2.4000000000006403, -0.011174013942684595 
2.4100000000006614, -0.010846117141264228 
2.4200000000006825, -0.010798310422951637 
2.4300000000007036, -0.011061975878665194 
2.4400000000007247, -0.011732960604910312 
2.450000000000746, -0.013000580903703799 
2.460000000000767, -0.015203888494070634 
2.470000000000788, -0.0189194645411405 
2.480000000000809, -0.025037755450553013 
2.49000000000083, -0.0345773764741735 
2.5000000000008513, -0.047509974556902465 
2.5100000000008724, -0.060249741932594095 
2.5200000000008935, -0.0659396598147257 
2.5300000000009146, -0.062081044621401384 
2.5400000000009357, -0.053595430617891925 
2.550000000000957, -0.045613568734085695 
2.560000000000978, -0.0398164001631881 
2.570000000000999, -0.03597805826761424 
2.58000000000102, -0.033497100601677 
2.5900000000010412, -0.03189343636564222 
2.6000000000010624, -0.030860166077116096 
2.6100000000010835, -0.030218800272845188 
2.6200000000011046, -0.029876393821798998 
2.6300000000011257, -0.029800234577005626 
2.6400000000011468, -0.030008533739017275 
2.650000000001168, -0.030575497725393704 
2.660000000001189, -0.031652865014632235 
2.67000000000121, -0.03351469366015508 
2.680000000001231, -0.036635109735709596 
2.6900000000012523, -0.04179480693051392 
2.7000000000012734, -0.05012117181061572 
2.7100000000012945, -0.06266148013880916 
2.7200000000013156, -0.0787256456000573 
2.7300000000013367, -0.09379313746311882 
2.740000000001358, -0.10199242561013273 
2.750000000001379, -0.10257628367812004 
2.7600000000014, -0.09942449193756989 
2.770000000001421, -0.09582450539049918 
2.780000000001442, -0.09297859235313306 
2.7900000000014633, -0.09098710043616978 
2.8000000000014844, -0.08965437930185523 
2.8100000000015055, -0.0887823498971786 
2.8200000000015266, -0.08823238694259426 
2.8300000000015477, -0.0879220746533666 
2.840000000001569, -0.08781259170613555 
2.85000000000159, -0.08790058640906942 
2.860000000001611, -0.08821704919605661 
2.870000000001632, -0.08883397166508708 
2.8800000000016532, -0.08988054927448433 
2.8900000000016743, -0.09157208778856078 
2.9000000000016954, -0.09425398838744489 
2.9100000000017165, -0.09845150544068734 
2.9200000000017377, -0.10486911275175337 
2.9300000000017588, -0.11416911291063041 
2.94000000000178, -0.1262814261178682 
2.950000000001801, -0.13951651406960258 
2.960000000001822, -0.1509733915783084 
2.970000000001843, -0.15873314783439263 
2.9800000000018643, -0.1630160015128404 
2.9900000000018854, -0.1650786681053786 
3.0000000000019065, -0.16600260982423434 
3.0100000000019276, -0.1664036743450415 
3.0200000000019487, -0.16657425540371135 
3.03000000000197, -0.16664355921167623 
3.040000000001991, -0.16666905671710633 
3.050000000002012, -0.1666794040834558 
3.060000000002033, -0.16669382355042267 
3.070000000002054, -0.16673176888607955 
3.0800000000020753, -0.1668191222877551 
3.0900000000020964, -0.16699336241705456 
3.1000000000021175, -0.16730825094409607 
3.1100000000021386, -0.16783753202222523 
3.1200000000021597, -0.1686761730232093 
3.130000000002181, -0.1699355946348837 
3.140000000002202, -0.17172506767556744 
3.150000000002223, -0.17410794103488045 
3.160000000002244, -0.17703163195342903 
3.1700000000022652, -0.18026974886127514 
3.1800000000022863, -0.18345421116111216 
3.1900000000023074, -0.1862225378824645 
3.2000000000023285, -0.18837051932734117 
3.2100000000023496, -0.18988390882379758 
3.2200000000023707, -0.19086320247552774 
3.230000000002392, -0.19143640655455532 
3.240000000002413, -0.19171106262655696 
3.250000000002434, -0.19176129939971026 
3.260000000002455, -0.191631373831129 
3.2700000000024763, -0.1913441227068567 
3.2800000000024974, -0.19091060977913737 
3.2900000000025185, -0.19034088989657005 
3.3000000000025396, -0.18965564038725352 
3.3100000000025607, -0.1888955932435638 
3.3200000000025818, -0.18812309909768113 
3.330000000002603, -0.18741232359807197 
3.340000000002624, -0.18683199726057204 
3.350000000002645, -0.18642978912494218 
3.360000000002666, -0.18622412088774654 
3.3700000000026873, -0.18620265040767367 
3.3800000000027084, -0.18632499722172363 
3.3900000000027295, -0.18653011762093147 
3.4000000000027506, -0.18674927731498928 
3.4100000000027717, -0.186921165286354 
3.420000000002793, -0.18700199422753866 
3.430000000002814, -0.18696613400464507 
3.440000000002835, -0.18679892797972633 
3.450000000002856, -0.1864862431112856 
3.460000000002877, -0.18600379619526194 
3.4700000000028983, -0.1853067283277811 
3.4800000000029194, -0.1843192310751573 
3.4900000000029405, -0.1829269898858905 
3.5000000000029616, -0.1809833832219441 
3.5100000000029827, -0.1783512991691865 
3.520000000003004, -0.17499666047410162 
3.530000000003025, -0.1710937924437484 
3.540000000003046, -0.16702857602565854 
3.550000000003067, -0.16324034302793508 
3.5600000000030882, -0.16002837077192483 
3.5700000000031094, -0.15748438688342428 
3.5800000000031305, -0.15555044855024328 
3.5900000000031516, -0.15410548198402524 
3.6000000000031727, -0.15302235246298584 
3.6100000000031938, -0.15219225890790974 
3.620000000003215, -0.15153074534928504 
3.630000000003236, -0.150976120493784 
3.640000000003257, -0.15048520159218623 
3.650000000003278, -0.15002819248634197 
3.6600000000032993, -0.14958322086895992 
3.6700000000033204, -0.14913004553620765 
3.6800000000033415, -0.14864073495397884 
3.6900000000033626, -0.14806167076366245 
3.7000000000033837, -0.14727433418986163 
3.710000000003405, -0.14601179470585918 
3.720000000003426, -0.14370964559456567 
3.730000000003447, -0.13936030654588433 
3.740000000003468, -0.13173903808469806 
3.750000000003489, -0.12050689571170267 
3.7600000000035103, -0.10736590605305758 
3.7700000000035314, -0.09512784234473909 
3.7800000000035525, -0.08554981233198353 
3.7900000000035736, -0.0787852791070358 
3.8000000000035947, -0.07421286972257571 
3.810000000003616, -0.07114141323869906 
3.820000000003637, -0.06904904825955213 
3.830000000003658, -0.06759091533264887 
3.840000000003679, -0.06655116683491259 
3.8500000000037002, -0.06579912629461199 
3.8600000000037213, -0.06525999946638361 
3.8700000000037424, -0.06489783845064283 
3.8800000000037635, -0.06470727291083946 
3.8900000000037847, -0.06471147756816802 
3.9000000000038058, -0.0649638484418618 
3.910000000003827, -0.06554695632410044 
3.920000000003848, -0.06654657900186954 
3.930000000003869, -0.06793188752941112 
3.94000000000389, -0.06918236669086145 
3.9500000000039113, -0.06854595868458924 
3.9600000000039324, -0.06278634462471647 
3.9700000000039535, -0.0498735983228131 
3.9800000000039746, -0.03290162072819926 
3.9900000000039957, -0.017480912203922627 
4.000000000004016, -0.006303270722920085 
4.010000000003993, 0.0009124046995285942 
4.02000000000397, 0.005086450451118645 
4.030000000003946, 0.007594028626630715 
4.040000000003923, 0.009083987055100167 
4.0500000000039, 0.00994039144678825 
4.0600000000038765, 0.010383752533831291 
4.070000000003853, 0.01053627345627618 
4.08000000000383, 0.01045806678863127 
4.090000000003807, 0.010164791210412067 
4.100000000003783, 0.009633434579752655 
4.11000000000376, 0.008800646716414359 
4.120000000003737, 0.007560745583658319 
4.130000000003713, 0.0057875753321125325 
4.14000000000369, 0.003461123228881259 
4.150000000003667, 0.0011017330456496396 
4.1600000000036434, 0.0006832122406087127 
4.17000000000362, 0.005918661834421067 
4.180000000003597, 0.018801065660582563 
4.1900000000035735, 0.035309750159279715 
4.20000000000355, 0.04949946544760951 
4.210000000003527, 0.05920001225306739 
4.220000000003504, 0.06517224167207634 
4.23000000000348, 0.06871845444620386 
4.240000000003457, 0.070802516517712 
4.250000000003434, 0.07201173970296543 
4.26000000000341, 0.07268428246965912 
4.270000000003387, 0.07301200869987343 
4.280000000003364, 0.07310192062935375 
4.2900000000033405, 0.07300992230023302 
4.300000000003317, 0.07275936597674135 
4.310000000003294, 0.07235348706249999 
4.320000000003271, 0.07179227133986212 
4.330000000003247, 0.07111573657836752 
4.340000000003224, 0.07052539855656814 
4.350000000003201, 0.07067053526850008 
4.360000000003177, 0.07305193057001517 
4.370000000003154, 0.07973870063452743 
4.380000000003131, 0.09111844218918366 
4.390000000003107, 0.10408491466233323 
4.400000000003084, 0.11489112135665173 
4.410000000003061, 0.12228148929657845 
4.4200000000030375, 0.12685739860131423 
4.430000000003014, 0.12957464699035878 
4.440000000002991, 0.1311560377023932 
4.450000000002968, 0.13205542057222855 
4.460000000002944, 0.13254425604078363 
4.470000000002921, 0.13278605568008187 
4.480000000002898, 0.1328832564564671 
4.490000000002874, 0.1329057213534783 
4.500000000002851, 0.13291054291766596 
4.510000000002828, 0.13296067635118305 
4.520000000002804, 0.13314928401595405 
4.530000000002781, 0.13363599108996588 
4.540000000002758, 0.13469199048416255 
4.5500000000027345, 0.13671207651492545 
4.560000000002711, 0.14007734646407283 
4.570000000002688, 0.14478457200398492 
4.580000000002665, 0.1501486099392953 
4.590000000002641, 0.1551296401509083 
4.600000000002618, 0.1590246356255685 
4.610000000002595, 0.1617070866087476 
4.620000000002571, 0.16338606774789938 
4.630000000002548, 0.16433963252041914 
4.640000000002525, 0.16479975146048598 
4.6500000000025015, 0.16493620149084492 
4.660000000002478, 0.16487160131292303 
4.670000000002455, 0.16469733323536712 
4.6800000000024315, 0.1644835950355174 
4.690000000002408, 0.16428551521400936 
4.700000000002385, 0.16414847641592772 
4.710000000002362, 0.1641140388042514 
4.720000000002338, 0.16422564231488293 
4.730000000002315, 0.1645313030378175 
4.740000000002292, 0.16507857631889333 
4.750000000002268, 0.1658965461971782 
4.760000000002245, 0.1669657357650916 
4.770000000002222, 0.1681932110302095 
4.7800000000021985, 0.16942203439969603 
4.790000000002175, 0.1704825515461033 
4.800000000002152, 0.17124943269324447 
4.810000000002129, 0.1716627964684901 
4.820000000002105, 0.17171231052205924 
