t, s[1].omega / s[0].omega 
0, -1.540097676830734 
0.009999999999999995, -1.5480494355366885 
0.019999999999999934, -1.5528859883499175 
0.029999999999999874, -1.5555529008404012 
0.04000000000000012, -1.55685484317271 
0.050000000000000405, -1.5573257122475879 
0.06000000000000069, -1.5572864748397242 
0.07000000000000098, -1.556932774492404 
0.08000000000000126, -1.556411796716723 
0.09000000000000155, -1.555870326106986 
0.10000000000000184, -1.555447379640046 
0.11000000000000212, -1.5552224515683184 
0.12000000000000241, -1.5551932496247323 
0.130000000000002, -1.5553023556323198 
0.1400000000000009, -1.5554580008165904 
0.1499999999999998, -1.5555465261205694 
0.1599999999999987, -1.5554523538273946 
0.1699999999999976, -1.5550613589396909 
0.1799999999999965, -1.5542375288595234 
0.1899999999999954, -1.5527902889574128 
0.1999999999999943, -1.5504499429857341 
0.2099999999999932, -1.5468679292779677 
0.2199999999999921, -1.5416825605342261 
0.229999999999991, -1.5347528250614029 
0.2399999999999899, -1.5266823392505162 
0.2499999999999888, -1.519311674180686 
0.2599999999999877, -1.5148697436417764 
0.2699999999999866, -1.5137649248303355 
0.2799999999999855, -1.5144165946894312 
0.2899999999999844, -1.5153060337903619 
0.2999999999999833, -1.5158415259630176 
0.3099999999999822, -1.5159493280506697 
0.3199999999999811, -1.515663495706121 
0.32999999999998, -1.514974872609125 
0.3399999999999789, -1.5138231488420995 
0.3499999999999778, -1.5122336406524668 
0.35999999999997667, -1.5107481464166261 
0.36999999999997557, -1.5109833063236515 
0.37999999999997447, -1.5149135943257253 
0.38999999999997337, -1.5224180622723464 
0.39999999999997227, -1.5309881723787597 
0.40999999999997117, -1.5383314663475582 
0.41999999999997006, -1.5436465013399487 
0.42999999999996896, -1.5470912936079355 
0.43999999999996786, -1.5491114734577154 
0.44999999999996676, -1.5501324283218891 
0.45999999999996566, -1.5504756394879675 
0.46999999999996456, -1.5503615121504173 
0.47999999999996346, -1.5499415321536576 
0.48999999999996235, -1.549337920665424 
0.49999999999996125, -1.5486721231296523 
0.5099999999999602, -1.548061888178417 
0.519999999999959, -1.547595336774609 
0.529999999999958, -1.5473170204221889 
0.5399999999999568, -1.5472202580505343 
0.5499999999999557, -1.547230975773624 
0.5599999999999546, -1.5472220647322594 
0.5699999999999535, -1.5470559183488732 
0.5799999999999524, -1.5465956370109653 
0.5899999999999513, -1.5456688225026236 
0.5999999999999502, -1.5440079659636967 
0.6099999999999491, -1.5411881681499588 
0.619999999999948, -1.5365922842547095 
0.6299999999999469, -1.5294982436353717 
0.6399999999999458, -1.51952387939795 
0.6499999999999447, -1.5076798624655114 
0.6599999999999436, -1.4972317764497767 
0.6699999999999425, -1.4917300969325786 
0.6799999999999414, -1.4911723629515827 
0.6899999999999403, -1.4927246387407864 
0.6999999999999392, -1.4942659213945686 
0.7099999999999381, -1.495183529896265 
0.719999999999937, -1.495519784005936 
0.7299999999999359, -1.4954078417254504 
0.7399999999999348, -1.4949162436934702 
0.7499999999999337, -1.4940576855882681 
0.7599999999999326, -1.4929012675689517 
0.7699999999999315, -1.491852072847326 
0.7799999999999304, -1.4919676652931537 
0.7899999999999293, -1.49452780123695 
0.7999999999999282, -1.4996116911534818 
0.8099999999999271, -1.5057647733443316 
0.819999999999926, -1.5114186203443363 
0.8299999999999249, -1.515827088299607 
0.8399999999999238, -1.51891025943385 
0.8499999999999227, -1.520866251066249 
0.8599999999999216, -1.5219493125548682 
0.8699999999999205, -1.5223856768147181 
0.8799999999999194, -1.5223517255316623 
0.8899999999999183, -1.521979280708321 
0.8999999999999172, -1.52137517152586 
0.9099999999999161, -1.520643835560635 
0.919999999999915, -1.5198960202543244 
0.9299999999999139, -1.5192365091085216 
0.9399999999999128, -1.5187477976794348 
0.9499999999999117, -1.5184730675786864 
0.9599999999999106, -1.5183839891319422 
0.9699999999999095, -1.5183712701767624 
0.9799999999999084, -1.5182897046253845 
0.9899999999999073, -1.5179991895052811 
0.9999999999999062, -1.517350884623379 
1.0099999999999052, -1.5161326661035894 
1.019999999999904, -1.5139992987208264 
1.029999999999903, -1.5104063429641152 
1.039999999999902, -1.5046005647235172 
1.0499999999999008, -1.495826218942261 
1.0599999999998997, -1.4840550042280038 
1.0699999999998986, -1.4712597305896353 
1.0799999999998975, -1.4615183481659497 
1.0899999999998964, -1.4576164025321798 
1.0999999999998953, -1.4581250239389216 
1.1099999999998942, -1.459976070059803 
1.119999999999893, -1.4614883120190378 
1.129999999999892, -1.462322665061234 
1.1399999999998909, -1.4625921903269967 
1.1499999999998898, -1.4624313111255556 
1.1599999999998887, -1.461899170298685 
1.1699999999998876, -1.4610039450601264 
1.1799999999998865, -1.4598204080139499 
1.1899999999998854, -1.458770372602499 
1.1999999999998843, -1.458933377374886 
1.2099999999998832, -1.4616287636274128 
1.219999999999882, -1.4670054875315353 
1.229999999999881, -1.4736204492283185 
1.2399999999998799, -1.479806349950624 
1.2499999999998788, -1.4847022331330326 
1.2599999999998777, -1.4881710752312303 
1.2699999999998766, -1.4904068957431755 
1.2799999999998755, -1.4916853621968271 
1.2899999999998744, -1.4922599020358487 
1.2999999999998733, -1.4923302207047329 
1.3099999999998722, -1.492044176709695 
1.319999999999871, -1.4915172560577794 
1.32999999999987, -1.490857713638375 
1.3399999999998689, -1.4901793972155741 
1.3499999999998678, -1.4895887570183208 
1.3599999999998666, -1.489161379808945 
1.3699999999998655, -1.4889299147813788 
1.3799999999998644, -1.4888717940399092 
1.3899999999998633, -1.488900328494617 
1.3999999999998622, -1.4888896702426775 
1.4099999999998611, -1.4887120779472327 
1.41999999999986, -1.4882412759024304 
1.429999999999859, -1.487320714920796 
1.4399999999998578, -1.4857207644746504 
1.4499999999998567, -1.483104149399996 
1.4599999999998556, -1.4790228973189183 
1.4699999999998545, -1.4729997440822595 
1.4799999999998534, -1.4648051369717832 
1.4899999999998523, -1.4550437949117516 
1.4999999999998512, -1.4457264722309537 
1.5099999999998501, -1.4395230460887272 
1.519999999999849, -1.4373835186047315 
1.529999999999848, -1.437807478490122 
1.5399999999998468, -1.4388960402935917 
1.5499999999998457, -1.4397243507584816 
1.5599999999998446, -1.4401007935525556 
1.5699999999998435, -1.440064025879037 
1.5799999999998424, -1.439648327026592 
1.5899999999998413, -1.4388227723258757 
1.5999999999998402, -1.437515622715189 
1.6099999999998391, -1.4357773874706994 
1.619999999999838, -1.4342365705124163 
1.629999999999837, -1.4346442299438507 
1.6399999999998358, -1.4391476731672548 
1.6499999999998347, -1.4478090993419417 
1.6599999999998336, -1.4580143503142475 
1.6699999999998325, -1.4670330547414354 
1.6799999999998314, -1.4737050548589998 
1.6899999999998303, -1.4780952650919315 
1.6999999999998292, -1.4807213324942121 
1.709999999999828, -1.4821218310626403 
1.719999999999827, -1.4827129332971218 
1.729999999999826, -1.4827772283694927 
1.7399999999998248, -1.4824997727623104 
1.7499999999998237, -1.4820166238326629 
1.7599999999998226, -1.4814571692062704 
1.7699999999998215, -1.4809561405779768 
1.7799999999998204, -1.4806211179874558 
1.7899999999998193, -1.4804924500406287 
1.7999999999998182, -1.4805438897057126 
1.809999999999817, -1.480705311896326 
1.819999999999816, -1.4808780251971867 
1.8299999999998149, -1.4809527941252436 
1.8399999999998138, -1.4808263208782397 
1.8499999999998127, -1.4803981809796425 
1.8599999999998116, -1.4795526410521422 
1.8699999999998105, -1.4781420369502922 
1.8799999999998094, -1.4759828187446251 
1.8899999999998083, -1.4728716658837828 
1.8999999999998072, -1.4686382151096316 
1.909999999999806, -1.4632752157508295 
1.919999999999805, -1.457187596516784 
1.9299999999998039, -1.4514253282072571 
1.9399999999998028, -1.447364884776434 
1.9499999999998017, -1.445622352030314 
1.9599999999998006, -1.4455289697113245 
1.9699999999997995, -1.4460057987654247 
1.9799999999997984, -1.4464017054053886 
1.9899999999997973, -1.4465018930639189 
1.9999999999997962, -1.4462587946208991 
2.0099999999998173, -1.445618325800236 
2.0199999999998384, -1.4444436578246342 
2.0299999999998595, -1.4425057298663868 
2.0399999999998806, -1.4396523942774828 
2.0499999999999017, -1.4364929726254494 
2.059999999999923, -1.4355917114681938 
2.069999999999944, -1.440886163481936 
2.079999999999965, -1.4531183951016442 
2.089999999999986, -1.4678099881162656 
2.100000000000007, -1.4801730623589722 
2.1100000000000283, -1.4885878684833003 
2.1200000000000494, -1.4936207514888302 
2.1300000000000705, -1.4963593374607884 
2.1400000000000916, -1.4976888023235841 
2.1500000000001127, -1.4981789920564585 
2.160000000000134, -1.4981630476692056 
2.170000000000155, -1.4978389071526717 
2.180000000000176, -1.4973549516915607 
2.190000000000197, -1.496867643619338 
2.2000000000002182, -1.4965407561352941 
2.2100000000002393, -1.4964772796950894 
2.2200000000002604, -1.4966656200347406 
2.2300000000002815, -1.4970115308760719 
2.2400000000003026, -1.4973983140574227 
2.2500000000003237, -1.4977148569466243 
2.260000000000345, -1.4978641056438715 
2.270000000000366, -1.4977636693898888 
2.280000000000387, -1.4973363796275017 
2.290000000000408, -1.496497682322872 
2.3000000000004293, -1.4951490156097842 
2.3100000000004504, -1.4931807923562244 
2.3200000000004715, -1.4904887232066861 
2.3300000000004926, -1.4870185403348577 
2.3400000000005137, -1.482870984499945 
2.3500000000005348, -1.4784757973364235 
2.360000000000556, -1.4746688006004234 
2.370000000000577, -1.4722933016599555 
2.380000000000598, -1.4714695421438813 
2.390000000000619, -1.471554186146986 
2.4000000000006403, -1.4718429416784493 
2.4100000000006614, -1.4719669711962757 
2.4200000000006825, -1.4717961367319552 
2.4300000000007036, -1.47125182910194 
2.4400000000007247, -1.4701874380506932 
2.450000000000746, -1.4683199006301464 
2.460000000000767, -1.4652581787542398 
2.470000000000788, -1.4609405460448546 
2.480000000000809, -1.4570195743320957 
2.49000000000083, -1.4580844660005912 
2.5000000000008513, -1.4680171157725197 
2.5100000000008724, -1.4837902138824084 
2.5200000000008935, -1.4986389812510506 
2.5300000000009146, -1.5090824884508804 
2.5400000000009357, -1.5153070305912828 
2.550000000000957, -1.5186532920934532 
2.560000000000978, -1.520279590225088 
2.570000000000999, -1.5209185411811892 
2.58000000000102, -1.5209820976541875 
2.5900000000010412, -1.5207008622375153 
2.6000000000010624, -1.520234262320931 
2.6100000000010835, -1.519746531516468 
2.6200000000011046, -1.5194199447437302 
2.6300000000011257, -1.5193812293729256 
2.6400000000011468, -1.5196247616890421 
2.650000000001168, -1.5200411531891591 
2.660000000001189, -1.5204972063957303 
2.67000000000121, -1.5208748311132763 
2.680000000001231, -1.521076706266079 
2.6900000000012523, -1.5210230646545697 
2.7000000000012734, -1.5206409677301398 
2.7100000000012945, -1.5198510312797349 
2.7200000000013156, -1.5185597576087781 
2.7300000000013367, -1.5166610270177816 
2.740000000001358, -1.5140508625229303 
2.750000000001379, -1.5106717572203001 
2.7600000000014, -1.5066214490532643 
2.770000000001421, -1.502337128696378 
2.780000000001442, -1.4986737959642435 
2.7900000000014633, -1.496467605762102 
2.8000000000014844, -1.495779972584272 
2.8100000000015055, -1.4959237168436645 
2.8200000000015266, -1.4962089335239108 
2.8300000000015477, -1.4962981259949082 
2.840000000001569, -1.4960758247630512 
2.85000000000159, -1.4954592554408719 
2.860000000001611, -1.4942848067843992 
2.870000000001632, -1.49225513021291 
2.8800000000016532, -1.4890421114593337 
2.8900000000016743, -1.4849588208598052 
2.9000000000016954, -1.482544101115813 
2.9100000000017165, -1.4866708393951127 
2.9200000000017377, -1.4990463643149872 
2.9300000000017588, -1.5145614226096242 
2.94000000000178, -1.5274307212296638 
2.950000000001801, -1.5358884198289924 
2.960000000001822, -1.5407505165323978 
2.970000000001843, -1.543290380101982 
2.9800000000018643, -1.544459221645904 
2.9900000000018854, -1.5448326232404053 
3.0000000000019065, -1.5447334220977698 
3.0100000000019276, -1.5443537040351936 
3.0200000000019487, -1.543847762087172 
3.03000000000197, -1.5433824211345404 
3.040000000001991, -1.5431121272498605 
3.050000000002012, -1.5431013236835383 
3.060000000002033, -1.5433023979440414 
3.070000000002054, -1.5436116762391896 
3.0800000000020753, -1.5439157597403927 
3.0900000000020964, -1.5441057574197088 
3.1000000000021175, -1.5440837542277932 
3.1100000000021386, -1.543758448711403 
3.1200000000021597, -1.5430282179552863 
3.130000000002181, -1.5417639346944505 
3.140000000002202, -1.539801602528556 
3.150000000002223, -1.5369517664647327 
3.160000000002244, -1.5330448176676812 
3.1700000000022652, -1.5280636935995608 
3.1800000000022863, -1.522422514372004 
3.1900000000023074, -1.5172278065420757 
3.2000000000023285, -1.5138553876281564 
3.2100000000023496, -1.5127111010575365 
3.2200000000023707, -1.5129142225298633 
3.230000000002392, -1.513419632952673 
3.240000000002413, -1.5137171337685031 
3.250000000002434, -1.5136757168898165 
3.260000000002455, -1.5132608251778454 
3.2700000000024763, -1.5123927703264084 
3.2800000000024974, -1.5109107937270743 
3.2900000000025185, -1.5086875690698187 
3.3000000000025396, -1.5061643644020781 
3.3100000000025607, -1.5053928832284649 
3.3200000000025818, -1.509705433451221 
3.330000000002603, -1.5198096652620268 
3.340000000002624, -1.5319777543606938 
3.350000000002645, -1.5422813117231862 
3.360000000002666, -1.5494029788903463 
3.3700000000026873, -1.5537531747924054 
3.3800000000027084, -1.5561628380854882 
3.3900000000027295, -1.5573316706081108 
3.4000000000027506, -1.5577299835999754 
3.4100000000027717, -1.5576465500731458 
3.420000000002793, -1.5572628928723977 
3.430000000002814, -1.5567204867317828 
3.440000000002835, -1.5561609888801358 
3.450000000002856, -1.555714896217872 
3.460000000002877, -1.5554557451273534 
3.4700000000028983, -1.5553853406165028 
3.4800000000029194, -1.5554540918100233 
3.4900000000029405, -1.555571825673542 
3.5000000000029616, -1.5556213198977171 
3.5100000000029827, -1.555482482600398 
3.520000000003004, -1.5550342941580741 
3.530000000003025, -1.5541266191872882 
3.540000000003046, -1.5525419093015458 
3.550000000003067, -1.5499652170198845 
3.5600000000030882, -1.5459839685857473 
3.5700000000031094, -1.5401735783590353 
3.5800000000031305, -1.5324029571187743 
3.5900000000031516, -1.5234884880240396 
3.6000000000031727, -1.515681947858013 
3.6100000000031938, -1.5113839077080138 
3.620000000003215, -1.510649987807419 
3.630000000003236, -1.5115528992066156 
3.640000000003257, -1.512543402892764 
3.650000000003278, -1.5131060122766473 
3.6600000000032993, -1.51321574419149 
3.6700000000033204, -1.5129266342631742 
3.6800000000033415, -1.5122410374802622 
3.6900000000033626, -1.5111185610837743 
3.7000000000033837, -1.5096306294891435 
3.710000000003405, -1.5083840676535112 
3.720000000003426, -1.508949510633289 
3.730000000003447, -1.512976628617214 
3.740000000003468, -1.5200599244114659 
3.750000000003489, -1.5278843113076852 
3.7600000000035103, -1.5345220491890887 
3.7700000000035314, -1.5393373933653653 
3.7800000000035525, -1.5424795407454341 
3.7900000000035736, -1.544331382329407 
3.8000000000035947, -1.5452612518983773 
3.810000000003616, -1.5455529229395124 
3.820000000003637, -1.5454056129880538 
3.830000000003658, -1.5449601259346244 
3.840000000003679, -1.544333217215733 
3.8500000000037002, -1.543642422400037 
3.8600000000037213, -1.5430026784404647 
3.8700000000037424, -1.5425034316062751 
3.8800000000037635, -1.5421952993665418 
3.8900000000037847, -1.542076603633662 
3.9000000000038058, -1.5420727264428584 
3.910000000003827, -1.5420530701467683 
3.920000000003848, -1.5418772465148356 
3.930000000003869, -1.5414061599328799 
3.94000000000389, -1.54046340024893 
3.9500000000039113, -1.5387721091860915 
3.9600000000039324, -1.5358876228284233 
3.9700000000039535, -1.5311574057080182 
3.9800000000039746, -1.5238115922911881 
3.9900000000039957, -1.5134401279798222 
4.000000000004016, -1.5011200237808404 
4.010000000003993, -1.490308303058216 
4.02000000000397, -1.4847004909582737 
4.030000000003946, -1.4842224696205724 
4.040000000003923, -1.485893482904797 
4.0500000000039, -1.4875248517990887 
4.0600000000038765, -1.4884993135197417 
4.070000000003853, -1.488871519678763 
4.08000000000383, -1.4887863763920226 
4.090000000003807, -1.4883212424638368 
4.100000000003783, -1.4874941961964085 
4.11000000000376, -1.4863695674863016 
4.120000000003737, -1.485319789685227 
4.130000000003713, -1.4853387832416363 
4.14000000000369, -1.4876889065759908 
4.150000000003667, -1.4925545098905786 
4.1600000000036434, -1.498595157152358 
4.17000000000362, -1.5042502100778283 
4.180000000003597, -1.5087233528053896 
4.1900000000035735, -1.5118911222194873 
4.20000000000355, -1.5139283830658714 
4.210000000003527, -1.5150801713325033 
4.220000000003504, -1.5155710842984647 
4.23000000000348, -1.5155792570177566 
4.240000000003457, -1.5152387120967623 
4.250000000003434, -1.5146569648746202 
4.26000000000341, -1.5139374324536605 
4.270000000003387, -1.5131901557073928 
4.280000000003364, -1.5125211108434145 
4.2900000000033405, -1.5120149518827046 
4.300000000003317, -1.5117193946283776 
4.310000000003294, -1.5116158636347892 
4.320000000003271, -1.5116048691150972 
4.330000000003247, -1.5115446348725967 
4.340000000003224, -1.5112957944851222 
4.350000000003201, -1.5107157108107576 
4.360000000003177, -1.50961003462344 
4.370000000003154, -1.507667943134863 
4.380000000003131, -1.5043997530176587 
4.390000000003107, -1.4991183089352977 
4.400000000003084, -1.4910885851905342 
4.410000000003061, -1.4801041123915772 
4.4200000000030375, -1.467617561186731 
4.430000000003014, -1.457241230634798 
4.440000000002991, -1.4521964431803425 
4.450000000002968, -1.4519289350151359 
4.460000000002944, -1.4535479556243454 
4.470000000002921, -1.4550887742249354 
4.480000000002898, -1.4560085114350172 
4.490000000002874, -1.4563567641217225 
4.500000000002851, -1.4562627212033745 
4.510000000002828, -1.4557916802963993 
4.520000000002804, -1.4549468868934061 
4.530000000002781, -1.4537582135704585 
4.540000000002758, -1.452527953990637 
4.5500000000027345, -1.4522099176618932 
4.560000000002711, -1.4542854037463644 
4.570000000002688, -1.4594093778662411 
4.580000000002665, -1.4663886977759175 
4.590000000002641, -1.473303988462695 
4.600000000002618, -1.4789549222406961 
4.610000000002595, -1.483036718903043 
4.620000000002571, -1.4857157330928208 
4.630000000002548, -1.4872974110188184 
4.640000000002525, -1.4880762750727778 
4.6500000000025015, -1.4882869101977063 
4.660000000002478, -1.4881007986123544 
4.670000000002455, -1.487645527417939 
4.6800000000024315, -1.487032974117765 
4.690000000002408, -1.486379055040555 
4.700000000002385, -1.4857964718866468 
4.710000000002362, -1.485367792904783 
4.720000000002338, -1.4851296526655688 
4.730000000002315, -1.485067941488228 
4.740000000002292, -1.4851108356919458 
4.750000000002268, -1.4851428427295537 
4.760000000002245, -1.48503952442227 
4.770000000002222, -1.4846811413646002 
4.7800000000021985, -1.4839314027255 
4.790000000002175, -1.4826013387205328 
4.800000000002152, -1.4804186679274376 
4.810000000002129, -1.4770201256055822 
4.820000000002105, -1.4719987209237277 
4.830000000002082, -1.465076702422988 
4.840000000002059, -1.456509864043538 
4.850000000002035, -1.4476408842606094 
4.860000000002012, -1.4407834427774313 
4.870000000001989, -1.4375169592920392 
4.880000000001965, -1.4371860212819736 
4.890000000001942, -1.4380241194290189 
4.900000000001919, -1.438855159493832 
4.9100000000018955, -1.4393059523604133 
4.920000000001872, -1.4393534167134492 
4.930000000001849, -1.439024380201389 
4.940000000001826, -1.4382913864075397 
