t, s[1].omega / s[0].omega 
0, -0.659997707450546 
0.009999999999999995, -0.659770506245398 
0.019999999999999934, -0.65953980348467 
0.029999999999999874, -0.6592868103388637 
0.04000000000000012, -0.6589905695760305 
0.050000000000000405, -0.6586369906298789 
0.06000000000000069, -0.658223859631153 
0.07000000000000098, -0.657761698839462 
0.08000000000000126, -0.6572733087890376 
0.09000000000000155, -0.6567950446909 
0.10000000000000184, -0.6563814605242773 
0.11000000000000212, -0.6561135087010295 
0.12000000000000241, -0.6561094892521735 
0.130000000000002, -0.6565371292657143 
0.1400000000000009, -0.6576242601571356 
0.1499999999999998, -0.6596643191394421 
0.1599999999999987, -0.6630106410310044 
0.1699999999999976, -0.6680487165168968 
0.1799999999999965, -0.6751273613355244 
0.1899999999999954, -0.6844238394980906 
0.1999999999999943, -0.6957385520056016 
0.2099999999999932, -0.7083019291062732 
0.2199999999999921, -0.7208062848095423 
0.229999999999991, -0.7318346361512196 
0.2399999999999899, -0.7404692184302235 
0.2499999999999888, -0.7465676912992254 
0.2599999999999877, -0.7505437990410803 
0.2699999999999866, -0.7529808413306638 
0.2799999999999855, -0.7543842550055039 
0.2899999999999844, -0.755108752771557 
0.2999999999999833, -0.7553733316971543 
0.3099999999999822, -0.7552957093539234 
0.3199999999999811, -0.7549182655583705 
0.32999999999998, -0.7542186408841915 
0.3399999999999789, -0.7531036584422078 
0.3499999999999778, -0.751384195581857 
0.35999999999997667, -0.7487267124535256 
0.36999999999997557, -0.744581281939414 
0.37999999999997447, -0.7381133148695225 
0.38999999999997337, -0.7282469352287726 
0.39999999999997227, -0.7140451668730392 
0.40999999999997117, -0.6955533233719581 
0.41999999999997006, -0.6745442417638489 
0.42999999999996896, -0.6540474563887494 
0.43999999999996786, -0.6367317476271255 
0.44999999999996676, -0.6237544680768656 
0.45999999999996566, -0.6148909369826419 
0.46999999999996456, -0.609259728307108 
0.47999999999996346, -0.6058963960694003 
0.48999999999996235, -0.6040081407836971 
0.49999999999996125, -0.6030245604588804 
0.5099999999999602, -0.6025654573000654 
0.519999999999959, -0.602389619878292 
0.529999999999958, -0.6023488750926511 
0.5399999999999568, -0.602353513005187 
0.5499999999999557, -0.6023486318185549 
0.5599999999999546, -0.6022993550886235 
0.5699999999999535, -0.6021830602798108 
0.5799999999999524, -0.6019871842214315 
0.5899999999999513, -0.6017108759014616 
0.5999999999999502, -0.6013674521180697 
0.6099999999999491, -0.6009834759284239 
0.619999999999948, -0.6005917029284072 
0.6299999999999469, -0.600219619418637 
0.6399999999999458, -0.5998793139931612 
0.6499999999999447, -0.5995641700129962 
0.6599999999999436, -0.5992537891239353 
0.6699999999999425, -0.5989239638327308 
0.6799999999999414, -0.5985563241390933 
0.6899999999999403, -0.5981437642952795 
0.6999999999999392, -0.5976915215746341 
0.7099999999999381, -0.5972166581346515 
0.719999999999937, -0.5967490901624539 
0.7299999999999359, -0.5963362529261707 
0.7399999999999348, -0.5960525450979921 
0.7499999999999337, -0.5960143585712421 
0.7599999999999326, -0.5964013881722603 
0.7699999999999315, -0.5974842845888296 
0.7799999999999304, -0.5996563203051772 
0.7899999999999293, -0.6034599527842818 
0.7999999999999282, -0.6095829436019785 
0.8099999999999271, -0.6187679346947121 
0.819999999999926, -0.6315468372686058 
0.8299999999999249, -0.6477549423369748 
0.8399999999999238, -0.6660461000807484 
0.8499999999999227, -0.6840170722483876 
0.8599999999999216, -0.6992815953472914 
0.8699999999999205, -0.7106558062833921 
0.8799999999999194, -0.7183267449848392 
0.8899999999999183, -0.7231725835956819 
0.8999999999999172, -0.726110672590738 
0.9099999999999161, -0.727829854005753 
0.919999999999915, -0.7287757663167381 
0.9299999999999139, -0.7292133810587715 
0.9399999999999128, -0.7292867265188516 
0.9499999999999117, -0.7290568377667463 
0.9599999999999106, -0.7285187767765897 
0.9699999999999095, -0.727600928015716 
0.9799999999999084, -0.7261481449310037 
0.9899999999999073, -0.7238912618447191 
0.9999999999999062, -0.7204163114979425 
1.0099999999999052, -0.715177078859526 
1.019999999999904, -0.7076359144943332 
1.029999999999903, -0.6975910505069566 
1.039999999999902, -0.6855373598111376 
1.0499999999999008, -0.6726746748075938 
1.0599999999998997, -0.6604153538457483 
1.0699999999998986, -0.649802457911113 
1.0799999999998975, -0.6412843767461729 
1.0899999999998964, -0.6348359543576791 
1.0999999999998953, -0.6301814140577283 
1.1099999999998942, -0.6269642903008921 
1.119999999999893, -0.6248388377181957 
1.129999999999892, -0.6235078167146852 
1.1399999999998909, -0.6227324626353645 
1.1499999999998898, -0.6223299096519845 
1.1599999999998887, -0.6221654463038189 
1.1699999999998876, -0.6221430872859449 
1.1799999999998865, -0.6221963731593151 
1.1899999999998854, -0.6222806504342796 
1.1999999999998843, -0.6223676370729277 
1.2099999999998832, -0.6224424981376503 
1.219999999999882, -0.622502713120655 
1.229999999999881, -0.6225568146682658 
1.2399999999998799, -0.6226204907975512 
1.2499999999998788, -0.6227088144925471 
1.2599999999998777, -0.6228264703397186 
1.2699999999998766, -0.6229606663675269 
1.2799999999998755, -0.6230814285284783 
1.2899999999998744, -0.6231503505580311 
1.2999999999998733, -0.6231334487214596 
1.3099999999998722, -0.6230109529287502 
1.319999999999871, -0.622779795574715 
1.32999999999987, -0.622450418385649 
1.3399999999998689, -0.6220427544335241 
1.3499999999998678, -0.6215855221210804 
1.3599999999998666, -0.6211210432470021 
1.3699999999998655, -0.6207169513756774 
1.3799999999998644, -0.6204865400607086 
1.3899999999998633, -0.6206201481280301 
1.3999999999998622, -0.6214294846622479 
1.4099999999998611, -0.6234026949989403 
1.41999999999986, -0.6272550672150332 
1.429999999999859, -0.6339292903584002 
1.4399999999998578, -0.6444439462583188 
1.4499999999998567, -0.6594478459969155 
1.4599999999998556, -0.6784774055659499 
1.4699999999998545, -0.6994285939201441 
1.4799999999998534, -0.7191530376893006 
1.4899999999998523, -0.7351179203669327 
1.4999999999998512, -0.7465343124679327 
1.5099999999998501, -0.7540264176295094 
1.519999999999849, -0.7586942503036168 
1.529999999999848, -0.761510590154417 
1.5399999999998468, -0.7631564996128664 
1.5499999999998457, -0.7640593392855759 
1.5599999999998446, -0.7644698411643378 
1.5699999999998435, -0.7645224506837884 
1.5799999999998424, -0.7642709027434491 
1.5899999999998413, -0.7637026902599447 
1.5999999999998402, -0.7627357135412031 
1.6099999999998391, -0.7611982042377315 
1.619999999999838, -0.7587943232616585 
1.629999999999837, -0.755070239214363 
1.6399999999998358, -0.7494292572325058 
1.6499999999998347, -0.7412891410055397 
1.6599999999998336, -0.7304419935840679 
1.6699999999998325, -0.7174438497119155 
1.6799999999998314, -0.7036155507744716 
1.6899999999998303, -0.6905036114265293 
1.6999999999998292, -0.6792480350420117 
1.709999999999828, -0.6703340394826554 
1.719999999999827, -0.663719277012119 
1.729999999999826, -0.6590770044688992 
1.7399999999998248, -0.6559871638266008 
1.7499999999998237, -0.6540436746753382 
1.7599999999998226, -0.6529014568273304 
1.7699999999998215, -0.6522896463379975 
1.7799999999998204, -0.6520078009050174 
1.7899999999998193, -0.6519143950281057 
1.7999999999998182, -0.6519129247772136 
1.809999999999817, -0.6519388472254273 
1.819999999999816, -0.651949272203424 
1.8299999999998149, -0.6519163961097705 
1.8399999999998138, -0.6518248156068979 
1.8499999999998127, -0.6516716631339265 
1.8599999999998116, -0.6514669461721885 
1.8699999999998105, -0.6512307156088741 
1.8799999999998094, -0.6509854654786377 
1.8899999999998083, -0.6507461547776929 
1.8999999999998072, -0.6505131288840632 
1.909999999999806, -0.6502721512811617 
1.919999999999805, -0.6500014830538967 
1.9299999999998039, -0.6496817542085619 
1.9399999999998028, -0.6493034419038082 
1.9499999999998017, -0.6488696815549881 
1.9599999999998006, -0.6483960215827924 
1.9699999999997995, -0.6479104155234887 
1.9799999999997984, -0.6474559854385649 
1.9899999999997973, -0.6470975836380658 
1.9999999999997962, -0.6469320482939195 
2.0099999999998173, -0.6471012721852791 
2.0199999999998384, -0.647806369254538 
2.0299999999998595, -0.6493199866445392 
2.0399999999998806, -0.6519916473923519 
2.0499999999999017, -0.6562366388011304 
2.059999999999923, -0.6624905373320165 
2.069999999999944, -0.6711002688221096 
2.079999999999965, -0.6821244157605754 
2.089999999999986, -0.6950737467919635 
2.100000000000007, -0.7087709504672537 
2.1100000000000283, -0.7216101097354295 
2.1200000000000494, -0.732224885463542 
2.1300000000000705, -0.7400518219978023 
2.1400000000000916, -0.7453187735295591 
2.1500000000001127, -0.7486321808646663 
2.160000000000134, -0.7506056607554483 
2.170000000000155, -0.7517024655113841 
2.180000000000176, -0.7522233468773408 
2.190000000000197, -0.7523428083565957 
2.2000000000002182, -0.7521447433213828 
2.2100000000002393, -0.7516430673823448 
2.2200000000002604, -0.7507852519764777 
2.2300000000002815, -0.7494377822261117 
2.2400000000003026, -0.7473504003062826 
2.2500000000003237, -0.7440963743882714 
2.260000000000345, -0.7390003660010849 
2.270000000000366, -0.7311180488123734 
2.280000000000387, -0.7194359792800433 
2.290000000000408, -0.7034902753786962 
2.3000000000004293, -0.6842009958829979 
2.3100000000004504, -0.6640006997838386 
2.3200000000004715, -0.6456911331154264 
2.3300000000004926, -0.6310510819848655 
2.3400000000005137, -0.6204485452360361 
2.3500000000005348, -0.6133313660127054 
2.360000000000556, -0.6088372718080322 
2.370000000000577, -0.6061534484034495 
2.380000000000598, -0.604644221687625 
2.390000000000619, -0.6038586108115079 
2.4000000000006403, -0.6034952909306633 
2.4100000000006614, -0.6033609368994968 
2.4200000000006825, -0.6033347158053057 
2.4300000000007036, -0.6033417915858499 
2.4400000000007247, -0.6033352553563417 
2.450000000000746, -0.6032851262371292 
2.460000000000767, -0.6031731773698381 
2.470000000000788, -0.6029922829843689 
2.480000000000809, -0.602748117712396 
2.49000000000083, -0.6024596973239704 
2.5000000000008513, -0.6021552123625777 
2.5100000000008724, -0.6018625293461823 
2.5200000000008935, -0.6015981783729367 
2.5300000000009146, -0.6013606856908629 
2.5400000000009357, -0.601131911506215 
2.550000000000957, -0.6008854708657758 
2.560000000000978, -0.6005974692585465 
2.570000000000999, -0.6002542469442306 
2.58000000000102, -0.5998549606414436 
2.5900000000010412, -0.5994108049662803 
2.6000000000010624, -0.5989443928701986 
2.6100000000010835, -0.5984921596946255 
2.6200000000011046, -0.5981114494692157 
2.6300000000011257, -0.5978933729281835 
2.6400000000011468, -0.5979825269226817 
2.650000000001168, -0.5986045384101367 
2.660000000001189, -0.6001010621286642 
2.67000000000121, -0.6029672157836724 
2.680000000001231, -0.6078740186772166 
2.6900000000012523, -0.6156311391440786 
2.7000000000012734, -0.6270028760576949 
2.7100000000012945, -0.6422786716208801 
2.7200000000013156, -0.6606662198265822 
2.7300000000013367, -0.6800172008499612 
2.740000000001358, -0.6975661127484185 
2.750000000001379, -0.7113656173940937 
2.7600000000014, -0.721031686178079 
2.770000000001421, -0.7272853460429272 
2.780000000001442, -0.7311397972030711 
2.7900000000014633, -0.7334387254579416 
2.8000000000014844, -0.7347556454476016 
2.8100000000015055, -0.7354430455823874 
2.8200000000015266, -0.7357024361165981 
2.8300000000015477, -0.7356351883552942 
2.840000000001569, -0.7352702363068253 
2.85000000000159, -0.734572384510954 
2.860000000001611, -0.7334339145491786 
2.870000000001632, -0.7316510226540618 
2.8800000000016532, -0.7288912591303286 
2.8900000000016743, -0.7246772354707313 
2.9000000000016954, -0.7184502732091433 
2.9100000000017165, -0.7097990997950618 
2.9200000000017377, -0.698830388188592 
2.9300000000017588, -0.6863955538912403 
2.94000000000178, -0.6738430928627537 
2.950000000001801, -0.6624326121490149 
2.960000000001822, -0.6529113019720832 
2.970000000001843, -0.6454792768213347 
2.9800000000018643, -0.6399778643915083 
2.9900000000018854, -0.6360884054537322 
3.0000000000019065, -0.6334596448420298 
3.0100000000019276, -0.6317698656799776 
3.0200000000019487, -0.630750198007416 
3.03000000000197, -0.6301887171704363 
3.040000000001991, -0.6299257748779642 
3.050000000002012, -0.6298456096387562 
3.060000000002033, -0.6298669211782016 
3.070000000002054, -0.6299341357088707 
3.0800000000020753, -0.63001055955716 
3.0900000000020964, -0.630074089430597 
3.1000000000021175, -0.6301153562239692 
3.1100000000021386, -0.6301369948692149 
3.1200000000021597, -0.6301516041568255 
3.130000000002181, -0.630176135607331 
3.140000000002202, -0.6302228252592044 
3.150000000002223, -0.6302901655392941 
3.160000000002244, -0.6303590260826584 
3.1700000000022652, -0.6303970663848165 
3.1800000000022863, -0.63036973723814 
3.1900000000023074, -0.6302517786199962 
3.2000000000023285, -0.6300332821912724 
3.2100000000023496, -0.6297192032133594 
3.2200000000023707, -0.6293258960049585 
3.230000000002392, -0.6288792209269549 
3.240000000002413, -0.6284171795785336 
3.250000000002434, -0.627998578042355 
3.260000000002455, -0.6277189111221257 
3.2700000000024763, -0.6277349240665163 
3.2800000000024974, -0.6282990121837425 
3.2900000000025185, -0.6298022170219474 
3.3000000000025396, -0.6328172526637065 
3.3100000000025607, -0.6381153735727976 
3.3200000000025818, -0.6465963964754522 
3.330000000002603, -0.659028285856282 
3.340000000002624, -0.6755160368836021 
3.350000000002645, -0.6948804516484703 
3.360000000002666, -0.7146019880761055 
3.3700000000026873, -0.731877344132504 
3.3800000000027084, -0.7450602414884393 
3.3900000000027295, -0.7540948513322407 
3.4000000000027506, -0.7598561932921091 
3.4100000000027717, -0.7633697095754295 
3.420000000002793, -0.7654406539223786 
3.430000000002814, -0.7666022776733865 
3.440000000002835, -0.7671772084256225 
3.450000000002856, -0.767346027545533 
3.460000000002877, -0.7671939037603593 
3.4700000000028983, -0.7667340344928577 
3.4800000000029194, -0.765911300911632 
3.4900000000029405, -0.7645874900604921 
3.5000000000029616, -0.7625078019566988 
3.5100000000029827, -0.7592535168428138 
3.520000000003004, -0.7542096095020213 
3.530000000003025, -0.7466301693567692 
3.540000000003046, -0.7359296647627402 
3.550000000003067, -0.7222026752154922 
3.5600000000030882, -0.7065881128472823 
3.5700000000031094, -0.6909527159219642 
3.5800000000031305, -0.6770336874797943 
3.5900000000031516, -0.6658016362499344 
3.6000000000031727, -0.6574213345676745 
3.6100000000031938, -0.6515556728879022 
3.620000000003215, -0.6476753759330864 
3.630000000003236, -0.6452484551347586 
3.640000000003257, -0.6438238368467519 
3.650000000003278, -0.64305351892343 
3.6600000000032993, -0.6426857315092513 
3.6700000000033204, -0.6425469679393772 
3.6800000000033415, -0.6425218347670393 
3.6900000000033626, -0.6425350355446678 
3.7000000000033837, -0.64253740824743 
3.710000000003405, -0.6424967065362529 
3.720000000003426, -0.6423931269781756 
3.730000000003447, -0.6422187931283688 
3.740000000003468, -0.6419790399868813 
3.750000000003489, -0.6416919522445557 
3.7600000000035103, -0.6413830705646592 
3.7700000000035314, -0.6410756205429817 
3.7800000000035525, -0.6407807849274741 
3.7900000000035736, -0.6404935162790776 
3.8000000000035947, -0.6401961888248344 
3.810000000003616, -0.6398676637148394 
3.820000000003637, -0.6394925818486984 
3.830000000003658, -0.6390668153500315 
3.840000000003679, -0.6385987388535057 
3.8500000000037002, -0.6381089550213319 
3.8600000000037213, -0.6376315034145494 
3.8700000000037424, -0.6372183481733025 
3.8800000000037635, -0.636947641931063 
3.8900000000037847, -0.6369354237499103 
3.9000000000038058, -0.6373497443695391 
3.910000000003827, -0.6384253053654553 
3.920000000003848, -0.6404750834440528 
3.930000000003869, -0.6438920936039575 
3.94000000000389, -0.6491274945332488 
3.9500000000039113, -0.656619235953104 
3.9600000000039324, -0.6666349585691196 
3.9700000000039535, -0.6790151260033086 
3.9800000000039746, -0.6929144413846899 
3.9900000000039957, -0.7068182875048498 
4.000000000004016, -0.7190663394535347 
4.010000000003993, -0.7286011651306017 
4.02000000000397, -0.7352868301329343 
4.030000000003946, -0.739621412407719 
4.040000000003923, -0.7422752199392808 
4.0500000000039, -0.7438144484373256 
4.0600000000038765, -0.7446300507577878 
4.070000000003853, -0.7449617569098549 
4.08000000000383, -0.7449396330893613 
4.090000000003807, -0.7446143017528879 
4.100000000003783, -0.7439699782614371 
4.11000000000376, -0.7429199170396551 
4.120000000003737, -0.7412826428091075 
4.130000000003713, -0.7387359383146889 
4.14000000000369, -0.7347518192132354 
4.150000000003667, -0.728547002446261 
4.1600000000036434, -0.7191617449118368 
4.17000000000362, -0.7058596896099045 
4.180000000003597, -0.6888696672911104 
4.1900000000035735, -0.669878532426689 
4.20000000000355, -0.6514608033243269 
4.210000000003527, -0.6357673770082874 
4.220000000003504, -0.623729043481412 
4.23000000000348, -0.6152081412850892 
4.240000000003457, -0.6095416193906257 
4.250000000003434, -0.6059674053434163 
4.26000000000341, -0.6038268418133208 
4.270000000003387, -0.6026194716006972 
4.280000000003364, -0.6019918555389543 
4.2900000000033405, -0.6017060631365311 
4.300000000003317, -0.6016072161656834 
4.310000000003294, -0.6015966197602343 
4.320000000003271, -0.6016118100428711 
4.330000000003247, -0.6016130853271514 
4.340000000003224, -0.6015756928510557 
4.350000000003201, -0.6014867351556901 
4.360000000003177, -0.6013453183557961 
4.370000000003154, -0.6011632963137963 
4.380000000003131, -0.6009631462155467 
4.390000000003107, -0.6007708346544226 
4.400000000003084, -0.6006052641712547 
4.410000000003061, -0.6004692975782817 
4.4200000000030375, -0.6003474015217384 
4.430000000003014, -0.6002114892174022 
4.440000000002991, -0.6000318465233445 
4.450000000002968, -0.5997872476792792 
4.460000000002944, -0.5994698428050304 
4.470000000002921, -0.5990848532640497 
4.480000000002898, -0.598648494862231 
4.490000000002874, -0.5981878526165751 
4.500000000002851, -0.5977451075294152 
4.510000000002828, -0.5973875680640386 
4.520000000002804, -0.5972249484377804 
4.530000000002781, -0.5974357184501181 
4.540000000002758, -0.5983041045420704 
4.5500000000027345, -0.6002666394905437 
4.560000000002711, -0.6039580576417269 
4.570000000002688, -0.6102228962062034 
4.580000000002665, -0.6200127438971907 
4.590000000002641, -0.6340385498157549 
4.600000000002618, -0.6521153913182215 
4.610000000002595, -0.6725421677074364 
4.620000000002571, -0.6923745751186898 
4.630000000002548, -0.7088949192325101 
4.640000000002525, -0.7209663208708385 
4.6500000000025015, -0.7289958525177029 
4.660000000002478, -0.7340383354291378 
4.670000000002455, -0.7371001245925267 
4.6800000000024315, -0.7389066825473014 
4.690000000002408, -0.7399191658650597 
4.700000000002385, -0.7404109578371016 
4.710000000002362, -0.7405322089984355 
4.720000000002338, -0.740349547260969 
4.730000000002315, -0.7398642879408053 
4.740000000002292, -0.7390133063222075 
4.750000000002268, -0.7376548269583989 
4.760000000002245, -0.7355424084576845 
4.770000000002222, -0.7323006164509246 
4.7800000000021985, -0.7274424789530833 
4.790000000002175, -0.7205009787404367 
4.800000000002152, -0.7113149045918145 
4.810000000002129, -0.7003276382143261 
4.820000000002105, -0.6885818045246384 
4.830000000002082, -0.6773056350458927 
4.840000000002059, -0.6674297149465072 
4.850000000002035, -0.6593894660896363 
4.860000000002012, -0.6532104461016714 
4.870000000001989, -0.6486857364314493 
4.880000000001965, -0.645518719856685 
4.890000000001942, -0.6434054178640971 
4.900000000001919, -0.6420731008400123 
4.9100000000018955, -0.6412947273078989 
4.920000000001872, -0.6408912113867574 
