t, s[1].omega / s[0].omega 
0, -0.6099977246407755 
0.009999999999999995, -0.6097797285590505 
0.019999999999999934, -0.6095727351668628 
0.029999999999999874, -0.6093568192190528 
0.04000000000000012, -0.6091087204430335 
0.050000000000000405, -0.6088107254947464 
0.06000000000000069, -0.6084557315600836 
0.07000000000000098, -0.6080479824992696 
0.08000000000000126, -0.6076019526106567 
0.09000000000000155, -0.6071424297283318 
0.10000000000000184, -0.6067078574892959 
0.11000000000000212, -0.6063580195244469 
0.12000000000000241, -0.6061867694906049 
0.130000000000002, -0.6063403779076517 
0.1400000000000009, -0.6070414479830865 
0.1499999999999998, -0.608616150714979 
0.1599999999999987, -0.6115166923694911 
0.1699999999999976, -0.616317852841239 
0.1799999999999965, -0.623643117858117 
0.1899999999999954, -0.633953291316151 
0.1999999999999943, -0.6471657588391604 
0.2099999999999932, -0.6622680857418899 
0.2199999999999921, -0.6773743367762114 
0.229999999999991, -0.690509803794011 
0.2399999999999899, -0.7005640843530604 
0.2499999999999888, -0.7075321294355816 
0.2599999999999877, -0.7120474309358318 
0.2699999999999866, -0.7148496559889569 
0.2799999999999855, -0.7165275654700396 
0.2899999999999844, -0.7174781814014428 
0.2999999999999833, -0.717946100080884 
0.3099999999999822, -0.7180701348437631 
0.3199999999999811, -0.717915800573664 
0.32999999999998, -0.7174918494385571 
0.3399999999999789, -0.7167530984913422 
0.3499999999999778, -0.71559148605743 
0.35999999999997667, -0.7138182725632716 
0.36999999999997557, -0.7111473691569838 
0.37999999999997447, -0.7072077543022639 
0.38999999999997337, -0.7016350932185816 
0.39999999999997227, -0.6942748243498257 
0.40999999999997117, -0.6854109317121142 
0.41999999999997006, -0.6758001889594702 
0.42999999999996896, -0.6664008652812072 
0.43999999999996786, -0.6579998752039555 
0.44999999999996676, -0.6510180150555176 
0.45999999999996566, -0.6455395562119044 
0.46999999999996456, -0.6414395031559033 
0.47999999999996346, -0.6385002269525355 
0.48999999999996235, -0.6364842657961464 
0.49999999999996125, -0.6351708236762769 
0.5099999999999602, -0.6343708605192269 
0.519999999999959, -0.6339311832771588 
0.529999999999958, -0.6337330066306393 
0.5399999999999568, -0.6336877019098527 
0.5499999999999557, -0.6337313621634431 
0.5599999999999546, -0.6338194330697811 
0.5699999999999535, -0.6339223973456007 
0.5799999999999524, -0.6340230640703507 
0.5899999999999513, -0.6341152427587036 
0.5999999999999502, -0.6342025321234332 
0.6099999999999491, -0.6342952403883925 
0.619999999999948, -0.6344041402925702 
0.6299999999999469, -0.6345321809879799 
0.6399999999999458, -0.6346679556289299 
0.6499999999999447, -0.6347852467458848 
0.6599999999999436, -0.6348500948634687 
0.6699999999999425, -0.6348319705602503 
0.6799999999999414, -0.6347127588254331 
0.6899999999999403, -0.6344894425930636 
0.6999999999999392, -0.6341714907178003 
0.7099999999999381, -0.6337771129870488 
0.719999999999937, -0.6333321523882149 
0.7299999999999359, -0.6328736378655739 
0.7399999999999348, -0.6324590312905654 
0.7499999999999337, -0.6321822306771663 
0.7599999999999326, -0.6321976088933742 
0.7699999999999315, -0.6327525919137855 
0.7799999999999304, -0.6342257690841384 
0.7899999999999293, -0.6371581529639365 
0.7999999999999282, -0.6422451586914245 
0.8099999999999271, -0.6502246437208393 
0.819999999999926, -0.6615765730557251 
0.8299999999999249, -0.6760347254105292 
0.8399999999999238, -0.6922071639269406 
0.8499999999999227, -0.7078691537792718 
0.8599999999999216, -0.7210182019285353 
0.8699999999999205, -0.7307856620025655 
0.8799999999999194, -0.7374162389477907 
0.8899999999999183, -0.7416616590624405 
0.8999999999999172, -0.7442784065883757 
0.9099999999999161, -0.7458349898191561 
0.919999999999915, -0.7467050110187647 
0.9299999999999139, -0.747115456313977 
0.9399999999999128, -0.7471928032637825 
0.9499999999999117, -0.7469929145862059 
0.9599999999999106, -0.7465148878549523 
0.9699999999999095, -0.7457010486144278 
0.9799999999999084, -0.7444244763876793 
0.9899999999999073, -0.7424666465575711 
0.9999999999999062, -0.7394961665316364 
1.0099999999999052, -0.7350811465594633 
1.019999999999904, -0.7287951718720277 
1.029999999999903, -0.7204573640970557 
1.039999999999902, -0.710405898148474 
1.0499999999999008, -0.6995398369871798 
1.0599999999998997, -0.6889933841603624 
1.0699999999998986, -0.6796878858668804 
1.0799999999998975, -0.6720991664682925 
1.0899999999998964, -0.6662957003301695 
1.0999999999998953, -0.6620948096654048 
1.1099999999998942, -0.6592065359529065 
1.119999999999893, -0.6573247102840997 
1.129999999999892, -0.6561732246654828 
1.1399999999998909, -0.6555245145819221 
1.1499999999998898, -0.6552026504690123 
1.1599999999998887, -0.6550783434136556 
1.1699999999998876, -0.6550602605823147 
1.1799999999998865, -0.65508556127415 
1.1899999999998854, -0.6551116330723522 
1.1999999999998843, -0.6551102612655282 
1.2099999999998832, -0.6550647180840619 
1.219999999999882, -0.65496925462536 
1.229999999999881, -0.6548291611856382 
1.2399999999998799, -0.6546586974429951 
1.2499999999998788, -0.6544751899847561 
1.2599999999998777, -0.6542906671654571 
1.2699999999998766, -0.6541052477317857 
1.2799999999998755, -0.6539063238116554 
1.2899999999998744, -0.6536741828062828 
1.2999999999998733, -0.6533907014213896 
1.3099999999998722, -0.6530463436395746 
1.319999999999871, -0.6526429602276835 
1.32999999999987, -0.6521934868204452 
1.3399999999998689, -0.6517214830823128 
1.3499999999998678, -0.6512629773569735 
1.3599999999998666, -0.650871737170256 
1.3699999999998655, -0.6506280235960415 
1.3799999999998644, -0.6506501712895157 
1.3899999999998633, -0.6511075571894764 
1.3999999999998622, -0.6522323120579199 
1.4099999999998611, -0.6543250837531461 
1.41999999999986, -0.657746426850345 
1.429999999999859, -0.6628787957042628 
1.4399999999998578, -0.6700359070536566 
1.4499999999998567, -0.6792984478397331 
1.4599999999998556, -0.6902999332295862 
1.4699999999998545, -0.7020991791255574 
1.4799999999998534, -0.7133607558196867 
1.4899999999998523, -0.7228781857582176 
1.4999999999998512, -0.7300665544751784 
1.5099999999998501, -0.735019909019489 
1.519999999999849, -0.7382057548752101 
1.529999999999848, -0.7401442406584631 
1.5399999999998468, -0.7412494217123975 
1.5499999999998457, -0.7418008709340048 
1.5599999999998446, -0.7419672384522207 
1.5699999999998435, -0.7418356111407195 
1.5799999999998424, -0.7414307174596695 
1.5899999999998413, -0.7407207827920191 
1.5999999999998402, -0.7396094140996167 
1.6099999999998391, -0.7379121775657463 
1.619999999999838, -0.7353175265845104 
1.629999999999837, -0.7313421727854427 
1.6399999999998358, -0.7253246747125389 
1.6499999999998347, -0.7165615047106407 
1.6599999999998336, -0.7047004889784431 
1.6699999999998325, -0.6902750301353161 
1.6799999999998314, -0.6748504801671819 
1.6899999999998303, -0.6603925238736006 
1.6999999999998292, -0.6483496233756315 
1.709999999999828, -0.6392450175131035 
1.719999999999827, -0.6328732890765546 
1.729999999999826, -0.6286898033907816 
1.7399999999998248, -0.6260983622893709 
1.7499999999998237, -0.624588011642904 
1.7599999999998226, -0.6237707911266209 
1.7699999999998215, -0.6233731382619385 
1.7799999999998204, -0.6232117185204681 
1.7899999999998193, -0.6231678821958441 
1.7999999999998182, -0.6231661748393035 
1.809999999999817, -0.6231583616766606 
1.819999999999816, -0.6231128999876459 
1.8299999999998149, -0.6230093573270239 
1.8399999999998138, -0.6228370242090588 
1.8499999999998127, -0.6225962200127815 
1.8599999999998116, -0.6222995012430548 
1.8699999999998105, -0.6219694026303647 
1.8799999999998094, -0.6216312261418646 
1.8899999999998083, -0.621303337764953 
1.8999999999998072, -0.6209901175858499 
1.909999999999806, -0.6206815193439901 
1.919999999999805, -0.6203591677881192 
1.9299999999998039, -0.6200052154455855 
1.9399999999998028, -0.6196093809289522 
1.9499999999998017, -0.6191719939592273 
1.9599999999998006, -0.6187041601141989 
1.9699999999997995, -0.6182277565040201 
1.9799999999997984, -0.6177775567795798 
1.9899999999997973, -0.6174066802655072 
1.9999999999997962, -0.6171957588492037 
2.0099999999998173, -0.6172657600941622 
2.0199999999998384, -0.617793858820686 
2.0299999999998595, -0.6190305335442696 
2.0399999999998806, -0.6213132702876377 
2.0499999999999017, -0.625066186504648 
2.059999999999923, -0.6307633565555097 
2.069999999999944, -0.6388182661918521 
2.079999999999965, -0.6493622111729253 
2.089999999999986, -0.6619448303931816 
2.100000000000007, -0.6753688007945211 
2.1100000000000283, -0.687980417093109 
2.1200000000000494, -0.6983968194823722 
2.1300000000000705, -0.7060762917611171 
2.1400000000000916, -0.711265409514046 
2.1500000000001127, -0.7145647837916377 
2.160000000000134, -0.7165685898329506 
2.170000000000155, -0.7177222807397865 
2.180000000000176, -0.7183166964519574 
2.190000000000197, -0.7185245107198035 
2.2000000000002182, -0.7184349523489276 
2.2100000000002393, -0.7180749742110039 
2.2200000000002604, -0.7174161392448004 
2.2300000000002815, -0.7163681093634291 
2.2400000000003026, -0.7147593954676215 
2.2500000000003237, -0.7123092868372788 
2.260000000000345, -0.708608774383861 
2.270000000000366, -0.7031590209278977 
2.280000000000387, -0.6955431644474638 
2.290000000000408, -0.6857448446717147 
2.3000000000004293, -0.6744110670223635 
2.3100000000004504, -0.6627318823378425 
2.3200000000004715, -0.6519369491459486 
2.3300000000004926, -0.6428339105190858 
2.3400000000005137, -0.6356957428473466 
2.3500000000005348, -0.6304107337176922 
2.360000000000556, -0.6266821427240707 
2.370000000000577, -0.6241681412140718 
2.380000000000598, -0.6225532557196117 
2.390000000000619, -0.6215754598658625 
2.4000000000006403, -0.6210306029342036 
2.4100000000006614, -0.6207668110123777 
2.4200000000006825, -0.6206751753585636 
2.4300000000007036, -0.6206798513369227 
2.4400000000007247, -0.6207292427872655 
2.450000000000746, -0.6207892312601027 
2.460000000000767, -0.6208389095370838 
2.470000000000788, -0.6208686656367534 
2.480000000000809, -0.6208795307490079 
2.49000000000083, -0.620881709667702 
2.5000000000008513, -0.6208901490520938 
2.5100000000008724, -0.6209168133290786 
2.5200000000008935, -0.6209623521795699 
2.5300000000009146, -0.6210116956984951 
2.5400000000009357, -0.6210368628344669 
2.550000000000957, -0.6210061651417887 
2.560000000000978, -0.620894782099229 
2.570000000000999, -0.6206911154667849 
2.58000000000102, -0.620397135394256 
2.5900000000010412, -0.6200253358886472 
2.6000000000010624, -0.6195963275877422 
2.6100000000010835, -0.619139922827151 
2.6200000000011046, -0.6187011683559553 
2.6300000000011257, -0.6183523609186399 
2.6400000000011468, -0.618212344963459 
2.650000000001168, -0.6184744092898977 
2.660000000001189, -0.6194425299068385 
2.67000000000121, -0.6215701414773982 
2.680000000001231, -0.6254815622786636 
2.6900000000012523, -0.6319280683806202 
2.7000000000012734, -0.6415940104395764 
2.7100000000012945, -0.654679138651188 
2.7200000000013156, -0.6703759538218008 
2.7300000000013367, -0.6867427143079795 
2.740000000001358, -0.7014615734696845 
2.750000000001379, -0.7130172056953767 
2.7600000000014, -0.7211736801749908 
2.770000000001421, -0.726533580028715 
2.780000000001442, -0.729904717957829 
2.7900000000014633, -0.7319599626227794 
2.8000000000014844, -0.7331643605935203 
2.8100000000015055, -0.7338107146349284 
2.8200000000015266, -0.7340712257489016 
2.8300000000015477, -0.7340359716367388 
2.840000000001569, -0.733734682429 
2.85000000000159, -0.7331442105304101 
2.860000000001611, -0.7321839551638679 
2.870000000001632, -0.7307014593861573 
2.8800000000016532, -0.7284546011031497 
2.8900000000016743, -0.7251099872919252 
2.9000000000016954, -0.7202986595914329 
2.9100000000017165, -0.713772870493134 
2.9200000000017377, -0.7056320587439732 
2.9300000000017588, -0.696444916250521 
2.94000000000178, -0.6870948224488351 
2.950000000001801, -0.6784336651113295 
2.960000000001822, -0.6710168046680941 
2.970000000001843, -0.6650545186546174 
2.9800000000018643, -0.6605050591659948 
2.9900000000018854, -0.6571918875896924 
3.0000000000019065, -0.6548890141315244 
3.0100000000019276, -0.6533697354792264 
3.0200000000019487, -0.6524306161733388 
3.03000000000197, -0.6519014143540394 
3.040000000001991, -0.6516471561207065 
3.050000000002012, -0.6515656242106631 
3.060000000002033, -0.651582336360682 
3.070000000002054, -0.651644708900061 
3.0800000000020753, -0.6517168401876551 
3.0900000000020964, -0.651775914270267 
3.1000000000021175, -0.6518104774909246 
3.1100000000021386, -0.6518197260018992 
3.1200000000021597, -0.6518118437947518 
3.130000000002181, -0.6517994182776436 
3.140000000002202, -0.6517919042827656 
3.150000000002223, -0.651788083196033 
3.160000000002244, -0.6517729152131196 
3.1700000000022652, -0.6517213356062336 
3.1800000000022863, -0.6516072741909003 
3.1900000000023074, -0.6514127625206851 
3.2000000000023285, -0.6511325926252544 
3.2100000000023496, -0.6507740209389715 
3.2200000000023707, -0.6503545276393401 
3.230000000002392, -0.6499011856753362 
3.240000000002413, -0.6494538337456495 
3.250000000002434, -0.649072944669838 
3.260000000002455, -0.6488524550680033 
3.2700000000024763, -0.6489373601978293 
3.2800000000024974, -0.649544796674864 
3.2900000000025185, -0.6509848542358709 
3.3000000000025396, -0.6536723948087302 
3.3100000000025607, -0.6581120170166677 
3.3200000000025818, -0.6648242155720038 
3.330000000002603, -0.674170209822676 
3.340000000002624, -0.6860618430550152 
3.350000000002645, -0.6996721122951033 
3.360000000002666, -0.7134523298775612 
3.3700000000026873, -0.7256900413346552 
3.3800000000027084, -0.7352853895307916 
3.3900000000027295, -0.7420704824934996 
3.4000000000027506, -0.7465177082250103 
3.4100000000027717, -0.7492803687910781 
3.420000000002793, -0.7509178308732353 
3.430000000002814, -0.7518220933475109 
3.440000000002835, -0.7522387526693253 
3.450000000002856, -0.7523070254497314 
3.460000000002877, -0.7520904544567741 
3.4700000000028983, -0.7515925751719218 
3.4800000000029194, -0.7507578301417966 
3.4900000000029405, -0.7494577989760022 
3.5000000000029616, -0.7474622797796915 
3.5100000000029827, -0.7443995064191976 
3.520000000003004, -0.739729689182151 
3.530000000003025, -0.7328007217743908 
3.540000000003046, -0.7230946512593454 
3.550000000003067, -0.7106776772453093 
3.5600000000030882, -0.6965421461074063 
3.5700000000031094, -0.6823673958674954 
3.5800000000031305, -0.6697603231890005 
3.5900000000031516, -0.6596397622454482 
3.6000000000031727, -0.6521639329254265 
3.6100000000031938, -0.6470061307325314 
3.620000000003215, -0.6436552681555928 
3.630000000003236, -0.6416037449124918 
3.640000000003257, -0.6404290783130637 
3.650000000003278, -0.6398126383272325 
3.6600000000032993, -0.639529433346105 
3.6700000000033204, -0.6394279916195386 
3.6800000000033415, -0.6394095417686536 
3.6900000000033626, -0.6394104244459838 
3.7000000000033837, -0.6393890825391719 
3.710000000003405, -0.639317849370192 
3.720000000003426, -0.6391792725439036 
3.730000000003447, -0.6389661359850801 
3.740000000003468, -0.6386831730384295 
3.750000000003489, -0.6383471822804275 
3.7600000000035103, -0.6379826087734739 
3.7700000000035314, -0.6376127779470784 
3.7800000000035525, -0.6372508790944199 
3.7900000000035736, -0.636895791256532 
3.8000000000035947, -0.6365349094896431 
3.810000000003616, -0.6361518380584623 
3.820000000003637, -0.6357344502853828 
3.830000000003658, -0.6352798462081928 
3.840000000003679, -0.6347958622818554 
3.8500000000037002, -0.634301224580049 
3.8600000000037213, -0.6338267819585355 
3.8700000000037424, -0.6334192646400245 
3.8800000000037635, -0.6331479246168634 
3.8900000000037847, -0.6331136789955785 
3.9000000000038058, -0.6334598110225267 
3.910000000003827, -0.6343825570767603 
3.920000000003848, -0.6361386136326356 
3.930000000003869, -0.6390439327079869 
3.94000000000389, -0.6434527896791197 
3.9500000000039113, -0.6496975056802823 
3.9600000000039324, -0.6579634558244171 
3.9700000000039535, -0.6680946445804266 
3.9800000000039746, -0.679409418929267 
3.9900000000039957, -0.6907271569943465 
4.000000000004016, -0.7007612317788654 
4.010000000003993, -0.7086710751660419 
4.02000000000397, -0.7143102083142777 
4.030000000003946, -0.7180322651092556 
4.040000000003923, -0.7203494584761592 
4.0500000000039, -0.7217121871314129 
4.0600000000038765, -0.7224413902379981 
4.070000000003853, -0.7227391040821047 
4.08000000000383, -0.7227176507211122 
4.090000000003807, -0.722422634634782 
4.100000000003783, -0.7218434640829106 
4.11000000000376, -0.720910504138023 
4.120000000003737, -0.7194780934854517 
4.130000000003713, -0.7172930229100374 
4.14000000000369, -0.7139551354633711 
4.150000000003667, -0.7089016071098808 
4.1600000000036434, -0.7014955533027529 
4.17000000000362, -0.6913238409262633 
4.180000000003597, -0.6786569849024181 
4.1900000000035735, -0.6646780267975878 
4.20000000000355, -0.6510760692586105 
4.210000000003527, -0.6392687302804145 
4.220000000003504, -0.6299355509957494 
4.23000000000348, -0.6230796374182767 
4.240000000003457, -0.6183292914819047 
4.250000000003434, -0.615200130083096 
4.26000000000341, -0.6132387797466973 
4.270000000003387, -0.6120767861254203 
4.280000000003364, -0.6114375298479938 
4.2900000000033405, -0.6111239417242904 
4.300000000003317, -0.6110008631812532 
4.310000000003294, -0.6109780595138349 
4.320000000003271, -0.6109962158374166 
4.330000000003247, -0.6110166597425088 
4.340000000003224, -0.6110148946708797 
4.350000000003201, -0.6109776205984007 
4.360000000003177, -0.6109022666830616 
4.370000000003154, -0.6107970240285978 
4.380000000003131, -0.6106786602390725 
4.390000000003107, -0.6105663759603958 
4.400000000003084, -0.6104729261808496 
4.410000000003061, -0.6103971545935499 
4.4200000000030375, -0.6103223479200137 
4.430000000003014, -0.6102218305072096 
4.440000000002991, -0.6100688665504611 
4.450000000002968, -0.6098454404513101 
4.460000000002944, -0.6095460733779421 
4.470000000002921, -0.6091769971384491 
4.480000000002898, -0.608753927213736 
4.490000000002874, -0.6083017528307053 
4.500000000002851, -0.6078581702111495 
4.510000000002828, -0.607482393040143 
4.520000000002804, -0.6072699863820831 
4.530000000002781, -0.6073750189739807 
4.540000000002758, -0.6080401441013743 
4.5500000000027345, -0.6096323172015434 
4.560000000002711, -0.6126735371089566 
4.570000000002688, -0.6178369888058095 
4.580000000002665, -0.6258460526776919 
4.590000000002641, -0.6371880834863091 
4.600000000002618, -0.6516284233549944 
4.610000000002595, -0.667806359423986 
4.620000000002571, -0.6834969126179189 
4.630000000002548, -0.6966738174088427 
4.640000000002525, -0.7064559098516723 
4.6500000000025015, -0.7130946109094201 
4.660000000002478, -0.7173513512958964 
4.670000000002455, -0.7199859758932543 
4.6800000000024315, -0.7215657219333087 
4.690000000002408, -0.7224620598466445 
4.700000000002385, -0.7229009143198217 
4.710000000002362, -0.7230093004199156 
4.720000000002338, -0.7228454397326862 
4.730000000002315, -0.7224132564733304 
4.740000000002292, -0.7216640394595238 
4.750000000002268, -0.7204875309467588 
4.760000000002245, -0.7186963735707298 
4.770000000002222, -0.7160159322796723 
4.7800000000021985, -0.7121087625574309 
4.790000000002175, -0.7066774186818133 
4.800000000002152, -0.6996558229114164 
4.810000000002129, -0.6913841433507091 
4.820000000002105, -0.6825812709230129 
4.830000000002082, -0.6740777977994055 
4.840000000002059, -0.6665173563187409 
4.850000000002035, -0.6602288529818414 
4.860000000002012, -0.6552697086451523 
4.870000000001989, -0.6515316538246717 
4.880000000001965, -0.6488316533335727 
4.890000000001942, -0.646968075107182 
4.900000000001919, -0.6457497307924009 
4.9100000000018955, -0.6450091491184716 
4.920000000001872, -0.644607513292313 
