t, s[1].omega / s[0].omega 
0, -0.7499976727635153 
0.009999999999999995, -0.7497487765461452 
0.019999999999999934, -0.749462071552113 
0.029999999999999874, -0.7491239274892727 
0.04000000000000012, -0.7487213837525719 
0.050000000000000405, -0.7482503365590873 
0.06000000000000069, -0.7477199599069484 
0.07000000000000098, -0.747153839705901 
0.08000000000000126, -0.7465904762425576 
0.09000000000000155, -0.7460849803879367 
0.10000000000000184, -0.7457115390967887 
0.11000000000000212, -0.7455644203838172 
0.12000000000000241, -0.7457549182756442 
0.130000000000002, -0.7464030242606448 
0.1400000000000009, -0.7476251983135391 
0.1499999999999998, -0.7495216619404534 
0.1599999999999987, -0.7521661619574124 
0.1699999999999976, -0.7555977421464354 
0.1799999999999965, -0.7598096246194669 
0.1899999999999954, -0.7647283705615566 
0.1999999999999943, -0.7701816674185418 
0.2099999999999932, -0.7758696442066181 
0.2199999999999921, -0.7813771743788428 
0.229999999999991, -0.7862629825801584 
0.2399999999999899, -0.790202017607431 
0.2499999999999888, -0.7930850603271582 
0.2599999999999877, -0.7950029228088928 
0.2699999999999866, -0.7961488365825347 
0.2799999999999855, -0.7967228465886775 
0.2899999999999844, -0.7968814820537091 
0.2999999999999833, -0.7967262905936072 
0.3099999999999822, -0.7963107761539385 
0.3199999999999811, -0.7956529995013775 
0.32999999999998, -0.7947519339912876 
0.3399999999999789, -0.7936148671201309 
0.3499999999999778, -0.7923124891518247 
0.35999999999997667, -0.791087265596702 
0.36999999999997557, -0.7905369622722122 
0.37999999999997447, -0.7918426560271637 
0.38999999999997337, -0.796856659852063 
0.39999999999997227, -0.8076460994547094 
0.40999999999997117, -0.8251761311378635 
0.41999999999997006, -0.8478105341362226 
0.42999999999996896, -0.8714682330222239 
0.43999999999996786, -0.8919794328466619 
0.44999999999996676, -0.907282580007424 
0.45999999999996566, -0.9175266705577906 
0.46999999999996456, -0.9239094486135665 
0.47999999999996346, -0.927702530807878 
0.48999999999996235, -0.9298659147699759 
0.49999999999996125, -0.931020436654921 
0.5099999999999602, -0.9315320324411521 
0.519999999999959, -0.9315956683384604 
0.529999999999958, -0.9312895371174866 
0.5399999999999568, -0.9305986673399967 
0.5499999999999557, -0.9294110764117306 
0.5599999999999546, -0.9274864823971726 
0.5699999999999535, -0.9243961185041831 
0.5799999999999524, -0.919442536931407 
0.5899999999999513, -0.9116103407884829 
0.5999999999999502, -0.8996942949379516 
0.6099999999999491, -0.8828504780240957 
0.619999999999948, -0.8616421401502372 
0.6299999999999469, -0.8388568199127162 
0.6399999999999458, -0.8186952811956247 
0.6499999999999447, -0.8043464828242964 
0.6599999999999436, -0.7963339162566817 
0.6699999999999425, -0.7931107733574276 
0.6799999999999414, -0.7926273882381654 
0.6899999999999403, -0.7933206443513052 
0.6999999999999392, -0.7943020752852249 
0.7099999999999381, -0.795173088402301 
0.719999999999937, -0.7958003798447106 
0.7299999999999359, -0.7961633576699696 
0.7399999999999348, -0.7962722526759352 
0.7499999999999337, -0.7961286895782862 
0.7599999999999326, -0.795705517501644 
0.7699999999999315, -0.7949328555910236 
0.7799999999999304, -0.7936863662350702 
0.7899999999999293, -0.791783511943638 
0.7999999999999282, -0.7890052253486894 
0.8099999999999271, -0.7851649105142253 
0.819999999999926, -0.7802203531752602 
0.8299999999999249, -0.7743632616069148 
0.8399999999999238, -0.7679976464859917 
0.8499999999999227, -0.7616043857131471 
0.8599999999999216, -0.7555944239164749 
0.8699999999999205, -0.7502388869882032 
0.8799999999999194, -0.7456757209107828 
0.8899999999999183, -0.7419468492805337 
0.8999999999999172, -0.739031648018728 
0.9099999999999161, -0.736867374021873 
0.919999999999915, -0.7353609195636566 
0.9299999999999139, -0.7343986563984943 
0.9399999999999128, -0.7338578889925085 
0.9499999999999117, -0.7336192054209129 
0.9599999999999106, -0.7335767335960571 
0.9699999999999095, -0.733643862953021 
0.9799999999999084, -0.7337542279709434 
0.9899999999999073, -0.7338597791252142 
0.9999999999999062, -0.7339284069674111 
1.0099999999999052, -0.7339426652651189 
1.019999999999904, -0.7338991377958901 
1.029999999999903, -0.7338061256548059 
1.039999999999902, -0.7336775125497124 
1.0499999999999008, -0.7335237085095064 
1.0599999999998997, -0.7333441343282139 
1.0699999999998986, -0.7331260436673407 
1.0799999999998975, -0.7328506786458895 
1.0899999999998964, -0.7325029099290733 
1.0999999999998953, -0.7320788920728183 
1.1099999999998942, -0.7315891577086882 
1.119999999999893, -0.7310587707990676 
1.129999999999892, -0.7305277963275505 
1.1399999999998909, -0.730053984975629 
1.1499999999998898, -0.729717180179309 
1.1599999999998887, -0.7296230910756878 
1.1699999999998876, -0.7299033676095639 
1.1799999999998865, -0.7307097208969642 
1.1899999999998854, -0.7322020476097149 
1.1999999999998843, -0.7345328230916139 
1.2099999999998832, -0.7378302017250138 
1.219999999999882, -0.7421790342860464 
1.229999999999881, -0.7475939752885055 
1.2399999999998799, -0.7539772722368776 
1.2499999999998788, -0.7610644697687818 
1.2599999999998777, -0.7683908385280265 
1.2699999999998766, -0.7753424058709056 
1.2799999999998755, -0.781327328534404 
1.2899999999998744, -0.7859859782131282 
1.2999999999998733, -0.7892808146779309 
1.3099999999998722, -0.7914123686314694 
1.319999999999871, -0.792664360769151 
1.32999999999987, -0.7932914010984086 
1.3399999999998689, -0.7934761042577239 
1.3499999999998678, -0.7933285217421265 
1.3599999999998666, -0.7928991659710278 
1.3699999999998655, -0.7921918525285332 
1.3799999999998644, -0.7911743435676197 
1.3899999999998633, -0.7897924488517684 
1.3999999999998622, -0.7880009835283602 
1.4099999999998611, -0.7858342554789103 
1.41999999999986, -0.7835404941194587 
1.429999999999859, -0.7817661321455668 
1.4399999999998578, -0.7816476079873956 
1.4499999999998567, -0.7845029307640156 
1.4599999999998556, -0.7909875170770261 
1.4699999999998545, -0.8003797536396252 
1.4799999999998534, -0.8109439759012076 
1.4899999999998523, -0.8209716624757707 
1.4999999999998512, -0.8293912624632199 
1.5099999999998501, -0.8358167551765362 
1.519999999999849, -0.8403633890956316 
1.529999999999848, -0.8433945037024122 
1.5399999999998468, -0.8453126287538046 
1.5499999999998457, -0.8464507501351474 
1.5599999999998446, -0.8470431466213414 
1.5699999999998435, -0.8472328742358599 
1.5799999999998424, -0.8470860879676909 
1.5899999999998413, -0.8465988830333959 
1.5999999999998402, -0.8456901185944992 
1.6099999999998391, -0.8441759253280171 
1.619999999999838, -0.8417240281317803 
1.629999999999837, -0.8377986942909453 
1.6399999999998358, -0.831646187284588 
1.6499999999998347, -0.8224370957970424 
1.6599999999998336, -0.8096867442153872 
1.6699999999998325, -0.7938266562932246 
1.6799999999998314, -0.7763984501635102 
1.6899999999998303, -0.7594872979621263 
1.6999999999998292, -0.7448216641473617 
1.709999999999828, -0.7332685760425377 
1.719999999999827, -0.7248893665463532 
1.729999999999826, -0.7192536055706213 
1.7399999999998248, -0.7157384069783129 
1.7499999999998237, -0.7137223030625661 
1.7599999999998226, -0.7126822076532797 
1.7699999999998215, -0.7122242983162178 
1.7799999999998204, -0.7120762871077405 
1.7899999999998193, -0.7120617481459492 
1.7999999999998182, -0.71207051242547 
1.809999999999817, -0.7120330052320571 
1.819999999999816, -0.7119018254270157 
1.8299999999998149, -0.7116414423647042 
1.8399999999998138, -0.7112259197241626 
1.8499999999998127, -0.7106433459259923 
1.8599999999998116, -0.7099028096275842 
1.8699999999998105, -0.7090368325888863 
1.8799999999998094, -0.7080938071104167 
1.8899999999998083, -0.707122676417321 
1.8999999999998072, -0.7061589433153265 
1.909999999999806, -0.7052197490386353 
1.919999999999805, -0.7043085897337241 
1.9299999999998039, -0.7034247402429166 
1.9399999999998028, -0.7025719811341239 
1.9499999999998017, -0.7017640099674008 
1.9599999999998006, -0.7010267347911806 
1.9699999999997995, -0.7003986340592786 
1.9799999999997984, -0.6999298131374171 
1.9899999999997973, -0.6996796214935791 
1.9999999999997962, -0.6997126425128046 
2.0099999999998173, -0.7000935556686391 
2.0199999999998384, -0.7008821708290587 
2.0299999999998595, -0.7021300735694121 
2.0399999999998806, -0.7038793940587691 
2.0499999999999017, -0.7061623974351199 
2.059999999999923, -0.7089984606736288 
2.069999999999944, -0.7123833963574672 
2.079999999999965, -0.7162667149390296 
2.089999999999986, -0.7205187539430298 
2.100000000000007, -0.7249048696217363 
2.1100000000000283, -0.7291006673952448 
2.1200000000000494, -0.7327721188526437 
2.1300000000000705, -0.735688370711899 
2.1400000000000916, -0.7377869610972416 
2.1500000000001127, -0.7391485264898289 
2.160000000000134, -0.7399195432391067 
2.170000000000155, -0.740244418123728 
2.180000000000176, -0.7402318236901541 
2.190000000000197, -0.7399473296518466 
2.2000000000002182, -0.7394176513716195 
2.2100000000002393, -0.7386381126430084 
2.2200000000002604, -0.7375823693460294 
2.2300000000002815, -0.7362197007018413 
2.2400000000003026, -0.7345513162001783 
2.2500000000003237, -0.7326812754987456 
2.260000000000345, -0.730927141024461 
2.270000000000366, -0.7299197785564074 
2.280000000000387, -0.730522161840132 
2.290000000000408, -0.7333552468127464 
2.3000000000004293, -0.7381481801149705 
2.3100000000004504, -0.7438085369702991 
2.3200000000004715, -0.749381746530325 
2.3300000000004926, -0.754528300982996 
2.3400000000005137, -0.7591230303962286 
2.3500000000005348, -0.7629929708733887 
2.360000000000556, -0.7660217375751481 
2.370000000000577, -0.7682323957593524 
2.380000000000598, -0.7697466255101648 
2.390000000000619, -0.7707124198396705 
2.4000000000006403, -0.771257272093794 
2.4100000000006614, -0.7714693048295796 
2.4200000000006825, -0.7713924698244895 
2.4300000000007036, -0.7710243491095609 
2.4400000000007247, -0.7703103228480535 
2.450000000000746, -0.7691324239433616 
2.460000000000767, -0.7672974896878222 
2.470000000000788, -0.7645410810361746 
2.480000000000809, -0.7605786732695778 
2.49000000000083, -0.7552301846437053 
2.5000000000008513, -0.7485801905759368 
2.5100000000008724, -0.7410461286748602 
2.5200000000008935, -0.7332571603924583 
2.5300000000009146, -0.725824746755251 
2.5400000000009357, -0.7191780460925823 
2.550000000000957, -0.713533020670414 
2.560000000000978, -0.7089430530242342 
2.570000000000999, -0.7053622201552026 
2.58000000000102, -0.7026904328861658 
2.5900000000010412, -0.7007995083549453 
2.6000000000010624, -0.6995486419403265 
2.6100000000010835, -0.6987960271355772 
2.6200000000011046, -0.6984089641446765 
2.6300000000011257, -0.6982717394278735 
2.6400000000011468, -0.6982899340101252 
2.650000000001168, -0.6983909238387758 
2.660000000001189, -0.6985217773040409 
2.67000000000121, -0.6986464691625346 
2.680000000001231, -0.6987439307234828 
2.6900000000012523, -0.6988070448011927 
2.7000000000012734, -0.6988409050137204 
2.7100000000012945, -0.69885794426796 
2.7200000000013156, -0.6988693381544496 
2.7300000000013367, -0.6988757064561166 
2.740000000001358, -0.6988624016656861 
2.750000000001379, -0.6988029591293613 
2.7600000000014, -0.6986692494739517 
2.770000000001421, -0.6984424051481506 
2.780000000001442, -0.6981188742570874 
2.7900000000014633, -0.6977107547743817 
2.8000000000014844, -0.6972440069453931 
2.8100000000015055, -0.6967588066479256 
2.8200000000015266, -0.6963143119435716 
2.8300000000015477, -0.6959978904304563 
2.840000000001569, -0.695937212114473 
2.85000000000159, -0.6963122433888596 
2.860000000001611, -0.6973630149413429 
2.870000000001632, -0.6993884938228118 
2.8800000000016532, -0.7027319065743657 
2.8900000000016743, -0.7077468585686765 
2.9000000000016954, -0.7147343787128616 
2.9100000000017165, -0.723835673468326 
2.9200000000017377, -0.7348741488232732 
2.9300000000017588, -0.7471939258720416 
2.94000000000178, -0.7596440179275862 
2.950000000001801, -0.7708795644354905 
2.960000000001822, -0.779898590929646 
2.970000000001843, -0.7864005717113012 
2.9800000000018643, -0.7906905619409021 
2.9900000000018854, -0.7933259678624038 
3.0000000000019065, -0.7948331175750236 
3.0100000000019276, -0.795597014351906 
3.0200000000019487, -0.795860091361057 
3.03000000000197, -0.7957542562871158 
3.040000000001991, -0.7953293024770491 
3.050000000002012, -0.7945671813208544 
3.060000000002033, -0.7933810246137512 
3.070000000002054, -0.7915992294070513 
3.0800000000020753, -0.7889347312595757 
3.0900000000020964, -0.7849414627654331 
3.1000000000021175, -0.7789678583005466 
3.1100000000021386, -0.7701415004301202 
3.1200000000021597, -0.7574907013952019 
3.130000000002181, -0.7404424917780383 
3.140000000002202, -0.719827112800145 
3.150000000002223, -0.6985265757224883 
3.160000000002244, -0.6802485663866125 
3.1700000000022652, -0.6672078692651253 
3.1800000000022863, -0.6593375935456105 
3.1900000000023074, -0.6552846102207066 
3.2000000000023285, -0.6535629910815022 
3.2100000000023496, -0.6530696206013158 
3.2200000000023707, -0.6531287474788073 
3.230000000002392, -0.6533737846437371 
3.240000000002413, -0.6536230385257848 
3.250000000002434, -0.6537920044318617 
3.260000000002455, -0.6538404355526576 
3.2700000000024763, -0.6537428746823574 
3.2800000000024974, -0.6534733748656393 
3.2900000000025185, -0.6529995375961573 
3.3000000000025396, -0.6522849147896503 
3.3100000000025607, -0.6513005711839245 
3.3200000000025818, -0.6500438079714287 
3.330000000002603, -0.6485544615758992 
3.340000000002624, -0.6469144780300186 
3.350000000002645, -0.6452256160133133 
3.360000000002666, -0.6435783176067166 
3.3700000000026873, -0.642031255532254 
3.3800000000027084, -0.6406095396871216 
3.3900000000027295, -0.6393158041354201 
3.4000000000027506, -0.6381444082336507 
3.4100000000027717, -0.6370924306566877 
3.420000000002793, -0.6361657578692503 
3.430000000002814, -0.6353812785094511 
3.440000000002835, -0.6347667892286869 
3.450000000002856, -0.6343597154596111 
3.460000000002877, -0.6342051943719675 
3.4700000000028983, -0.6343539115938013 
3.4800000000029194, -0.6348602186286907 
3.4900000000029405, -0.6357811281318919 
3.5000000000029616, -0.6371764562437539 
3.5100000000029827, -0.6391094515559972 
3.520000000003004, -0.6416456193769459 
3.530000000003025, -0.6448451554406367 
3.540000000003046, -0.6487421443807229 
3.550000000003067, -0.6533043559745854 
3.5600000000030882, -0.6583779379021332 
3.5700000000031094, -0.6636477699773573 
3.5800000000031305, -0.6686704137112265 
3.5900000000031516, -0.6730081773353771 
3.6000000000031727, -0.6763920520940739 
3.6100000000031938, -0.678787475292139 
3.620000000003215, -0.6803303101164858 
3.630000000003236, -0.6812151849634853 
3.640000000003257, -0.6816160692796529 
3.650000000003278, -0.6816547823168957 
3.6600000000032993, -0.6813973968440797 
3.6700000000033204, -0.6808580206974645 
3.6800000000033415, -0.6799984582947555 
3.6900000000033626, -0.6787176123375028 
3.7000000000033837, -0.6768246611092055 
3.710000000003405, -0.6739862735204194 
3.720000000003426, -0.6696330573968613 
3.730000000003447, -0.6628185732372696 
3.740000000003468, -0.6521032066401307 
3.750000000003489, -0.6357894772156195 
3.7600000000035103, -0.6130793067883289 
3.7700000000035314, -0.5858373070024451 
3.7800000000035525, -0.5585937596772947 
3.7900000000035736, -0.535704078877131 
3.8000000000035947, -0.5189346788461846 
3.810000000003616, -0.5077446856590162 
3.820000000003637, -0.500708400265773 
3.830000000003658, -0.4964547579404357 
3.840000000003679, -0.49396358902406146 
3.8500000000037002, -0.4925543570675545 
3.8600000000037213, -0.491795899084697 
3.8700000000037424, -0.4914218781060168 
3.8800000000037635, -0.4912699084423499 
3.8900000000037847, -0.49124179692133685 
3.9000000000038058, -0.49127888075004067 
3.910000000003827, -0.49134754944655884 
3.920000000003848, -0.4914316541925266 
3.930000000003869, -0.49152948510932537 
3.94000000000389, -0.49165306204788467 
3.9500000000039113, -0.49182693286533696 
3.9600000000039324, -0.49208351041484527 
3.9700000000039535, -0.4924533210878047 
3.9800000000039746, -0.4929513366246347 
3.9900000000039957, -0.49356367313936567 
4.000000000004016, -0.49424139165281405 
4.010000000003993, -0.4949080166288399 
4.02000000000397, -0.4954810343836539 
4.030000000003946, -0.49589665347359774 
4.040000000003923, -0.4961230651483259 
4.0500000000039, -0.49615690603358076 
4.0600000000038765, -0.49600977539016117 
4.070000000003853, -0.49569429826386235 
4.08000000000383, -0.4952141549267569 
4.090000000003807, -0.4945573018515742 
4.100000000003783, -0.4936890490266359 
4.11000000000376, -0.4925398902051462 
4.120000000003737, -0.4909786764032651 
4.130000000003713, -0.48875063677140346 
4.14000000000369, -0.48533918435022294 
4.150000000003667, -0.4797034752660917 
4.1600000000036434, -0.46998586188997143 
4.17000000000362, -0.4538416739844644 
4.180000000003597, -0.4304617390057456 
4.1900000000035735, -0.4030319474397045 
4.20000000000355, -0.37729542545206596 
4.210000000003527, -0.3571280774653446 
4.220000000003504, -0.34303326369931464 
4.23000000000348, -0.3337355806944554 
4.240000000003457, -0.3277332396063132 
4.250000000003434, -0.3238716180097857 
4.26000000000341, -0.321383015109561 
4.270000000003387, -0.31978505378482963 
4.280000000003364, -0.3187813716270248 
4.2900000000033405, -0.3181927152465023 
4.300000000003317, -0.31791433521621004 
4.310000000003294, -0.31789130674189237 
4.320000000003271, -0.3181054953581294 
4.330000000003247, -0.3185703838939048 
4.340000000003224, -0.31933170742714606 
4.350000000003201, -0.3204726930069968 
4.360000000003177, -0.32212246750255424 
4.370000000003154, -0.32446399874996235 
4.380000000003131, -0.3277316231863189 
4.390000000003107, -0.3321752128525314 
4.400000000003084, -0.33795378298781864 
4.410000000003061, -0.3449420507468566 
4.4200000000030375, -0.35255307673606573 
4.430000000003014, -0.35983040138254135 
4.440000000002991, -0.3658981356465536 
4.450000000002968, -0.37038028405948453 
4.460000000002944, -0.3734007488286686 
4.470000000002921, -0.3753073556386118 
4.480000000002898, -0.3764424723230991 
4.490000000002874, -0.3770567470436461 
4.500000000002851, -0.3773073946908573 
4.510000000002828, -0.37728039255710344 
4.520000000002804, -0.37701102843080014 
4.530000000002781, -0.37649827610240433 
4.540000000002758, -0.3757165228396179 
4.5500000000027345, -0.37463095841696503 
4.560000000002711, -0.37322211711351877 
4.570000000002688, -0.37151717744811424 
4.580000000002665, -0.36961076012118876 
4.590000000002641, -0.36765209592270054 
4.600000000002618, -0.36579771665944183 
4.610000000002595, -0.36416105198889437 
4.620000000002571, -0.36279040742090995 
4.630000000002548, -0.3616776069849793 
4.640000000002525, -0.3607802726368498 
4.6500000000025015, -0.36004333887123263 
4.660000000002478, -0.35941437641003493 
4.670000000002455, -0.3588522264494029 
4.6800000000024315, -0.35833014917963735 
4.690000000002408, -0.3578356386809502 
4.700000000002385, -0.3573695070898176 
4.710000000002362, -0.3569465973389839 
4.720000000002338, -0.3566000584865604 
4.730000000002315, -0.35639112325198996 
4.740000000002292, -0.35642671696123013 
4.750000000002268, -0.35688647959966235 
4.760000000002245, -0.3580530493151107 
4.770000000002222, -0.3603061970002645 
4.7800000000021985, -0.36394010851230085 
4.790000000002175, -0.3684814815137554 
4.800000000002152, -0.37134194844758983 
4.810000000002129, -0.3674536187016065 
4.820000000002105, -0.35344267705563237 
4.830000000002082, -0.33293789367820337 
4.840000000002059, -0.3132315606708367 
4.850000000002035, -0.2984049586770835 
4.860000000002012, -0.2885879432439602 
4.870000000001989, -0.28243737965995624 
4.880000000001965, -0.27864970078876866 
4.890000000001942, -0.2763215145441226 
4.900000000001919, -0.27489334330454085 
