t, s[1].omega / s[0].omega 
0, -0.7099976886904401 
0.009999999999999995, -0.7097584199573095 
0.019999999999999934, -0.7094965735943891 
0.029999999999999874, -0.7091965093228778 
0.04000000000000012, -0.7088420189567333 
0.050000000000000405, -0.7084247213044408 
0.06000000000000069, -0.7079486224926004 
0.07000000000000098, -0.7074311005647506 
0.08000000000000126, -0.7069030929216928 
0.09000000000000155, -0.7064109412128599 
0.10000000000000184, -0.7060204834665187 
0.11000000000000212, -0.7058221785039097 
0.12000000000000241, -0.705934950677716 
0.130000000000002, -0.706506251606289 
0.1400000000000009, -0.707706668242085 
0.1499999999999998, -0.7097188584333989 
0.1599999999999987, -0.7127213194728802 
0.1699999999999976, -0.7168658545144837 
0.1799999999999965, -0.722243479049106 
0.1899999999999954, -0.7288306342828179 
0.1999999999999943, -0.7364155607712815 
0.2099999999999932, -0.7445356586785483 
0.2199999999999921, -0.7525013809694902 
0.229999999999991, -0.7595735903751414 
0.2399999999999899, -0.7652314657779689 
0.2499999999999888, -0.7693339297929527 
0.2599999999999877, -0.7720606405433414 
0.2699999999999866, -0.7737302602913535 
0.2799999999999855, -0.7746497857179101 
0.2899999999999844, -0.7750490475783873 
0.2999999999999833, -0.7750735965455375 
0.3099999999999822, -0.7747983395449387 
0.3199999999999811, -0.7742411061340942 
0.32999999999998, -0.7733691880191814 
0.3399999999999789, -0.7720982778304131 
0.3499999999999778, -0.7702860168578307 
0.35999999999997667, -0.7677248689273438 
0.36999999999997557, -0.7641418156923304 
0.37999999999997447, -0.7592117995465438 
0.38999999999997337, -0.752585266744497 
0.39999999999997227, -0.7439472046075839 
0.40999999999997117, -0.7332321286779276 
0.41999999999997006, -0.7211327053875094 
0.42999999999996896, -0.7094126613393767 
0.43999999999996786, -0.7001046486495157 
0.44999999999996676, -0.6941800886167769 
0.45999999999996566, -0.6912577446944741 
0.46999999999996456, -0.6903225594602612 
0.47999999999996346, -0.6904217340457017 
0.48999999999996235, -0.6909213855295362 
0.49999999999996125, -0.6914796611185489 
0.5099999999999602, -0.6919418511642002 
0.519999999999959, -0.6922504808396424 
0.529999999999958, -0.6923883988248527 
0.5399999999999568, -0.6923472380152625 
0.5499999999999557, -0.6921107684883151 
0.5599999999999546, -0.6916463914572393 
0.5699999999999535, -0.6909027589166483 
0.5799999999999524, -0.6898158759936728 
0.5899999999999513, -0.6883281342824309 
0.5999999999999502, -0.686419968711812 
0.6099999999999491, -0.6841400417421957 
0.619999999999948, -0.6816092608313651 
0.6299999999999469, -0.6789876445441094 
0.6399999999999458, -0.6764246510556545 
0.6499999999999447, -0.6740254582928816 
0.6599999999999436, -0.6718460100498017 
0.6699999999999425, -0.6699070140314614 
0.6799999999999414, -0.6682118495516732 
0.6899999999999403, -0.666759674293971 
0.6999999999999392, -0.6655518411520006 
0.7099999999999381, -0.6645931084782706 
0.719999999999937, -0.6638898729392835 
0.7299999999999359, -0.6634473468446732 
0.7399999999999348, -0.6632671063724965 
0.7499999999999337, -0.6633459469464643 
0.7599999999999326, -0.6636764478183705 
0.7699999999999315, -0.664249075292075 
0.7799999999999304, -0.6650551316385002 
0.7899999999999293, -0.6660894269496891 
0.7999999999999282, -0.6673511376796292 
0.8099999999999271, -0.6688408841355755 
0.819999999999926, -0.6705520089222159 
0.8299999999999249, -0.6724555275475705 
0.8399999999999238, -0.6744827542563345 
0.8499999999999227, -0.6765167324644412 
0.8599999999999216, -0.6784068101962478 
0.8699999999999205, -0.6800090806681793 
0.8799999999999194, -0.681231442916274 
0.8899999999999183, -0.6820528032525355 
0.8999999999999172, -0.6825078369038553 
0.9099999999999161, -0.6826555609154091 
0.919999999999915, -0.6825530144041603 
0.9299999999999139, -0.6822419808869989 
0.9399999999999128, -0.6817464517657398 
0.9499999999999117, -0.681076923205919 
0.9599999999999106, -0.6802406650756786 
0.9699999999999095, -0.6792613405921732 
0.9799999999999084, -0.6782154610706896 
0.9899999999999073, -0.677294749362851 
0.9999999999999062, -0.6768938377585486 
1.0099999999999052, -0.6776814070614451 
1.019999999999904, -0.680521248498207 
1.029999999999903, -0.6860422907148089 
1.039999999999902, -0.6939225968450866 
1.0499999999999008, -0.7026770197552212 
1.0599999999998997, -0.7106475313301072 
1.0699999999998986, -0.7171184597597656 
1.0799999999998975, -0.722201085017679 
1.0899999999998964, -0.7261662745483497 
1.0999999999998953, -0.7291908343403543 
1.1099999999998942, -0.7314091665790096 
1.119999999999893, -0.7329616683293276 
1.129999999999892, -0.7339882729533582 
1.1399999999998909, -0.7346084411671396 
1.1499999999998898, -0.7349092271877526 
1.1599999999998887, -0.7349415372014632 
1.1699999999998876, -0.7347191077998982 
1.1799999999998865, -0.7342160379878644 
1.1899999999998854, -0.7333615620183875 
1.1999999999998843, -0.7320349049110526 
1.2099999999998832, -0.7300700198079006 
1.219999999999882, -0.7272880670772276 
1.229999999999881, -0.7235720783096266 
1.2399999999998799, -0.7189637221040214 
1.2499999999998788, -0.7137113366759473 
1.2599999999998777, -0.7082078671301855 
1.2699999999998766, -0.7028539411549495 
1.2799999999998755, -0.6979471659122345 
1.2899999999998744, -0.6936516174960176 
1.2999999999998733, -0.6900251467243022 
1.3099999999998722, -0.6870608719982921 
1.319999999999871, -0.6847184139082723 
1.32999999999987, -0.682940805439193 
1.3399999999998689, -0.6816618156704121 
1.3499999999998678, -0.6808093245399656 
1.3599999999998666, -0.6803083552099329 
1.3699999999998655, -0.6800849859688893 
1.3799999999998644, -0.6800706886294929 
1.3899999999998633, -0.6802060415728998 
1.3999999999998622, -0.6804430964679634 
1.4099999999998611, -0.6807463872457056 
1.41999999999986, -0.6810929970368823 
1.429999999999859, -0.6814718220918086 
1.4399999999998578, -0.6818813133972714 
1.4499999999998567, -0.6823243877861164 
1.4599999999998556, -0.6828000804954386 
1.4699999999998545, -0.6832941703300819 
1.4799999999998534, -0.6837738253829851 
1.4899999999998523, -0.6841913121455492 
1.4999999999998512, -0.6844970093579748 
1.5099999999998501, -0.6846548747220353 
1.519999999999849, -0.6846511797537507 
1.529999999999848, -0.6844931481059872 
1.5399999999998468, -0.6842019408958457 
1.5499999999998457, -0.6838068839603572 
1.5599999999998446, -0.6833453973516399 
1.5699999999998435, -0.6828703666977383 
1.5799999999998424, -0.6824658644900947 
1.5899999999998413, -0.6822723539895301 
1.5999999999998402, -0.6825220205180613 
1.6099999999998391, -0.6835819232846485 
1.619999999999838, -0.6859953601225113 
1.629999999999837, -0.6904977053691943 
1.6399999999998358, -0.6979594192962628 
1.6499999999998347, -0.7091807000714601 
1.6599999999998336, -0.7244691102103116 
1.6699999999998325, -0.7430809359045087 
1.6799999999998314, -0.7629582270883866 
1.6899999999998303, -0.7813453376747654 
1.6999999999998292, -0.7961132042947878 
1.709999999999828, -0.8066227473319044 
1.719999999999827, -0.8134575626896388 
1.729999999999826, -0.8176395683540043 
1.7399999999998248, -0.8200855470673991 
1.7499999999998237, -0.8214403919573202 
1.7599999999998226, -0.8221044617950021 
1.7699999999998215, -0.8223049002548135 
1.7799999999998204, -0.8221527621998874 
1.7899999999998193, -0.8216750619763866 
1.7999999999998182, -0.8208237395758571 
1.809999999999817, -0.8194630200295988 
1.819999999999816, -0.8173329267104409 
1.8299999999998149, -0.8139850471544172 
1.8399999999998138, -0.8086961660627507 
1.8499999999998127, -0.8004089820147732 
1.8599999999998116, -0.7878588268908506 
1.8699999999998105, -0.7701646240040187 
1.8799999999998094, -0.7479192641669844 
1.8899999999998083, -0.7238597546274764 
1.8999999999998072, -0.7018148716293092 
1.909999999999806, -0.6845616333537137 
1.919999999999805, -0.6727703338113565 
1.9299999999998039, -0.6655780185240253 
1.9399999999998028, -0.6616201048991741 
1.9499999999998017, -0.6596734757720417 
1.9599999999998006, -0.6588597702632821 
1.9699999999997995, -0.6586221906091332 
1.9799999999997984, -0.6586358248766147 
1.9899999999997973, -0.6587217315429379 
1.9999999999997962, -0.658784043373076 
2.0099999999998173, -0.6587693263643419 
2.0199999999998384, -0.6586424181842903 
2.0299999999998595, -0.6583737203257806 
2.0399999999998806, -0.6579352380461121 
2.0499999999999017, -0.6573044133887279 
2.059999999999923, -0.6564741859883158 
2.069999999999944, -0.6554639674187593 
2.079999999999965, -0.6543225348007686 
2.089999999999986, -0.6531169473296008 
2.100000000000007, -0.6519122387770178 
2.1100000000000283, -0.6507542922754497 
2.1200000000000494, -0.6496646185474221 
2.1300000000000705, -0.6486463136721132 
2.1400000000000916, -0.6476948665823928 
2.1500000000001127, -0.6468079298551174 
2.160000000000134, -0.6459914690138939 
2.170000000000155, -0.6452626080040058 
2.180000000000176, -0.6446505897870726 
2.190000000000197, -0.6441969046901206 
2.2000000000002182, -0.6439548730533173 
2.2100000000002393, -0.6439885733048906 
2.2200000000002604, -0.6443711299528342 
2.2300000000002815, -0.6451827326353239 
2.2400000000003026, -0.6465088817256979 
2.2500000000003237, -0.6484387915328436 
2.260000000000345, -0.6510623152956214 
2.270000000000366, -0.6544611458941353 
2.280000000000387, -0.6586870811730119 
2.290000000000408, -0.6637197062531532 
2.3000000000004293, -0.6694051850857045 
2.3100000000004504, -0.6754054154538991 
2.3200000000004715, -0.6812203804759503 
2.3300000000004926, -0.6863283310848651 
2.3400000000005137, -0.6903798387802984 
2.3500000000005348, -0.6932977281669103 
2.360000000000556, -0.6952205026723283 
2.370000000000577, -0.6963728192425007 
2.380000000000598, -0.6969652247338028 
2.390000000000619, -0.6971517484267082 
2.4000000000006403, -0.697024437116086 
2.4100000000006614, -0.696619704815619 
2.4200000000006825, -0.6959222713227361 
2.4300000000007036, -0.6948601911454435 
2.4400000000007247, -0.693286479555562 
2.450000000000746, -0.6909410963705802 
2.460000000000767, -0.6873843394166308 
2.470000000000788, -0.6818978031734226 
2.480000000000809, -0.6733935066881439 
2.49000000000083, -0.6605192847838013 
2.5000000000008513, -0.6423467545006717 
2.5100000000008724, -0.6196830674459075 
2.5200000000008935, -0.5956685320355677 
2.5300000000009146, -0.5741922778354263 
2.5400000000009357, -0.5575913678285638 
2.550000000000957, -0.5460825858957689 
2.560000000000978, -0.5386852419125305 
2.570000000000999, -0.5341795513541949 
2.58000000000102, -0.5315534193497543 
2.5900000000010412, -0.530090875880937 
2.6000000000010624, -0.5293234964050276 
2.6100000000010835, -0.528957424122576 
2.6200000000011046, -0.52881265030702 
2.6300000000011257, -0.5287802895200804 
2.6400000000011468, -0.5287947567381791 
2.650000000001168, -0.528816711261537 
2.660000000001189, -0.5288236016000019 
2.67000000000121, -0.5288056255609525 
2.680000000001231, -0.5287651739487872 
2.6900000000012523, -0.5287172253193108 
2.7000000000012734, -0.528687461248653 
2.7100000000012945, -0.5287056132084247 
2.7200000000013156, -0.5287944384933416 
2.7300000000013367, -0.528958179245326 
2.740000000001358, -0.5291760253870683 
2.750000000001379, -0.5294049641832418 
2.7600000000014, -0.5295922353344216 
2.770000000001421, -0.5296916090961794 
2.780000000001442, -0.5296747101536071 
2.7900000000014633, -0.5295326127389482 
2.8000000000014844, -0.5292701176513928 
2.8100000000015055, -0.5288985074370045 
2.8200000000015266, -0.5284310714823443 
2.8300000000015477, -0.5278830529214646 
2.840000000001569, -0.527276582125551 
2.85000000000159, -0.5266516897341986 
2.860000000001611, -0.526085427332588 
2.870000000001632, -0.5257200790556069 
2.8800000000016532, -0.5257921427107178 
2.8900000000016743, -0.5266212038057426 
2.9000000000016954, -0.5284446673704452 
2.9100000000017165, -0.5309308344694451 
2.9200000000017377, -0.5325161193755721 
2.9300000000017588, -0.5307052001732747 
2.94000000000178, -0.5243315430504643 
2.950000000001801, -0.5152724027010973 
2.960000000001822, -0.5066550651468064 
2.970000000001843, -0.5002720388858426 
2.9800000000018643, -0.49625707947375863 
2.9900000000018854, -0.4940079610978536 
3.0000000000019065, -0.4928706245402372 
3.0100000000019276, -0.4923651148215177 
3.0200000000019487, -0.49218941927634396 
3.03000000000197, -0.49216724186188204 
3.040000000001991, -0.4921993927863285 
3.050000000002012, -0.4922304885645167 
3.060000000002033, -0.49222881358771653 
3.070000000002054, -0.49217539518835174 
3.0800000000020753, -0.49205946516174126 
3.0900000000020964, -0.49187852685900835 
3.1000000000021175, -0.4916412175725811 
3.1100000000021386, -0.49137001456950796 
3.1200000000021597, -0.4910999075002603 
3.130000000002181, -0.4908706260465176 
3.140000000002202, -0.49071411263953557 
3.150000000002223, -0.49064253383766976 
3.160000000002244, -0.49064237994918347 
3.1700000000022652, -0.4906776820838794 
3.1800000000022863, -0.4907015076766907 
3.1900000000023074, -0.49067054371217356 
3.2000000000023285, -0.4905556023004657 
3.2100000000023496, -0.4903440521304434 
3.2200000000023707, -0.4900358665571119 
3.230000000002392, -0.489637922001422 
3.240000000002413, -0.489160249597106 
3.250000000002434, -0.4886158622313669 
3.260000000002455, -0.48802472456761875 
3.2700000000024763, -0.48742249339092075 
3.2800000000024974, -0.486874525880901 
3.2900000000025185, -0.48649223734107155 
3.3000000000025396, -0.4864342464334433 
3.3100000000025607, -0.48683265122603536 
3.3200000000025818, -0.48751038512527584 
3.330000000002603, -0.4873826850265365 
3.340000000002624, -0.4840331870608666 
3.350000000002645, -0.4750127102925548 
3.360000000002666, -0.46084726655082003 
3.3700000000026873, -0.4454297226291081 
3.3800000000027084, -0.43250241085828955 
3.3900000000027295, -0.4233567714500432 
3.4000000000027506, -0.4175080354429343 
3.4100000000027717, -0.4139776706626968 
3.420000000002793, -0.4119220657712003 
3.430000000002814, -0.4107609097971099 
3.440000000002835, -0.41013015777823236 
3.450000000002856, -0.4098105400850411 
3.460000000002877, -0.40967251071005417 
3.4700000000028983, -0.4096406849963851 
3.4800000000029194, -0.4096726494908073 
3.4900000000029405, -0.40974723836242155 
3.5000000000029616, -0.4098589190886225 
3.5100000000029827, -0.4100159610327223 
3.520000000003004, -0.41024025613990744 
3.530000000003025, -0.4105663179393213 
3.540000000003046, -0.41103683244354033 
3.550000000003067, -0.4116928336175308 
3.5600000000030882, -0.41255821736015436 
3.5700000000031094, -0.4136211597730883 
3.5800000000031305, -0.41482003264466416 
3.5900000000031516, -0.41604630667896325 
3.6000000000031727, -0.41717215984047973 
3.6100000000031938, -0.41809138049348543 
3.620000000003215, -0.41874723712068684 
3.630000000003236, -0.4191319093539853 
3.640000000003257, -0.4192658232743442 
3.650000000003278, -0.41917404228471344 
3.6600000000032993, -0.41886881181301616 
3.6700000000033204, -0.41833741059585805 
3.6800000000033415, -0.4175299041046623 
3.6900000000033626, -0.4163404610202557 
3.7000000000033837, -0.4145764586315308 
3.710000000003405, -0.4119148410292772 
3.720000000003426, -0.40786813702988606 
3.730000000003447, -0.40184174213750296 
3.740000000003468, -0.3934221954562652 
3.750000000003489, -0.3828829824032908 
3.7600000000035103, -0.37141895760754456 
3.7700000000035314, -0.3605987715577217 
3.7800000000035525, -0.35150778365159013 
3.7900000000035736, -0.3444466570237517 
3.8000000000035947, -0.3391953204020413 
3.810000000003616, -0.3353601567348718 
3.820000000003637, -0.33256869641058306 
3.830000000003658, -0.3305321639276453 
3.840000000003679, -0.3290468878558407 
3.8500000000037002, -0.3279779671266233 
3.8600000000037213, -0.3272426025558035 
3.8700000000037424, -0.32679816016518265 
3.8800000000037635, -0.3266357742181232 
3.8900000000037847, -0.3267794191704244 
3.9000000000038058, -0.327290755640408 
3.910000000003827, -0.32828091727933717 
3.920000000003848, -0.3299313902965859 
3.930000000003869, -0.33252650021847885 
3.94000000000389, -0.3364971686946547 
3.9500000000039113, -0.3424617340914975 
3.9600000000039324, -0.3512071922281543 
3.9700000000039535, -0.36346790109593047 
3.9800000000039746, -0.37931260098700414 
3.9900000000039957, -0.397308692588217 
4.000000000004016, -0.41453940999064154 
4.010000000003993, -0.4282870081062379 
4.02000000000397, -0.43770180460430685 
4.030000000003946, -0.44355694678074753 
4.040000000003923, -0.4470523097113932 
4.0500000000039, -0.4491255713972345 
4.0600000000038765, -0.4503563181436956 
4.070000000003853, -0.45107141492418956 
4.08000000000383, -0.4514492711911699 
4.090000000003807, -0.4515844561548669 
4.100000000003783, -0.4515224754507005 
4.11000000000376, -0.45127812198879413 
4.120000000003737, -0.45084670923619374 
4.130000000003713, -0.450214492435031 
4.14000000000369, -0.44937233962296536 
4.150000000003667, -0.44833265986636517 
4.1600000000036434, -0.447142774787688 
4.17000000000362, -0.44588357915972676 
4.180000000003597, -0.4446491613356883 
4.1900000000035735, -0.44351818173622115 
4.20000000000355, -0.44253418972310765 
4.210000000003527, -0.44170279269376067 
4.220000000003504, -0.44100156991779177 
4.23000000000348, -0.4403946834496887 
4.240000000003457, -0.439846084158397 
4.250000000003434, -0.4393281688027269 
4.26000000000341, -0.43882545761140496 
4.270000000003387, -0.438335065633204 
4.280000000003364, -0.4378667120746738 
4.2900000000033405, -0.43744480163991345 
4.300000000003317, -0.43711469239627226 
4.310000000003294, -0.4369554968125895 
4.320000000003271, -0.4371028808527463 
4.330000000003247, -0.437786861193784 
4.340000000003224, -0.4393893849928938 
4.350000000003201, -0.44251674500526184 
4.360000000003177, -0.44804037840706024 
4.370000000003154, -0.4569463355961997 
4.380000000003131, -0.4696765884869755 
4.390000000003107, -0.484883033774023 
4.400000000003084, -0.4989201117609617 
4.410000000003061, -0.5081604664869643 
4.4200000000030375, -0.5121351480880102 
4.430000000003014, -0.5130083775596133 
4.440000000002991, -0.5129042965509923 
4.450000000002968, -0.5128052783876862 
4.460000000002944, -0.5129157916164389 
4.470000000002921, -0.5131678722699385 
4.480000000002898, -0.5134607855211051 
4.490000000002874, -0.5137249257298853 
4.500000000002851, -0.5139223220605854 
4.510000000002828, -0.5140340083982899 
4.520000000002804, -0.5140491336649082 
4.530000000002781, -0.5139583791910105 
4.540000000002758, -0.5137515066919086 
4.5500000000027345, -0.5134189291924439 
4.560000000002711, -0.5129572442651158 
4.570000000002688, -0.5123772288860321 
4.580000000002665, -0.5117098779254261 
4.590000000002641, -0.5110045274938757 
4.600000000002618, -0.5103168084902892 
4.610000000002595, -0.5096916903691486 
4.620000000002571, -0.5091507412727692 
4.630000000002548, -0.5086893139490248 
4.640000000002525, -0.5082832268351275 
4.6500000000025015, -0.5079005252712243 
4.660000000002478, -0.5075128414163486 
4.670000000002455, -0.5071023718249943 
4.6800000000024315, -0.5066638331774167 
4.690000000002408, -0.5062037494699336 
4.700000000002385, -0.505740333421948 
4.710000000002362, -0.5053065953670826 
4.720000000002338, -0.5049587249195912 
4.730000000002315, -0.504792142371634 
4.740000000002292, -0.504968899704915 
4.750000000002268, -0.5057616493651096 
4.760000000002245, -0.5076189984138131 
4.770000000002222, -0.5112476897043978 
4.7800000000021985, -0.5176700377349841 
4.790000000002175, -0.5281190847376764 
4.800000000002152, -0.543498513070068 
4.810000000002129, -0.5632651022999126 
4.820000000002105, -0.5845748492584897 
4.830000000002082, -0.6034457766418347 
4.840000000002059, -0.6174633061223316 
4.850000000002035, -0.626755944249356 
4.860000000002012, -0.6326652273113245 
4.870000000001989, -0.636440192661367 
4.880000000001965, -0.6388886516102856 
4.890000000001942, -0.6404829417110909 
4.900000000001919, -0.6415017884986711 
