t, s[1].omega / s[0].omega 
0, -0.5400387817318727 
0.009999999999999995, -0.5440244935800113 
0.019999999999999934, -0.547987367702844 
0.029999999999999874, -0.5515614490290307 
0.04000000000000012, -0.5544743343072109 
0.050000000000000405, -0.556630257883561 
0.06000000000000069, -0.5580881401209747 
0.07000000000000098, -0.5589808080964297 
0.08000000000000126, -0.5594442853508604 
0.09000000000000155, -0.559582534536519 
0.10000000000000184, -0.5594579378869569 
0.11000000000000212, -0.5590913559453808 
0.12000000000000241, -0.558461167437285 
0.130000000000002, -0.5574958360150701 
0.1400000000000009, -0.5560573564216278 
0.1499999999999998, -0.55391677903212 
0.1599999999999987, -0.5507349332900402 
0.1699999999999976, -0.5460894931967855 
0.1799999999999965, -0.5396200260105781 
0.1899999999999954, -0.5313145376983401 
0.1999999999999943, -0.5217525605922423 
0.2099999999999932, -0.5119804519063681 
0.2199999999999921, -0.5030266089996625 
0.229999999999991, -0.4954974759619285 
0.2399999999999899, -0.48953237120706056 
0.2499999999999888, -0.48498177011268134 
0.2599999999999877, -0.48159098941003375 
0.2699999999999866, -0.4791063096481826 
0.2799999999999855, -0.47731590706804167 
0.2899999999999844, -0.4760567643228262 
0.2999999999999833, -0.4752087272842293 
0.3099999999999822, -0.47468582716680785 
0.3199999999999811, -0.4744286682921829 
0.32999999999998, -0.4743988839981269 
0.3399999999999789, -0.47457564932640245 
0.3499999999999778, -0.4749539497152323 
0.35999999999997667, -0.4755441862987004 
0.36999999999997557, -0.4763724290766769 
0.37999999999997447, -0.47747998060012176 
0.38999999999997337, -0.4789197631570962 
0.39999999999997227, -0.4807455873950831 
0.40999999999997117, -0.4829897309814822 
0.41999999999997006, -0.48562767172369076 
0.42999999999996896, -0.4885411248417865 
0.43999999999996786, -0.491509341802308 
0.44999999999996676, -0.4942595086940075 
0.45999999999996566, -0.49656276338187855 
0.46999999999996456, -0.49830898419259484 
0.47999999999996346, -0.4995094475251399 
0.48999999999996235, -0.5002456635929244 
0.49999999999996125, -0.5006139224611899 
0.5099999999999602, -0.5006920113936452 
0.519999999999959, -0.5005262510678322 
0.529999999999958, -0.5001276790416982 
0.5399999999999568, -0.4994684098553136 
0.5499999999999557, -0.49847312600177374 
0.5599999999999546, -0.4970040052879262 
0.5699999999999535, -0.4948432670392274 
0.5799999999999524, -0.4916920854104044 
0.5899999999999513, -0.4872292986368375 
0.5999999999999502, -0.4812777028369729 
0.6099999999999491, -0.4740337133463261 
0.619999999999948, -0.46614640442266336 
0.6299999999999469, -0.45847190821373757 
0.6399999999999458, -0.4516860473415415 
0.6499999999999447, -0.4460914364808432 
0.6599999999999436, -0.44168042160616494 
0.6699999999999425, -0.4382894486437559 
0.6799999999999414, -0.43571747761999563 
0.6899999999999403, -0.4337840794895885 
0.6999999999999392, -0.432347591442947 
0.7099999999999381, -0.4313049756406106 
0.719999999999937, -0.43058586269858734 
0.7299999999999359, -0.43014629377181846 
0.7399999999999348, -0.42996412062777 
0.7499999999999337, -0.43003656444914046 
0.7599999999999326, -0.4303799626632043 
0.7699999999999315, -0.43103161301284365 
0.7799999999999304, -0.4320534623051199 
0.7899999999999293, -0.4335367937564505 
0.7999999999999282, -0.4356054465570369 
0.8099999999999271, -0.43841155670509924 
0.819999999999926, -0.4421117529952984 
0.8299999999999249, -0.44680614323634504 
0.8399999999999238, -0.452431446736781 
0.8499999999999227, -0.45864889571662404 
0.8599999999999216, -0.4648448900693564 
0.8699999999999205, -0.47034033351655163 
0.8799999999999194, -0.4746905181124558 
0.8899999999999183, -0.4778156772747238 
0.8999999999999172, -0.4798956651773124 
0.9099999999999161, -0.4811921661291847 
0.919999999999915, -0.48193562845951854 
0.9299999999999139, -0.4822895151859362 
0.9399999999999128, -0.4823535168658063 
0.9499999999999117, -0.48217610845010545 
0.9599999999999106, -0.4817643062279865 
0.9699999999999095, -0.4810884085695416 
0.9799999999999084, -0.4800842983434159 
0.9899999999999073, -0.4786599632602976 
0.9999999999999062, -0.47671725955708155 
1.0099999999999052, -0.4741985930285247 
1.019999999999904, -0.47114880747609156 
1.029999999999903, -0.46774852170752423 
1.039999999999902, -0.46427239072233445 
1.0499999999999008, -0.4609884873607088 
1.0599999999998997, -0.45807383796482143 
1.0699999999998986, -0.4555948817346637 
1.0799999999998975, -0.45353747898044744 
1.0899999999998964, -0.45184840155323214 
1.0999999999998953, -0.4504662174398075 
1.1099999999998942, -0.44933801503328585 
1.119999999999893, -0.44842614503034967 
1.129999999999892, -0.44770985205948133 
1.1399999999998909, -0.44718524044878877 
1.1499999999998898, -0.4468655915526057 
1.1599999999998887, -0.4467831470723733 
1.1699999999998876, -0.44699307696149465 
1.1799999999998865, -0.4475802802284609 
1.1899999999998854, -0.44866964593298186 
1.1999999999998843, -0.4504399358926451 
1.2099999999998832, -0.4531394512735127 
1.219999999999882, -0.45709576014291003 
1.229999999999881, -0.4626981008783105 
1.2399999999998799, -0.4703083121495261 
1.2499999999998788, -0.480044826888477 
1.2599999999998777, -0.49146004156895123 
1.2699999999998766, -0.5033644509082011 
1.2799999999998755, -0.514188301594403 
1.2899999999998744, -0.5227791990883411 
1.2999999999998733, -0.5288744671200327 
1.3099999999998722, -0.5328780683393188 
1.319999999999871, -0.5353881726368497 
1.32999999999987, -0.5369118777304178 
1.3399999999998689, -0.5377968403821053 
1.3499999999998678, -0.5382576336985477 
1.3599999999998666, -0.5384169669587074 
1.3699999999998655, -0.538336238710533 
1.3799999999998644, -0.5380333108235461 
1.3899999999998633, -0.5374913576033054 
1.3999999999998622, -0.5366638297145695 
1.4099999999998611, -0.5354820551801447 
1.41999999999986, -0.5338738970082593 
1.429999999999859, -0.5317993657642142 
1.4399999999998578, -0.5292946311304585 
1.4499999999998567, -0.5264941633302573 
1.4599999999998556, -0.5236015171626306 
1.4699999999998545, -0.5208202731313629 
1.4799999999998534, -0.5182937244210883 
1.4899999999998523, -0.5160868022161721 
1.4999999999998512, -0.5142033880142025 
1.5099999999998501, -0.512614838924537 
1.519999999999849, -0.5112833506984993 
1.529999999999848, -0.510175813746095 
1.5399999999998468, -0.5092700730414641 
1.5499999999998457, -0.5085568646443661 
1.5599999999998446, -0.5080400336727235 
1.5699999999998435, -0.507736612934633 
1.5799999999998424, -0.5076775840230972 
1.5899999999998413, -0.5079097455580546 
1.5999999999998402, -0.5084989366697795 
1.6099999999998391, -0.5095346678173427 
1.619999999999838, -0.5111356437991594 
1.629999999999837, -0.5134541369686746 
1.6399999999998358, -0.5166737345229631 
1.6499999999998347, -0.5209887147355137 
1.6599999999998336, -0.5265458088477701 
1.6699999999998325, -0.5333317415468797 
1.6799999999998314, -0.5410302405235878 
1.6899999999998303, -0.5489620323158075 
1.6999999999998292, -0.5562587757855078 
1.709999999999828, -0.5622326631062515 
1.719999999999827, -0.5666396843193786 
1.729999999999826, -0.5696325920946537 
1.7399999999998248, -0.5715383401535126 
1.7499999999998237, -0.5726773785934817 
1.7599999999998226, -0.573290481729783 
1.7699999999998215, -0.5735332670034474 
1.7799999999998204, -0.573492371935113 
1.7899999999998193, -0.5732006583442254 
1.7999999999998182, -0.5726446820366086 
1.809999999999817, -0.5717640502705551 
1.819999999999816, -0.5704453925634103 
1.8299999999998149, -0.5685188497985598 
1.8399999999998138, -0.565775152739303 
1.8499999999998127, -0.5620303051096991 
1.8599999999998116, -0.5572461038223634 
1.8699999999998105, -0.5516437922668299 
1.8799999999998094, -0.5456898985941285 
1.8899999999998083, -0.5399209398163916 
1.8999999999998072, -0.5347427040213952 
1.909999999999806, -0.5303481213987661 
1.919999999999805, -0.5267558262974794 
1.9299999999998039, -0.5238895636373161 
1.9399999999998028, -0.521641641885433 
1.9499999999998017, -0.5199076096290153 
1.9599999999998006, -0.5185998625813621 
1.9699999999997995, -0.517650193362403 
1.9799999999997984, -0.5170079563286075 
1.9899999999997973, -0.5166372849813385 
1.9999999999997962, -0.5165148300260214 
2.0099999999998173, -0.5166285051074467 
2.0199999999998384, -0.5169772916739107 
2.0299999999998595, -0.5175719297518058 
2.0399999999998806, -0.5184360558892239 
2.0499999999999017, -0.519606812919401 
2.059999999999923, -0.5211329475329085 
2.069999999999944, -0.5230669329548826 
2.079999999999965, -0.5254464348293423 
2.089999999999986, -0.5282620077877055 
2.100000000000007, -0.5314171298164095 
2.1100000000000283, -0.5347053870076284 
2.1200000000000494, -0.5378412788587864 
2.1300000000000705, -0.5405517624025215 
2.1400000000000916, -0.5426728795148636 
2.1500000000001127, -0.5441805876457719 
2.160000000000134, -0.5451491385900002 
2.170000000000155, -0.5456870301995735 
2.180000000000176, -0.5458916755793096 
2.190000000000197, -0.5458295048771576 
2.2000000000002182, -0.5455305991745409 
2.2100000000002393, -0.5449865332561525 
2.2200000000002604, -0.5441442704467815 
2.2300000000002815, -0.542891858606602 
2.2400000000003026, -0.5410341221355351 
2.2500000000003237, -0.5382638402731534 
2.260000000000345, -0.5341558695327107 
2.270000000000366, -0.5282517882793182 
2.280000000000387, -0.5203112565829382 
2.290000000000408, -0.5106547539253556 
2.3000000000004293, -0.5002522253080992 
2.3100000000004504, -0.4903151785878167 
2.3200000000004715, -0.48173064064533594 
2.3300000000004926, -0.47483483603355425 
2.3400000000005137, -0.469549401213433 
2.3500000000005348, -0.4656108200042043 
2.360000000000556, -0.46272678266865575 
2.370000000000577, -0.4606446913672123 
2.380000000000598, -0.45916843585662176 
2.390000000000619, -0.45815383528421594 
2.4000000000006403, -0.45749843470838975 
2.4100000000006614, -0.4571318581250769 
2.4200000000006825, -0.45700852211168713 
2.4300000000007036, -0.4571028664289635 
2.4400000000007247, -0.45740678220426745 
2.450000000000746, -0.45792881060983276 
2.460000000000767, -0.4586945290171657 
2.470000000000788, -0.4597470579332419 
2.480000000000809, -0.46114558268210615 
2.49000000000083, -0.4629581068503226 
2.5000000000008513, -0.4652428807144692 
2.5100000000008724, -0.46801357003683747 
2.5200000000008935, -0.4711921664094424 
2.5300000000009146, -0.47457544454866374 
2.5400000000009357, -0.4778593201389734 
2.550000000000957, -0.480737612706688 
2.560000000000978, -0.48301606716731926 
2.570000000000999, -0.4846552247758332 
2.58000000000102, -0.48572802085699196 
2.5900000000010412, -0.48634867335254894 
2.6000000000010624, -0.4866217576907316 
2.6100000000010835, -0.48662011935105454 
2.6200000000011046, -0.4863795599209452 
2.6300000000011257, -0.4858979862458569 
2.6400000000011468, -0.4851321117559463 
2.650000000001168, -0.48398934337314403 
2.660000000001189, -0.48231730670208817 
2.67000000000121, -0.47990275153464595 
2.680000000001231, -0.47650709618579495 
2.6900000000012523, -0.4719719685623397 
2.7000000000012734, -0.46637981081090113 
2.7100000000012945, -0.46014446635044787 
2.7200000000013156, -0.4538894757792934 
2.7300000000013367, -0.4481777040587317 
2.740000000001358, -0.4433229735413371 
2.750000000001379, -0.43938806050744084 
2.7600000000014, -0.4362848287015524 
2.770000000001421, -0.4338713144002456 
2.780000000001442, -0.43200823139018646 
2.7900000000014633, -0.4305817141625373 
2.8000000000014844, -0.4295079376518304 
2.8100000000015055, -0.42873061326257994 
2.8200000000015266, -0.4282169914011158 
2.8300000000015477, -0.42795476689255335 
2.840000000001569, -0.42795077328141834 
2.85000000000159, -0.42823179321422744 
2.860000000001611, -0.4288476663689381 
2.870000000001632, -0.429876768292512 
2.8800000000016532, -0.43143345080744205 
2.8900000000016743, -0.43367546207068874 
2.9000000000016954, -0.43680538503878685 
2.9100000000017165, -0.441052037714488 
2.9200000000017377, -0.44660654736542593 
2.9300000000017588, -0.45348780904642394 
2.94000000000178, -0.46136317892779566 
2.950000000001801, -0.4694732986163844 
2.960000000001822, -0.4768564587094815 
2.970000000001843, -0.4827969599315189 
2.9800000000018643, -0.48709782307726124 
2.9900000000018854, -0.48997550863705397 
3.0000000000019065, -0.4917940737475705 
3.0100000000019276, -0.49288296398207504 
3.0200000000019487, -0.4934783332827684 
3.03000000000197, -0.4937286820991707 
3.040000000001991, -0.4937162503154123 
3.050000000002012, -0.4934747322936673 
3.060000000002033, -0.49299970288077677 
3.070000000002054, -0.4922539832062106 
3.0800000000020753, -0.49117303936149675 
3.0900000000020964, -0.4896784544063702 
3.1000000000021175, -0.4877083433407668 
3.1100000000021386, -0.4852642825178298 
3.1200000000021597, -0.48245078743440334 
3.130000000002181, -0.4794678013303601 
3.140000000002202, -0.4765457724713886 
3.150000000002223, -0.47386732085259525 
3.160000000002244, -0.4715280387678361 
3.1700000000022652, -0.46954516734887336 
3.1800000000022863, -0.4678887868590536 
3.1900000000023074, -0.46651151894365006 
3.2000000000023285, -0.46536769199814454 
3.2100000000023496, -0.4644227709624378 
3.2200000000023707, -0.4636567857392884 
3.230000000002392, -0.4630651604661506 
3.240000000002413, -0.46265922563230183 
3.250000000002434, -0.46246774626119114 
3.260000000002455, -0.46254026688305655 
3.2700000000024763, -0.46295290100791203 
3.2800000000024974, -0.4638171712217695 
3.2900000000025185, -0.4652922583292066 
3.3000000000025396, -0.46759975751958693 
3.3100000000025607, -0.47103604751574474 
3.3200000000025818, -0.4759674749165714 
3.330000000002603, -0.4827747377624492 
3.340000000002624, -0.4916936765033973 
3.350000000002645, -0.5025295192501379 
3.360000000002666, -0.5143884848731621 
3.3700000000026873, -0.525794521680283 
3.3800000000027084, -0.5353580722656713 
3.3900000000027295, -0.542451854283606 
3.4000000000027506, -0.5472538674311777 
3.4100000000027717, -0.5503197996186037 
3.420000000002793, -0.5522055208714841 
3.430000000002814, -0.5533222115881823 
3.440000000002835, -0.5539344844112514 
3.450000000002856, -0.55419901873338 
3.460000000002877, -0.5541995998347091 
3.4700000000028983, -0.5539692964751176 
3.4800000000029194, -0.553501774209714 
3.4900000000029405, -0.5527561119842022 
3.5000000000029616, -0.5516608600121897 
3.5100000000029827, -0.5501258227465641 
3.520000000003004, -0.548071727712191 
3.530000000003025, -0.5454799624790643 
3.540000000003046, -0.5424402868312612 
3.550000000003067, -0.5391534495487071 
3.5600000000030882, -0.5358695823337227 
3.5700000000031094, -0.5328024467403519 
3.5800000000031305, -0.5300786321167978 
3.5900000000031516, -0.5277388816320576 
3.6000000000031727, -0.525768039952023 
3.6100000000031938, -0.5241267049930345 
3.620000000003215, -0.5227726767929651 
3.630000000003236, -0.5216718408616839 
3.640000000003257, -0.520802095890214 
3.650000000003278, -0.5201538360108261 
3.6600000000032993, -0.5197292950824381 
3.6700000000033204, -0.5195419987857602 
3.6800000000033415, -0.5196169296896399 
3.6900000000033626, -0.5199916949526914 
3.7000000000033837, -0.520718790953538 
3.710000000003405, -0.521868742440482 
3.720000000003426, -0.5235331377719196 
3.730000000003447, -0.5258249195695266 
3.740000000003468, -0.5288701867392422 
3.750000000003489, -0.5327814166752597 
3.7600000000035103, -0.5376000762574421 
3.7700000000035314, -0.5432086732753734 
3.7800000000035525, -0.5492535266318133 
3.7900000000035736, -0.5551700941708229 
3.8000000000035947, -0.5603684342911571 
3.810000000003616, -0.5644735328887205 
3.820000000003637, -0.5674241635251986 
3.830000000003658, -0.5693840338634893 
3.840000000003679, -0.5705917539111337 
3.8500000000037002, -0.5712607087767647 
3.8600000000037213, -0.5715437790576346 
3.8700000000037424, -0.5715330841953998 
3.8800000000037635, -0.5712688030464367 
3.8900000000037847, -0.5707447468401546 
3.9000000000038058, -0.5699065472812996 
3.910000000003827, -0.5686420664418887 
3.920000000003848, -0.5667678273954151 
3.930000000003869, -0.5640254771711843 
3.94000000000389, -0.5601207387618292 
3.9500000000039113, -0.55484583540908 
3.9600000000039324, -0.5482714413717733 
3.9700000000039535, -0.5408638838753014 
3.9800000000039746, -0.5333559795934343 
3.9900000000039957, -0.5264341222750601 
4.000000000004016, -0.5205066137295702 
4.010000000003993, -0.5156850839456915 
4.02000000000397, -0.5118919098420739 
4.030000000003946, -0.5089723389232346 
4.040000000003923, -0.5067632155878941 
4.0500000000039, -0.5051226871289918 
4.0600000000038765, -0.503937809952455 
4.070000000003853, -0.5031227741817671 
4.08000000000383, -0.5026144705886194 
4.090000000003807, -0.5023682670626949 
4.100000000003783, -0.5023549502368391 
4.11000000000376, -0.5025589899304145 
4.120000000003737, -0.5029779870854381 
4.130000000003713, -0.5036229895502738 
4.14000000000369, -0.5045190370085263 
4.150000000003667, -0.5057046113368522 
4.1600000000036434, -0.507227520885675 
4.17000000000362, -0.5091334145511471 
4.180000000003597, -0.5114429036683703 
4.1900000000035735, -0.5141174283414622 
4.20000000000355, -0.5170265939023958 
4.210000000003527, -0.5199463829752541 
4.220000000003504, -0.5226139295931681 
4.23000000000348, -0.5248195329452647 
4.240000000003457, -0.5264713528732355 
4.250000000003434, -0.5275908696052964 
4.26000000000341, -0.5282615725248266 
4.270000000003387, -0.5285770557842348 
4.280000000003364, -0.5286108619226033 
4.2900000000033405, -0.5284049275714218 
4.300000000003317, -0.5279658206259621 
4.310000000003294, -0.5272601865814419 
4.320000000003271, -0.5262040839981397 
4.330000000003247, -0.5246432299647844 
4.340000000003224, -0.5223258089103063 
4.350000000003201, -0.5188843410316686 
4.360000000003177, -0.5138764393046775 
4.370000000003154, -0.5069640129305475 
4.380000000003131, -0.49823364496182726 
4.390000000003107, -0.4884110502542371 
4.400000000003084, -0.47863377709716265 
4.410000000003061, -0.46990145725778953 
4.4200000000030375, -0.46271616771140084 
4.430000000003014, -0.4571161141910055 
4.440000000002991, -0.4528907070668226 
4.450000000002968, -0.4497612739736681 
4.460000000002944, -0.4474724166072754 
4.470000000002921, -0.4458210562298232 
4.480000000002898, -0.44465670160516685 
4.490000000002874, -0.44387251656961774 
4.500000000002851, -0.4433956238715006 
4.510000000002828, -0.44317944387194563 
4.520000000002804, -0.4431986008438288 
4.530000000002781, -0.443446207652328 
4.540000000002758, -0.44393317671608523 
4.5500000000027345, -0.4446891020547407 
4.560000000002711, -0.445763887235772 
4.570000000002688, -0.44722833529935524 
4.580000000002665, -0.4491700348983989 
4.590000000002641, -0.4516780634135209 
4.600000000002618, -0.45480799902553126 
4.610000000002595, -0.4585238940674425 
4.620000000002571, -0.46263691758770725 
4.630000000002548, -0.4667966303020886 
4.640000000002525, -0.47058792744418165 
4.6500000000025015, -0.47369461812632085 
4.660000000002478, -0.4760024050056854 
4.670000000002455, -0.4775737160798689 
4.6800000000024315, -0.4785532587143265 
4.690000000002408, -0.4790881468404014 
4.700000000002385, -0.47929033038342483 
4.710000000002362, -0.4792281369366571 
4.720000000002338, -0.4789284210185224 
4.730000000002315, -0.478378638832072 
4.740000000002292, -0.47752512417547743 
4.750000000002268, -0.47626873219524024 
4.760000000002245, -0.4744650930827944 
4.770000000002222, -0.47194597504917013 
4.7800000000021985, -0.46858340866983184 
4.790000000002175, -0.464394916524628 
4.800000000002152, -0.45962355250371206 
4.810000000002129, -0.4546933074208154 
4.820000000002105, -0.45004078449979656 
4.830000000002082, -0.4459578939342082 
4.840000000002059, -0.4425508054568456 
4.850000000002035, -0.43979189785525097 
4.860000000002012, -0.43759146167203644 
4.870000000001989, -0.4358482008527762 
4.880000000001965, -0.4344742044590838 
4.890000000001942, -0.43340340325641336 
