t, s[1].omega / s[0].omega 
0, -0.5200048474261575 
0.009999999999999995, -0.5205226349478692 
0.019999999999999934, -0.5210727743896455 
0.029999999999999874, -0.5215934114098644 
0.04000000000000012, -0.5220212192983517 
0.050000000000000405, -0.5223095384283327 
0.06000000000000069, -0.5224368903573193 
0.07000000000000098, -0.5224032681728601 
0.08000000000000126, -0.5222197986764121 
0.09000000000000155, -0.5218986171170161 
0.10000000000000184, -0.5214461198820535 
0.11000000000000212, -0.5208593065258561 
0.12000000000000241, -0.5201234825941689 
0.130000000000002, -0.519209074744644 
0.1400000000000009, -0.5180638328467809 
0.1499999999999998, -0.5165919588248494 
0.1599999999999987, -0.5146012768874686 
0.1699999999999976, -0.5116883693795344 
0.1799999999999965, -0.507063209401726 
0.1899999999999954, -0.4995066080478461 
0.1999999999999943, -0.4879699963206572 
0.2099999999999932, -0.4729098029888429 
0.2199999999999921, -0.4567966954602268 
0.229999999999991, -0.4425253165327517 
0.2399999999999899, -0.4316041764691663 
0.2499999999999888, -0.4240188337237386 
0.2599999999999877, -0.41904660362040813 
0.2699999999999866, -0.41589434146354876 
0.2799999999999855, -0.4139389076965828 
0.2899999999999844, -0.41275084810705537 
0.2999999999999833, -0.4120513261464508 
0.3099999999999822, -0.4116645008798221 
0.3199999999999811, -0.41148153828466894 
0.32999999999998, -0.41143673569575984 
0.3399999999999789, -0.4114927698656271 
0.3499999999999778, -0.4116322377155449 
0.35999999999997667, -0.4118534120016724 
0.36999999999997557, -0.4121685736880815 
0.37999999999997447, -0.41260321277215467 
0.38999999999997337, -0.413193960232811 
0.39999999999997227, -0.41398273976457045 
0.40999999999997117, -0.4150048492463026 
0.41999999999997006, -0.4162703012076352 
0.42999999999996896, -0.41774231010413443 
0.43999999999996786, -0.41932478204813756 
0.44999999999996676, -0.42087515596808983 
0.45999999999996566, -0.42224634461570176 
0.46999999999996456, -0.42333472713792747 
0.47999999999996346, -0.42410196344639894 
0.48999999999996235, -0.42456246342898163 
0.49999999999996125, -0.4247547054215926 
0.5099999999999602, -0.42471600805198084 
0.519999999999959, -0.424467116516528 
0.529999999999958, -0.4240032960635903 
0.5399999999999568, -0.42328628902020615 
0.5499999999999557, -0.42223269633144767 
0.5599999999999546, -0.4206971987946397 
0.5699999999999535, -0.4184561514657753 
0.5799999999999524, -0.4152143632311929 
0.5899999999999513, -0.41068315748596945 
0.5999999999999502, -0.4047683600715171 
0.6099999999999491, -0.3977841634420274 
0.619999999999948, -0.3904514955330004 
0.6299999999999469, -0.38357849300938274 
0.6399999999999458, -0.37770137967648043 
0.6499999999999447, -0.37298260133136246 
0.6599999999999436, -0.36932935772173603 
0.6699999999999425, -0.36654820138003436 
0.6799999999999414, -0.3644417572042567 
0.6899999999999403, -0.36284793957578276 
0.6999999999999392, -0.36164773246660664 
0.7099999999999381, -0.3607609914687716 
0.719999999999937, -0.3601399094963343 
0.7299999999999359, -0.3597639985783795 
0.7399999999999348, -0.3596379352155584 
0.7499999999999337, -0.35979284068349016 
0.7599999999999326, -0.3602915845285642 
0.7699999999999315, -0.36123901415524917 
0.7799999999999304, -0.36279817473640713 
0.7899999999999293, -0.36521262297738794 
0.7999999999999282, -0.3688302933848485 
0.8099999999999271, -0.37411021809554434 
0.819999999999926, -0.381561544403422 
0.8299999999999249, -0.39152350119518764 
0.8399999999999238, -0.40373478631079773 
0.8499999999999227, -0.4169430011355312 
0.8599999999999216, -0.42918940716136567 
0.8699999999999205, -0.4388953993490106 
0.8799999999999194, -0.4456585409687882 
0.8899999999999183, -0.44999583889975536 
0.8999999999999172, -0.4526673992977301 
0.9099999999999161, -0.45428732995333954 
0.919999999999915, -0.45525463173812125 
0.9299999999999139, -0.4558053464270895 
0.9399999999999128, -0.4560729155607782 
0.9499999999999117, -0.4561289146257259 
0.9599999999999106, -0.4560064620403198 
0.9699999999999095, -0.45571337087508457 
0.9799999999999084, -0.4552410159424215 
0.9899999999999073, -0.45457362324286066 
0.9999999999999062, -0.45370117339501814 
1.0099999999999052, -0.4526353865103486 
1.019999999999904, -0.4514219247565318 
1.029999999999903, -0.4501383464878739 
1.039999999999902, -0.4488743193891184 
1.0499999999999008, -0.4477047024971769 
1.0599999999998997, -0.44667151629454516 
1.0699999999998986, -0.44578185712004903 
1.0799999999998975, -0.44501755616134675 
1.0899999999998964, -0.4443487314438538 
1.0999999999998953, -0.4437454932765104 
1.1099999999998942, -0.4431853031595477 
1.119999999999893, -0.44265612752018885 
1.129999999999892, -0.4421571929891912 
1.1399999999998909, -0.44169963854648514 
1.1499999999998898, -0.4413090504292792 
1.1599999999998887, -0.4410315273557588 
1.1699999999998876, -0.4409450707084811 
1.1799999999998865, -0.44117874100810395 
1.1899999999998854, -0.4419425830363304 
1.1999999999998843, -0.44356979603195795 
1.2099999999998832, -0.4465630605676492 
1.219999999999882, -0.45160518555048457 
1.229999999999881, -0.4594223576440458 
1.2399999999998799, -0.47031643172732746 
1.2499999999998788, -0.48337885561065674 
1.2599999999998777, -0.4961931976119197 
1.2699999999998766, -0.5061503200463671 
1.2799999999998755, -0.5123609240760938 
1.2899999999998744, -0.5157230547484203 
1.2999999999998733, -0.5175378204814923 
1.3099999999998722, -0.5186507436659669 
1.319999999999871, -0.5194382531917082 
1.32999999999987, -0.5200335831097882 
1.3399999999998689, -0.5204802174835126 
1.3499999999998678, -0.5207956539479959 
1.3599999999998666, -0.520990320826794 
1.3699999999998655, -0.5210706694891998 
1.3799999999998644, -0.5210383234910003 
1.3899999999998633, -0.5208892798341686 
1.3999999999998622, -0.5206146964066232 
1.4099999999998611, -0.5202043625208899 
1.41999999999986, -0.519653495774774 
1.429999999999859, -0.5189716471782322 
1.4399999999998578, -0.5181892707345648 
1.4499999999998567, -0.5173559438738276 
1.4599999999998556, -0.5165282188700558 
1.4699999999998545, -0.5157528297412226 
1.4799999999998534, -0.5150545940559164 
1.4899999999998523, -0.5144343131235887 
1.4999999999998512, -0.5138754182563015 
1.5099999999998501, -0.5133544851815517 
1.519999999999849, -0.512850713422656 
1.529999999999848, -0.5123516384522104 
1.5399999999998468, -0.5118551770354902 
1.5499999999998457, -0.5113700333342144 
1.5599999999998446, -0.5109168584479038 
1.5699999999998435, -0.510532030007947 
1.5799999999998424, -0.5102754938538102 
1.5899999999998413, -0.5102442187823921 
1.5999999999998402, -0.5105932878087128 
1.6099999999998391, -0.511566790071927 
1.619999999999838, -0.513538672380499 
1.629999999999837, -0.5170548918078388 
1.6399999999998358, -0.5228427622919223 
1.6499999999998347, -0.5317007506393233 
1.6599999999998336, -0.5441299019520579 
1.6699999999998325, -0.5596799995849303 
1.6799999999998314, -0.5764879018091463 
1.6899999999998303, -0.591893316627179 
1.6999999999998292, -0.603981540344812 
1.709999999999828, -0.6124210601229788 
1.719999999999827, -0.617933956101532 
1.729999999999826, -0.6214418758679587 
1.7399999999998248, -0.6236587112141708 
1.7499999999998237, -0.6250484843455235 
1.7599999999998226, -0.6258947713655284 
1.7699999999998215, -0.6263670674700086 
1.7799999999998204, -0.6265631971464725 
1.7899999999998193, -0.6265329807865669 
1.7999999999998182, -0.626290167457131 
1.809999999999817, -0.6258175329036517 
1.819999999999816, -0.6250691895367371 
1.8299999999998149, -0.6239753479373473 
1.8399999999998138, -0.6224570482448851 
1.8499999999998127, -0.6204574929277704 
1.8599999999998116, -0.6179852825707863 
1.8699999999998105, -0.6151442334927663 
1.8799999999998094, -0.6121187112972717 
1.8899999999998083, -0.6091150954376796 
1.8999999999998072, -0.6062994332417773 
1.909999999999806, -0.6037686590923604 
1.919999999999805, -0.6015578154566771 
1.9299999999998039, -0.5996634873911227 
1.9399999999998028, -0.5980660122692081 
1.9499999999998017, -0.5967437200650261 
1.9599999999998006, -0.5956795855452128 
1.9699999999997995, -0.5948629689005818 
1.9799999999997984, -0.5942889420871253 
1.9899999999997973, -0.5939568789082219 
1.9999999999997962, -0.5938692806308496 
2.0099999999998173, -0.5940313371281369 
2.0199999999998384, -0.5944513894200735 
2.0299999999998595, -0.5951421476584694 
2.0399999999998806, -0.5961221281791117 
2.0499999999999017, -0.5974161905517021 
2.059999999999923, -0.5990531908896746 
2.069999999999944, -0.6010577839066659 
2.079999999999965, -0.6034332329391611 
2.089999999999986, -0.6061350320425145 
2.100000000000007, -0.6090441422374242 
2.1100000000000283, -0.6119616273675474 
2.1200000000000494, -0.6146475509805448 
2.1300000000000705, -0.616897039437217 
2.1400000000000916, -0.618605246871534 
2.1500000000001127, -0.6197766804495448 
2.160000000000134, -0.6204852028057452 
2.170000000000155, -0.6208238956625801 
2.180000000000176, -0.6208717253064026 
2.190000000000197, -0.6206793294641298 
2.2000000000002182, -0.6202650465778583 
2.2100000000002393, -0.6196125737055858 
2.2200000000002604, -0.6186644549626543 
2.2300000000002815, -0.6173067385738036 
2.2400000000003026, -0.6153392353716198 
2.2500000000003237, -0.6124250932532381 
2.260000000000345, -0.6080218032537745 
2.270000000000366, -0.6013389072432346 
2.280000000000387, -0.5914759079994552 
2.290000000000408, -0.5779666334420851 
2.3000000000004293, -0.5615889081547318 
2.3100000000004504, -0.5445095108027711 
2.3200000000004715, -0.5291688258228866 
2.3300000000004926, -0.5169965531790621 
2.3400000000005137, -0.5081705932373405 
2.3500000000005348, -0.5021473832120089 
2.360000000000556, -0.4982011207712763 
2.370000000000577, -0.49569380703468935 
2.380000000000598, -0.4941466633365573 
2.390000000000619, -0.4932264602736872 
2.4000000000006403, -0.49271018420461654 
2.4100000000006614, -0.49245191837053365 
2.4200000000006825, -0.49235776631625916 
2.4300000000007036, -0.49236852697204825 
2.4400000000007247, -0.4924484656751559 
2.450000000000746, -0.4925786211391857 
2.460000000000767, -0.49275335905673395 
2.470000000000788, -0.49297884041047857 
2.480000000000809, -0.49327164529259415 
2.49000000000083, -0.4936553698504005 
2.5000000000008513, -0.49415335016540124 
2.5100000000008724, -0.49477732401081587 
2.5200000000008935, -0.49551471820986326 
2.5300000000009146, -0.4963205493457359 
2.5400000000009357, -0.49712130854641645 
2.550000000000957, -0.4978334933816749 
2.560000000000978, -0.498388582413629 
2.570000000000999, -0.498749484430975 
2.58000000000102, -0.49891024282964025 
2.5900000000010412, -0.4988836451352981 
2.6000000000010624, -0.49868653829138604 
2.6100000000010835, -0.49832866982988994 
2.6200000000011046, -0.49780523057403114 
2.6300000000011257, -0.4970902451619706 
2.6400000000011468, -0.4961267576240214 
2.650000000001168, -0.4948081974967738 
2.660000000001189, -0.49294198646525356 
2.67000000000121, -0.4901829739330695 
2.680000000001231, -0.48593427530991135 
2.6900000000012523, -0.4792810879025723 
2.7000000000012734, -0.46919636031666795 
2.7100000000012945, -0.4553194489179063 
2.7200000000013156, -0.43890003205942535 
2.7300000000013367, -0.42253277439806275 
2.740000000001358, -0.40853578861146633 
2.750000000001379, -0.39783825776453907 
2.7600000000014, -0.39021313700546234 
2.770000000001421, -0.38497781008611914 
2.780000000001442, -0.3814472480638046 
2.7900000000014633, -0.3790885076387927 
2.8000000000014844, -0.3775282674412459 
2.8100000000015055, -0.37651748725993595 
2.8200000000015266, -0.3758945022335264 
2.8300000000015477, -0.375557182621747 
2.840000000001569, -0.3754443909800184 
2.85000000000159, -0.37552463661701496 
2.860000000001611, -0.37578993355843077 
2.870000000001632, -0.3762533980180941 
2.8800000000016532, -0.37694941419344363 
2.8900000000016743, -0.37793497209117954 
2.9000000000016954, -0.37928978453575607 
2.9100000000017165, -0.38111071944983843 
2.9200000000017377, -0.3834930079688448 
2.9300000000017588, -0.3864890573533559 
2.94000000000178, -0.3900441221197233 
2.950000000001801, -0.39393811565311604 
2.960000000001822, -0.39779925312545916 
2.970000000001843, -0.4012291537870379 
2.9800000000018643, -0.4039651592675022 
2.9900000000018854, -0.4059483311297562 
3.0000000000019065, -0.4072687584459856 
3.0100000000019276, -0.4080700815075615 
3.0200000000019487, -0.40848375164647033 
3.03000000000197, -0.40860350199657314 
3.040000000001991, -0.4084823992651031 
3.050000000002012, -0.4081366648263402 
3.060000000002033, -0.40754911618454714 
3.070000000002054, -0.40667161222516535 
3.0800000000020753, -0.40543079113673663 
3.0900000000020964, -0.40374577892530805 
3.1000000000021175, -0.40156652720016484 
3.1100000000021386, -0.39892704678781865 
3.1200000000021597, -0.39597880199440727 
3.130000000002181, -0.3929612075049869 
3.140000000002202, -0.39011512864230846 
3.150000000002223, -0.3876029780557027 
3.160000000002244, -0.3854852751353349 
3.1700000000022652, -0.3837454048020312 
3.1800000000022863, -0.38232801699310814 
3.1900000000023074, -0.3811688705091141 
3.2000000000023285, -0.3802116038784346 
3.2100000000023496, -0.379414837600944 
3.2200000000023707, -0.3787540868250435 
3.230000000002392, -0.3782219654618101 
3.240000000002413, -0.37782907157647083 
3.250000000002434, -0.3776072553278872 
3.260000000002455, -0.3776168195720736 
3.2700000000024763, -0.3779596040257314 
3.2800000000024974, -0.37880069706935965 
3.2900000000025185, -0.38040203010735596 
3.3000000000025396, -0.3831689216018002 
3.3100000000025607, -0.387698352288514 
3.3200000000025818, -0.3947778740999032 
3.330000000002603, -0.4051966299712828 
3.340000000002624, -0.4191586932520924 
3.350000000002645, -0.43538702630406406 
3.360000000002666, -0.4509727463116889 
3.3700000000026873, -0.4630719081054092 
3.3800000000027084, -0.4708669387045397 
3.3900000000027295, -0.4753550234595402 
3.4000000000027506, -0.4778923246391556 
3.4100000000027717, -0.47940415998569524 
3.420000000002793, -0.48037031933127955 
3.430000000002814, -0.48101514904844916 
3.440000000002835, -0.481444613678608 
3.450000000002856, -0.48171252854490065 
3.460000000002877, -0.4818477601078485 
3.4700000000028983, -0.48186475955425373 
3.4800000000029194, -0.48176797045765196 
3.4900000000029405, -0.4815547383969129 
3.5000000000029616, -0.4812191223246843 
3.5100000000029827, -0.48075796738878795 
3.520000000003004, -0.4801789845419783 
3.530000000003025, -0.47950776138386153 
3.540000000003046, -0.47878841091407615 
3.550000000003067, -0.4780745761336627 
3.5600000000030882, -0.47741401781032866 
3.5700000000031094, -0.47683498678952957 
3.5800000000031305, -0.47634092227071934 
3.5900000000031516, -0.4759143931296113 
3.6000000000031727, -0.4755268802182191 
3.6100000000031938, -0.4751495317329536 
3.620000000003215, -0.47476083630825494 
3.630000000003236, -0.47434967838080677 
3.640000000003257, -0.47391503362668763 
3.650000000003278, -0.4734649173889645 
3.6600000000032993, -0.47301695077570194 
3.6700000000033204, -0.472602210327101 
3.6800000000033415, -0.472273842523202 
3.6900000000033626, -0.47212239784586807 
3.7000000000033837, -0.47230037744412606 
3.710000000003405, -0.4730572719219526 
3.720000000003426, -0.47477827635502584 
3.730000000003447, -0.4779928832900895 
3.740000000003468, -0.4832586503216622 
3.750000000003489, -0.490765140969998 
3.7600000000035103, -0.49967322289370336 
3.7700000000035314, -0.5078996940980989 
3.7800000000035525, -0.5133480822874084 
3.7900000000035736, -0.5156304696990169 
3.8000000000035947, -0.5159591685486915 
3.810000000003616, -0.5156749683099647 
3.820000000003637, -0.5154579336392596 
3.830000000003658, -0.5154572805951569 
3.840000000003679, -0.5156113636902588 
3.8500000000037002, -0.5158272226913849 
3.8600000000037213, -0.5160366211870341 
3.8700000000037424, -0.5161996823391518 
3.8800000000037635, -0.5162951560154493 
3.8900000000037847, -0.5163108940029721 
3.9000000000038058, -0.5162375907264998 
3.910000000003827, -0.5160659522660338 
3.920000000003848, -0.515787214010863 
3.930000000003869, -0.5153969839464938 
3.94000000000389, -0.514901477153361 
3.9500000000039113, -0.5143230448049246 
3.9600000000039324, -0.5137002240434123 
3.9700000000039535, -0.5130794606917359 
3.9800000000039746, -0.5125013431388401 
3.9900000000039957, -0.511988549501943 
4.000000000004016, -0.5115414279600616 
4.010000000003993, -0.511142194972292 
4.02000000000397, -0.5107645213896668 
4.030000000003946, -0.5103836281703158 
4.040000000003923, -0.5099829982182171 
4.0500000000039, -0.5095566603548342 
4.0600000000038765, -0.5091087568240171 
4.070000000003853, -0.5086531265218525 
4.08000000000383, -0.5082151756436646 
4.090000000003807, -0.507837658158495 
4.100000000003783, -0.5075919716015667 
4.11000000000376, -0.507597189790073 
4.120000000003737, -0.5080496858015005 
4.130000000003713, -0.5092651726083532 
4.14000000000369, -0.5117277388180062 
4.150000000003667, -0.5161163798301909 
4.1600000000036434, -0.5232239468033145 
4.17000000000362, -0.5336150872579092 
4.180000000003597, -0.5469563275883169 
4.1900000000035735, -0.5614872313836047 
4.20000000000355, -0.5746307742212584 
4.210000000003527, -0.5846372405115953 
4.220000000003504, -0.5914024267494231 
4.23000000000348, -0.5957670109655402 
4.240000000003457, -0.5986017783892432 
4.250000000003434, -0.6004852827783169 
4.26000000000341, -0.601750673450004 
4.270000000003387, -0.6025896345679389 
4.280000000003364, -0.6031180249640034 
4.2900000000033405, -0.6034075110160744 
4.300000000003317, -0.603499791502921 
4.310000000003294, -0.6034130052407058 
4.320000000003271, -0.6031446534149234 
4.330000000003247, -0.6026735671143288 
4.340000000003224, -0.6019637605883379 
4.350000000003201, -0.6009739890205656 
4.360000000003177, -0.5996760064297565 
4.370000000003154, -0.5980785365044238 
4.380000000003131, -0.5962437847901129 
4.390000000003107, -0.594280343647885 
4.400000000003084, -0.5923115589547036 
4.410000000003061, -0.5904392963403222 
4.4200000000030375, -0.5887246488447972 
4.430000000003014, -0.5871900633358853 
4.440000000002991, -0.5858333534404883 
4.450000000002968, -0.5846428359418858 
4.460000000002944, -0.5836081323004192 
4.470000000002921, -0.5827259442769699 
4.480000000002898, -0.582002275480508 
4.490000000002874, -0.5814528098575613 
4.500000000002851, -0.5811026182733947 
4.510000000002828, -0.5809858139460211 
4.520000000002804, -0.5811454832662111 
4.530000000002781, -0.5816341094747857 
4.540000000002758, -0.5825145723926437 
4.5500000000027345, -0.5838613973329001 
4.560000000002711, -0.585760956546712 
4.570000000002688, -0.5883074947442927 
4.580000000002665, -0.5915891092095784 
4.590000000002641, -0.59565545269747 
4.600000000002618, -0.6004619366400502 
4.610000000002595, -0.6058033455354166 
4.620000000002571, -0.6112856401199486 
4.630000000002548, -0.6164019537255869 
4.640000000002525, -0.6207110207675257 
4.6500000000025015, -0.6239970851982004 
4.660000000002478, -0.6262896881183931 
4.670000000002455, -0.6277632553299127 
4.6800000000024315, -0.6286226621663322 
4.690000000002408, -0.6290376379961314 
4.700000000002385, -0.6291231587386565 
4.710000000002362, -0.6289413500085577 
4.720000000002338, -0.6285067968669855 
4.730000000002315, -0.6277864640655698 
4.740000000002292, -0.6266899866919774 
4.750000000002268, -0.6250474032066836 
4.760000000002245, -0.6225738921811594 
4.770000000002222, -0.6188332021687393 
4.7800000000021985, -0.6132467594159481 
4.790000000002175, -0.6052497117805974 
4.800000000002152, -0.5946728122121957 
4.810000000002129, -0.582161754995187 
4.820000000002105, -0.5691354511319313 
4.830000000002082, -0.5571283453549234 
4.840000000002059, -0.5471151526577229 
4.850000000002035, -0.5393567306599186 
4.860000000002012, -0.5336431117209147 
4.870000000001989, -0.529582419354286 
4.880000000001965, -0.526776125485541 
4.890000000001942, -0.5248889402500776 
