t, s[1].omega / s[0].omega 
0, -0.6198261495000482 
0.009999999999999995, -0.6029361210252154 
0.019999999999999934, -0.5883907739900642 
0.029999999999999874, -0.5772559714860324 
0.04000000000000012, -0.5694594362095653 
0.050000000000000405, -0.5643490983193259 
0.06000000000000069, -0.5611690753878493 
0.07000000000000098, -0.5592817038556761 
0.08000000000000126, -0.5582186092714292 
0.09000000000000155, -0.5576602618319496 
0.10000000000000184, -0.557398035134223 
0.11000000000000212, -0.5572993959922674 
0.12000000000000241, -0.5572814470689457 
0.130000000000002, -0.5572926072380382 
0.1400000000000009, -0.5573009179792029 
0.1499999999999998, -0.5572875366531784 
0.1599999999999987, -0.5572441921740696 
0.1699999999999976, -0.557173129472673 
0.1799999999999965, -0.5570872830989239 
0.1899999999999954, -0.55700789610747 
0.1999999999999943, -0.5569578812982873 
0.2099999999999932, -0.5569521550708066 
0.2199999999999921, -0.5569890870461277 
0.229999999999991, -0.5570477926835757 
0.2399999999999899, -0.5570935489051161 
0.2499999999999888, -0.5570891267265161 
0.2599999999999877, -0.5570060700737516 
0.2699999999999866, -0.5568303705730493 
0.2799999999999855, -0.5565615405153546 
0.2899999999999844, -0.5562083613102372 
0.2999999999999833, -0.5557853941417672 
0.3099999999999822, -0.5553128243472184 
0.3199999999999811, -0.554820908164551 
0.32999999999998, -0.5543602636534058 
0.3399999999999789, -0.5540201567954414 
0.3499999999999778, -0.5539577933489805 
0.35999999999997667, -0.5544403500967201 
0.36999999999997557, -0.5558927692847292 
0.37999999999997447, -0.5589169648121952 
0.38999999999997337, -0.564190980526327 
0.39999999999997227, -0.5721079793471687 
0.40999999999997117, -0.5821694600618474 
0.41999999999997006, -0.5927029522021708 
0.42999999999996896, -0.6016988588345409 
0.43999999999996786, -0.6081837976614881 
0.44999999999996676, -0.6124742397177595 
0.45999999999996566, -0.6153378264744488 
0.46999999999996456, -0.6173509559875426 
0.47999999999996346, -0.6188158826674838 
0.48999999999996235, -0.6198807314207014 
0.49999999999996125, -0.6206309476936128 
0.5099999999999602, -0.6211261481084065 
0.519999999999959, -0.621409701729919 
0.529999999999958, -0.6215097203526325 
0.5399999999999568, -0.6214382931552094 
0.5499999999999557, -0.6211906875646397 
0.5599999999999546, -0.6207453393514502 
0.5699999999999535, -0.6200664367217967 
0.5799999999999524, -0.6191123192040122 
0.5899999999999513, -0.6178525537631272 
0.5999999999999502, -0.616291226366377 
0.6099999999999491, -0.6144842088837599 
0.619999999999948, -0.612534395725602 
0.6299999999999469, -0.6105624796157594 
0.6399999999999458, -0.6086714132023295 
0.6499999999999447, -0.6069259976982863 
0.6599999999999436, -0.6053533595561877 
0.6699999999999425, -0.6039558070237255 
0.6799999999999414, -0.6027254636792293 
0.6899999999999403, -0.6016549445769368 
0.6999999999999392, -0.6007430983741253 
0.7099999999999381, -0.5999971085849789 
0.719999999999937, -0.5994325762185738 
0.7299999999999359, -0.5990727365705659 
0.7399999999999348, -0.5989474722600978 
0.7499999999999337, -0.5990925291709847 
0.7599999999999326, -0.599549237852576 
0.7699999999999315, -0.6003648877594565 
0.7799999999999304, -0.6015934932107767 
0.7899999999999293, -0.6032958439607696 
0.7999999999999282, -0.6055362954450638 
0.8099999999999271, -0.608371808474866 
0.819999999999926, -0.6118273814520134 
0.8299999999999249, -0.6158548137584858 
0.8399999999999238, -0.6202850547617891 
0.8499999999999227, -0.6248090567914715 
0.8599999999999216, -0.6290331881592698 
0.8699999999999205, -0.632609121710399 
0.8799999999999194, -0.635355241342274 
0.8899999999999183, -0.6372797849550743 
0.8999999999999172, -0.6385112669979915 
0.9099999999999161, -0.6392103229178852 
0.919999999999915, -0.6395141649239355 
0.9299999999999139, -0.6395165871300252 
0.9399999999999128, -0.6392663954822541 
0.9499999999999117, -0.638769545222837 
0.9599999999999106, -0.6379868360058276 
0.9699999999999095, -0.6368224315700799 
0.9799999999999084, -0.6350989253683565 
0.9899999999999073, -0.6325152890152299 
0.9999999999999062, -0.6285926530396555 
1.0099999999999052, -0.6226474477089872 
1.019999999999904, -0.6139080974040736 
1.029999999999903, -0.6019357992463207 
1.039999999999902, -0.5872570386109504 
1.0499999999999008, -0.571559777014289 
1.0599999999998997, -0.5569368852182472 
1.0699999999998986, -0.5448295734482195 
1.0799999999998975, -0.535655428084517 
1.0899999999998964, -0.5291202582132908 
1.0999999999998953, -0.5246601073301677 
1.1099999999998942, -0.5217136117313157 
1.119999999999893, -0.5198246986933192 
1.129999999999892, -0.5186557561680861 
1.1399999999998909, -0.5179686821313163 
1.1499999999998898, -0.5176002263135926 
1.1599999999998887, -0.5174406619485657 
1.1699999999998876, -0.517417672582417 
1.1799999999998865, -0.5174850454004893 
1.1899999999998854, -0.5176153001977805 
1.1999999999998843, -0.517795399242296 
1.2099999999998832, -0.51802458874131 
1.219999999999882, -0.5183129987594368 
1.229999999999881, -0.5186790558695129 
1.2399999999998799, -0.5191436911092251 
1.2499999999998788, -0.5197204984677259 
1.2599999999998777, -0.5204035766776975 
1.2699999999998766, -0.5211580595273421 
1.2799999999998755, -0.5219203645374704 
1.2899999999998744, -0.5226123551588172 
1.2999999999998733, -0.523164384875533 
1.3099999999998722, -0.5235338630612347 
1.319999999999871, -0.5237090415135809 
1.32999999999987, -0.5236995372945388 
1.3399999999998689, -0.5235224999713346 
1.3499999999998678, -0.5231913836057954 
1.3599999999998666, -0.5227089169738907 
1.3699999999998655, -0.522062464673691 
1.3799999999998644, -0.5212188463633589 
1.3899999999998633, -0.5201148536919592 
1.3999999999998622, -0.5186371645850061 
1.4099999999998611, -0.5165795940758771 
1.41999999999986, -0.5135589395302526 
1.429999999999859, -0.5088852306399142 
1.4399999999998578, -0.5014899166855267 
1.4499999999998567, -0.490263604953979 
1.4599999999998556, -0.4751135118703417 
1.4699999999998545, -0.4578950301601791 
1.4799999999998534, -0.44158510831331255 
1.4899999999998523, -0.4283342198871537 
1.4999999999998512, -0.4186693220109965 
1.5099999999998501, -0.4120691983547474 
1.519999999999849, -0.40772380403035935 
1.529999999999848, -0.40492037570945555 
1.5399999999998468, -0.40313820560131874 
1.5499999999998457, -0.40202647199740305 
1.5599999999998446, -0.40135762752321835 
1.5699999999998435, -0.40098717881592005 
1.5799999999998424, -0.40082534711300344 
1.5899999999998413, -0.4008188012324487 
1.5999999999998402, -0.4009396402379009 
1.6099999999998391, -0.40117936364089235 
1.619999999999838, -0.401546162250769 
1.629999999999837, -0.4020640434901753 
1.6399999999998358, -0.40277198405591025 
1.6499999999998347, -0.4037205921178354 
1.6599999999998336, -0.4049629682764396 
1.6699999999998325, -0.4065363391919828 
1.6799999999998314, -0.40843374696213103 
1.6899999999998303, -0.41057421372126857 
1.6999999999998292, -0.41279393094681466 
1.709999999999828, -0.41488225185121647 
1.719999999999827, -0.416654021098806 
1.729999999999826, -0.41800938861998854 
1.7399999999998248, -0.4189411738875948 
1.7499999999998237, -0.4194997310944425 
1.7599999999998226, -0.4197509135576564 
1.7699999999998215, -0.4197484329830168 
1.7799999999998204, -0.41952105734944506 
1.7899999999998193, -0.4190670028309448 
1.7999999999998182, -0.4183489088950262 
1.809999999999817, -0.4172863607869104 
1.819999999999816, -0.415747798959418 
1.8299999999998149, -0.41355236894420305 
1.8399999999998138, -0.4105053630526361 
1.8499999999998127, -0.40649334189186936 
1.8599999999998116, -0.4016189499712611 
1.8699999999998105, -0.3962632937699223 
1.8799999999998094, -0.3909643447087029 
1.8899999999998083, -0.38618376980339153 
1.8999999999998072, -0.3821597298996735 
1.909999999999806, -0.37891930910468336 
1.919999999999805, -0.37636966233918284 
1.9299999999998039, -0.3743802412290714 
1.9399999999998028, -0.3728286420694365 
1.9499999999998017, -0.37161818458044577 
1.9599999999998006, -0.3706809777120208 
1.9699999999997995, -0.36997571343389324 
1.9799999999997984, -0.36948493565378926 
1.9899999999997973, -0.3692139907039494 
1.9999999999997962, -0.3691928005681312 
2.0099999999998173, -0.3694814062745014 
2.0199999999998384, -0.3701805160834308 
2.0299999999998595, -0.37144871412890834 
2.0399999999998806, -0.3735278212248362 
2.0499999999999017, -0.3767750842275031 
2.059999999999923, -0.381689940030421 
2.069999999999944, -0.38889316917399663 
2.079999999999965, -0.3989604931495283 
2.089999999999986, -0.4119868080994341 
2.100000000000007, -0.4269797840888928 
2.1100000000000283, -0.441765067076457 
2.1200000000000494, -0.4540684408602587 
2.1300000000000705, -0.4628798856183482 
2.1400000000000916, -0.46857523811486435 
2.1500000000001127, -0.4720774771692363 
2.160000000000134, -0.4742042867547882 
2.170000000000155, -0.4754965510797101 
2.180000000000176, -0.4762723586277426 
2.190000000000197, -0.4767110371369644 
2.2000000000002182, -0.47691146374712157 
2.2100000000002393, -0.47692502278724486 
2.2200000000002604, -0.47677309404475404 
2.2300000000002815, -0.47645687278863147 
2.2400000000003026, -0.4759648882932603 
2.2500000000003237, -0.475282203679335 
2.260000000000345, -0.4744034431893406 
2.270000000000366, -0.4733475428383418 
2.280000000000387, -0.47216628964930124 
2.290000000000408, -0.47093765549389416 
2.3000000000004293, -0.46974417088445203 
2.3100000000004504, -0.4686487972837942 
2.3200000000004715, -0.4676818957997404 
2.3300000000004926, -0.4668428389175735 
2.3400000000005137, -0.4661108460332655 
2.3500000000005348, -0.4654578531382582 
2.360000000000556, -0.46485866480448246 
2.370000000000577, -0.464296729908298 
2.380000000000598, -0.4637663407027729 
2.390000000000619, -0.46327335855144103 
2.4000000000006403, -0.46283668660812954 
2.4100000000006614, -0.4624922827838823 
2.4200000000006825, -0.46230128362778844 
2.4300000000007036, -0.4623641126727038 
2.4400000000007247, -0.46284311121446287 
2.450000000000746, -0.4639964602497737 
2.460000000000767, -0.46622351514981347 
2.470000000000788, -0.4701094167140905 
2.480000000000809, -0.47642070497311434 
2.49000000000083, -0.4859313955313046 
2.5000000000008513, -0.4989110988748502 
2.5100000000008724, -0.5143570086897414 
2.5200000000008935, -0.5297989791071422 
2.5300000000009146, -0.5425883078489357 
2.5400000000009357, -0.5516031891613661 
2.550000000000957, -0.5573672540287671 
2.560000000000978, -0.5609579719478316 
2.570000000000999, -0.5632385421017233 
2.58000000000102, -0.5647275837356317 
2.5900000000010412, -0.5657102993034533 
2.6000000000010624, -0.5663457484845253 
2.6100000000010835, -0.566726510552914 
2.6200000000011046, -0.566906714024698 
2.6300000000011257, -0.5669146701535146 
2.6400000000011468, -0.5667586891941475 
2.650000000001168, -0.5664303161031929 
2.660000000001189, -0.5659079268195395 
2.67000000000121, -0.5651637336073456 
2.680000000001231, -0.5641767552255427 
2.6900000000012523, -0.5629506733633414 
2.7000000000012734, -0.5615283380603959 
2.7100000000012945, -0.559990526692242 
2.7200000000013156, -0.5584347176749381 
2.7300000000013367, -0.5569458220510891 
2.740000000001358, -0.5555767459911004 
2.750000000001379, -0.5543463494604859 
2.7600000000014, -0.5532497042146887 
2.770000000001421, -0.5522716810262766 
2.780000000001442, -0.5513979002419042 
2.7900000000014633, -0.5506213056948768 
2.8000000000014844, -0.5499453143699178 
2.8100000000015055, -0.5493853554233248 
2.8200000000015266, -0.5489703031650132 
2.8300000000015477, -0.5487446497821609 
2.840000000001569, -0.5487717697981445 
2.85000000000159, -0.54913840473961 
2.860000000001611, -0.5499603766689115 
2.870000000001632, -0.5513891734866713 
2.8800000000016532, -0.5536178208849143 
2.8900000000016743, -0.5568813025475198 
2.9000000000016954, -0.5614403142655553 
2.9100000000017165, -0.5675274199075763 
2.9200000000017377, -0.5752300065282437 
2.9300000000017588, -0.5843127315547696 
2.94000000000178, -0.5940777699019699 
2.950000000001801, -0.6034633337102351 
2.960000000001822, -0.6114590132760723 
2.970000000001843, -0.6175440460519611 
2.9800000000018643, -0.6217686377161822 
2.9900000000018854, -0.6245079833324846 
3.0000000000019065, -0.6261895551405166 
3.0100000000019276, -0.6271558326271618 
3.0200000000019487, -0.6276383375403204 
3.03000000000197, -0.6277760276974248 
3.040000000001991, -0.6276387148391539 
3.050000000002012, -0.6272420885161887 
3.060000000002033, -0.6265520185278011 
3.070000000002054, -0.6254789752742618 
3.0800000000020753, -0.6238656010014274 
3.0900000000020964, -0.6214771493998963 
3.1000000000021175, -0.6180195693449718 
3.1100000000021386, -0.6132254551364483 
3.1200000000021597, -0.6070244791799642 
3.130000000002181, -0.5997107043193068 
3.140000000002202, -0.5919275649876006 
3.150000000002223, -0.5844184966896753 
3.160000000002244, -0.5777421407068006 
3.1700000000022652, -0.572159270866121 
3.1800000000022863, -0.5676891785524293 
3.1900000000023074, -0.5642199368684728 
3.2000000000023285, -0.5615945412910002 
3.2100000000023496, -0.5596573259876612 
3.2200000000023707, -0.5582723014165678 
3.230000000002392, -0.5573271665232835 
3.240000000002413, -0.5567317125907014 
3.250000000002434, -0.5564148410608303 
3.260000000002455, -0.5563218194090424 
3.2700000000024763, -0.5564122083081829 
3.2800000000024974, -0.5566584674506119 
3.2900000000025185, -0.5570451207696493 
3.3000000000025396, -0.5575682141074843 
3.3100000000025607, -0.5582344192976751 
3.3200000000025818, -0.5590584998507937 
3.330000000002603, -0.5600572763310036 
3.340000000002624, -0.5612384929020545 
3.350000000002645, -0.5625851763807698 
3.360000000002666, -0.5640408660453254 
3.3700000000026873, -0.565506559087807 
3.3800000000027084, -0.5668593314165971 
3.3900000000027295, -0.5679886889088296 
3.4000000000027506, -0.5688291291747288 
3.4100000000027717, -0.5693683715247186 
3.420000000002793, -0.569631562711254 
3.430000000002814, -0.5696574148539562 
3.440000000002835, -0.5694795473542766 
3.450000000002856, -0.5691160785144971 
3.460000000002877, -0.5685642657302321 
3.4700000000028983, -0.5677957423523752 
3.4800000000029194, -0.5667481966239736 
3.4900000000029405, -0.5653085948026344 
3.5000000000029616, -0.5632801714833224 
3.5100000000029827, -0.5603217039177802 
3.520000000003004, -0.5558545932023187 
3.530000000003025, -0.5489917920087711 
3.540000000003046, -0.538705853213239 
3.550000000003067, -0.5245506244439834 
3.5600000000030882, -0.5076439028484402 
3.5700000000031094, -0.49058143440058705 
3.5800000000031305, -0.47587459761430895 
3.5900000000031516, -0.46465933392655795 
3.6000000000031727, -0.45678447443102155 
3.6100000000031938, -0.45152987939835676 
3.620000000003215, -0.44813159245450224 
3.630000000003236, -0.4459821432079026 
3.640000000003257, -0.4446527060737561 
3.650000000003278, -0.44385705734002306 
3.6600000000032993, -0.4434094724111013 
3.6700000000033204, -0.443191558403018 
3.6800000000033415, -0.4431293740359129 
3.6900000000033626, -0.4431787069256973 
3.7000000000033837, -0.4433162038327703 
3.710000000003405, -0.443534566646459 
3.720000000003426, -0.4438403584393155 
3.730000000003447, -0.44425285873133735 
3.740000000003468, -0.44480195943378664 
3.750000000003489, -0.44552272408908183 
3.7600000000035103, -0.4464445595706474 
3.7700000000035314, -0.4475746826785863 
3.7800000000035525, -0.448879662357841 
3.7900000000035736, -0.4502751880297825 
3.8000000000035947, -0.4516372811953791 
3.810000000003616, -0.4528376500259076 
3.820000000003637, -0.4537843537565913 
3.830000000003658, -0.45444118100112973 
3.840000000003679, -0.45481806161192545 
3.8500000000037002, -0.45494680321889636 
3.8600000000037213, -0.45485874158995354 
3.8700000000037424, -0.4545703103994986 
3.8800000000037635, -0.4540739761190077 
3.8900000000037847, -0.4533292802192458 
3.9000000000038058, -0.4522488726128091 
3.910000000003827, -0.4506754292043639 
3.920000000003848, -0.44834951166434267 
3.930000000003869, -0.4448844509077389 
3.94000000000389, -0.43980404215361507 
3.9500000000039113, -0.4327402290758838 
3.9600000000039324, -0.4238023862408841 
3.9700000000039535, -0.413818586220168 
3.9800000000039746, -0.40404104913127936 
3.9900000000039957, -0.39549830146739773 
4.000000000004016, -0.38862942126482825 
4.010000000003993, -0.3833830895915739 
4.02000000000397, -0.3794821936838165 
4.030000000003946, -0.3766148463148262 
4.040000000003923, -0.3745170202930157 
4.0500000000039, -0.37299098071145437 
4.0600000000038765, -0.3718985233102335 
4.070000000003853, -0.37114853669874964 
4.08000000000383, -0.37068615479768363 
4.090000000003807, -0.3704854417223454 
4.100000000003783, -0.3705457720087745 
4.11000000000376, -0.370891730697454 
4.120000000003737, -0.3715764838211967 
4.130000000003713, -0.37268866495098907 
4.14000000000369, -0.3743623834988981 
4.150000000003667, -0.37678799402810964 
4.1600000000036434, -0.3802157226687578 
4.17000000000362, -0.3849321789710105 
4.180000000003597, -0.39117249398525084 
4.1900000000035735, -0.3989327474643529 
4.20000000000355, -0.40773465127112923 
4.210000000003527, -0.41658074477584384 
4.220000000003504, -0.42433916641378466 
4.23000000000348, -0.43032037403124124 
4.240000000003457, -0.4344837036614785 
4.250000000003434, -0.4371877664879268 
4.26000000000341, -0.43886599316379343 
4.270000000003387, -0.4398637037928189 
4.280000000003364, -0.4404110144070007 
4.2900000000033405, -0.4406465904665115 
4.300000000003317, -0.440646037281072 
4.310000000003294, -0.440442100944037 
4.320000000003271, -0.44003712212219454 
4.330000000003247, -0.4394118073264569 
4.340000000003224, -0.43853539763310456 
4.350000000003201, -0.43738203309604184 
4.360000000003177, -0.43595408193619567 
4.370000000003154, -0.434303501191678 
4.380000000003131, -0.4325338732382238 
4.390000000003107, -0.4307737441353229 
4.400000000003084, -0.429135576293466 
4.410000000003061, -0.4276868521253057 
4.4200000000030375, -0.42644596600918483 
4.430000000003014, -0.42539581042149743 
4.440000000002991, -0.42450211423940665 
4.450000000002968, -0.4237284125307087 
4.460000000002944, -0.4230452422618459 
4.470000000002921, -0.42243437763980946 
4.480000000002898, -0.4218902381409416 
4.490000000002874, -0.4214208060528179 
4.500000000002851, -0.42105003281629677 
4.510000000002828, -0.42082337712299234 
4.520000000002804, -0.4208182115544822 
4.530000000002781, -0.42116142464549516 
4.540000000002758, -0.4220572548480933 
4.5500000000027345, -0.4238277901536608 
4.560000000002711, -0.4269621276348878 
4.570000000002688, -0.43214610976834156 
4.580000000002665, -0.4401827637684189 
4.590000000002641, -0.4516233413111374 
4.600000000002618, -0.4659994665887252 
4.610000000002595, -0.48119447004155996 
4.620000000002571, -0.4942341121185409 
4.630000000002548, -0.5033557428528852 
4.640000000002525, -0.5088619046365399 
4.6500000000025015, -0.5120197414104626 
4.660000000002478, -0.5139053550032575 
4.670000000002455, -0.5151223797647901 
4.6800000000024315, -0.5159540411378473 
4.690000000002408, -0.5165298652941297 
4.700000000002385, -0.516914459586403 
4.710000000002362, -0.5171438003885485 
4.720000000002338, -0.5172381533548205 
4.730000000002315, -0.5172064225307578 
4.740000000002292, -0.5170480181282795 
4.750000000002268, -0.516754974973964 
4.760000000002245, -0.5163161420508972 
4.770000000002222, -0.5157246504835113 
4.7800000000021985, -0.5149879040797255 
4.790000000002175, -0.514135709649781 
4.800000000002152, -0.5132198396845777 
4.810000000002129, -0.5123019643115946 
4.820000000002105, -0.511435460145431 
4.830000000002082, -0.5106514172904151 
4.840000000002059, -0.5099552363509723 
4.850000000002035, -0.5093328437262079 
4.860000000002012, -0.5087613895774943 
4.870000000001989, -0.508219258624436 
4.880000000001965, -0.5076924525123432 
4.890000000001942, -0.5071772142526393 
4.900000000001919, -0.506680744818085 
