t, s[1].omega / s[0].omega 
0, -0.3400462993023656 
0.009999999999999995, -0.3450474616378587 
0.019999999999999934, -0.350478051460335 
0.029999999999999874, -0.35572954276444124 
0.04000000000000012, -0.36021916810624 
0.050000000000000405, -0.3636476645594734 
0.06000000000000069, -0.36603776097455004 
0.07000000000000098, -0.3675901074095252 
0.08000000000000126, -0.3685328171335064 
0.09000000000000155, -0.369047798961313 
0.10000000000000184, -0.3692565444707103 
0.11000000000000212, -0.36922928204136096 
0.12000000000000241, -0.3689974723720736 
0.130000000000002, -0.36856382304097574 
0.1400000000000009, -0.36791084940181856 
0.1499999999999998, -0.3670118358136484 
0.1599999999999987, -0.3658482006415851 
0.1699999999999976, -0.36443280365881914 
0.1799999999999965, -0.36282881636553677 
0.1899999999999954, -0.3611469963637638 
0.1999999999999943, -0.35951516504816483 
0.2099999999999932, -0.35803754003170646 
0.2199999999999921, -0.35676976536641847 
0.229999999999991, -0.35571861155686796 
0.2399999999999899, -0.3548570381604372 
0.2499999999999888, -0.35414224040018794 
0.2599999999999877, -0.35352997821333887 
0.2699999999999866, -0.352983371101568 
0.2799999999999855, -0.35247665573057946 
0.2899999999999844, -0.35199554645064746 
0.2999999999999833, -0.35153630876067693 
0.3099999999999822, -0.3511054408365202 
0.3199999999999811, -0.3507213240713183 
0.32999999999998, -0.35041877981501823 
0.3399999999999789, -0.35025705652819 
0.3499999999999778, -0.3503302019911556 
0.35999999999997667, -0.3507724753268756 
0.36999999999997557, -0.3517315573347311 
0.37999999999997447, -0.35323524860001687 
0.38999999999997337, -0.354823892061569 
0.39999999999997227, -0.3549757303664464 
0.40999999999997117, -0.3511477995723902 
0.41999999999997006, -0.3417715551772246 
0.42999999999996896, -0.32862096594119145 
0.43999999999996786, -0.31551510052920284 
0.44999999999996676, -0.30503515305467677 
0.45999999999996566, -0.2976561067957802 
0.46999999999996456, -0.29278077617196707 
0.47999999999996346, -0.28964440256406127 
0.48999999999996235, -0.28764550732079364 
0.49999999999996125, -0.2863798624938275 
0.5099999999999602, -0.2855930123562713 
0.519999999999959, -0.2851302765618424 
0.529999999999958, -0.284901279552779 
0.5399999999999568, -0.28485807730350815 
0.5499999999999557, -0.2849830384827815 
0.5599999999999546, -0.2852834075724474 
0.5699999999999535, -0.2857905778717148 
0.5799999999999524, -0.2865627079504272 
0.5899999999999513, -0.2876891340980938 
0.5999999999999502, -0.28929356874126383 
0.6099999999999491, -0.29152929004517897 
0.619999999999948, -0.2945526078291305 
0.6299999999999469, -0.29845516907774794 
0.6399999999999458, -0.303150987552341 
0.6499999999999447, -0.30827867865928227 
0.6599999999999436, -0.3132518077111786 
0.6699999999999425, -0.3175061714198435 
0.6799999999999414, -0.32075215843268595 
0.6899999999999403, -0.32301133006213123 
0.6999999999999392, -0.32447567615370015 
0.7099999999999381, -0.32536252864859494 
0.719999999999937, -0.3258445583805632 
0.7299999999999359, -0.3260369165776421 
0.7399999999999348, -0.32600659829355016 
0.7499999999999337, -0.3257850930307703 
0.7599999999999326, -0.32537906812169154 
0.7699999999999315, -0.3247801620392697 
0.7799999999999304, -0.3239769710673482 
0.7899999999999293, -0.32297115495068074 
0.7999999999999282, -0.32179452459546165 
0.8099999999999271, -0.320517081479775 
0.819999999999926, -0.31923585587864983 
0.8299999999999249, -0.318047124125321 
0.8399999999999238, -0.3170187535330514 
0.8499999999999227, -0.3161777001311201 
0.8599999999999216, -0.3155138263093004 
0.8699999999999205, -0.3149922872315314 
0.8799999999999194, -0.3145674048374233 
0.8899999999999183, -0.3141942939078512 
0.8999999999999172, -0.31383631508580534 
0.9099999999999161, -0.313467669859786 
0.919999999999915, -0.31307202664858097 
0.9299999999999139, -0.3126390502376876 
0.9399999999999128, -0.31216036478437537 
0.9499999999999117, -0.3116251981257322 
0.9599999999999106, -0.31101416159099055 
0.9699999999999095, -0.3102867161296955 
0.9799999999999084, -0.30935189383925876 
0.9899999999999073, -0.3080003548783453 
0.9999999999999062, -0.30576436407411073 
1.0099999999999052, -0.30170983486444347 
1.019999999999904, -0.2943946185809715 
1.029999999999903, -0.2826265009426707 
1.039999999999902, -0.2670970397094506 
1.0499999999999008, -0.25077870287305315 
1.0599999999998997, -0.23673094200557018 
1.0699999999998986, -0.2261908175344071 
1.0799999999998975, -0.21885299366023597 
1.0899999999998964, -0.21389377352209085 
1.0999999999998953, -0.21055411781566544 
1.1099999999998942, -0.20828789233324746 
1.119999999999893, -0.20673868295501205 
1.129999999999892, -0.20568484548147398 
1.1399999999998909, -0.20499479014178848 
1.1499999999998898, -0.20459824429941045 
1.1599999999998887, -0.2044706825781327 
1.1699999999998876, -0.20462799177295699 
1.1799999999998865, -0.20513022882749268 
1.1899999999998854, -0.20609543358173762 
1.1999999999998843, -0.207726504241552 
1.2099999999998832, -0.21035501920035954 
1.219999999999882, -0.21450049819137496 
1.229999999999881, -0.220915089626282 
1.2399999999998799, -0.2304950276129813 
1.2499999999998788, -0.24378611539138176 
1.2599999999998777, -0.2599105393311408 
1.2699999999998766, -0.2758713160510867 
1.2799999999998755, -0.28817348884897737 
1.2899999999998744, -0.29559117216708786 
1.2999999999998733, -0.2992922513994477 
1.3099999999998722, -0.300956333450358 
1.319999999999871, -0.3016973637550319 
1.32999999999987, -0.30205419436678577 
1.3399999999998689, -0.30224891133300513 
1.3499999999998678, -0.30236606418179063 
1.3599999999998666, -0.3024370891009331 
1.3699999999998655, -0.3024743522982425 
1.3799999999998644, -0.30248419458057707 
1.3899999999998633, -0.30247243554978637 
1.3999999999998622, -0.302447772122585 
1.4099999999998611, -0.3024249903701079 
1.41999999999986, -0.30242810000608833 
1.429999999999859, -0.30249225905491683 
1.4399999999998578, -0.3026627088011372 
1.4499999999998567, -0.30298924216771 
1.4599999999998556, -0.3035156856173764 
1.4699999999998545, -0.30426486946316067 
1.4799999999998534, -0.3052215577344018 
1.4899999999998523, -0.30632075850307955 
1.4999999999998512, -0.30745355822433573 
1.5099999999998501, -0.30849637778498357 
1.519999999999849, -0.30935003429668756 
1.529999999999848, -0.3099633703423227 
1.5399999999998468, -0.3103299224210124 
1.5499999999998457, -0.3104677796625831 
1.5599999999998446, -0.31039833703461583 
1.5699999999998435, -0.31013132887040196 
1.5799999999998424, -0.3096553422664298 
1.5899999999998413, -0.3089304768509217 
1.5999999999998402, -0.30788152675726366 
1.6099999999998391, -0.30639489945667464 
1.619999999999838, -0.3043308784209489 
1.629999999999837, -0.30157071268423785 
1.6399999999998358, -0.2981061737172398 
1.6499999999998347, -0.29412535682240126 
1.6599999999998336, -0.289997283389845 
1.6699999999998325, -0.28612486832249756 
1.6799999999998314, -0.28278244026011456 
1.6899999999998303, -0.28006206275723977 
1.6999999999998292, -0.2779218592035554 
1.709999999999828, -0.27625949437049835 
1.719999999999827, -0.27496371203559694 
1.729999999999826, -0.2739388681624416 
1.7399999999998248, -0.27311259145612854 
1.7499999999998237, -0.27243573659023024 
1.7599999999998226, -0.27187995639813456 
1.7699999999998215, -0.27143572088097867 
1.7799999999998204, -0.27111244815041047 
1.7899999999998193, -0.2709420467414717 
1.7999999999998182, -0.2709872964559394 
1.809999999999817, -0.2713567003993077 
1.819999999999816, -0.2722262898505048 
1.8299999999998149, -0.2738614501637724 
1.8399999999998138, -0.27660400211852443 
1.8499999999998127, -0.2807142539440719 
1.8599999999998116, -0.2858489232187247 
1.8699999999998105, -0.29014968889412956 
1.8799999999998094, -0.29017522049500133 
1.8899999999998083, -0.28369399589979555 
1.8999999999998072, -0.2727251407821269 
1.909999999999806, -0.2614898649934722 
1.919999999999805, -0.25257531918020104 
1.9299999999998039, -0.24636890347202028 
1.9399999999998028, -0.24229492064826527 
1.9499999999998017, -0.2396766707775299 
1.9599999999998006, -0.238003503320886 
1.9699999999997995, -0.23694128153148103 
1.9799999999997984, -0.23628435119751803 
1.9899999999997973, -0.23591144038422596 
1.9999999999997962, -0.23575623452052558 
2.0099999999998173, -0.2357903880558434 
2.0199999999998384, -0.2360154103464064 
2.0299999999998595, -0.2364609875147114 
2.0399999999998806, -0.2371884249216786 
2.0499999999999017, -0.23829838853160418 
2.059999999999923, -0.23994138424944594 
2.069999999999944, -0.24232583885974143 
2.079999999999965, -0.24570898031906352 
2.089999999999986, -0.2503379859183339 
2.100000000000007, -0.25629881776258717 
2.1100000000000283, -0.2632897898001828 
2.1200000000000494, -0.27051634384736967 
2.1300000000000705, -0.27697670791172746 
2.1400000000000916, -0.28199982564339526 
2.1500000000001127, -0.28549350256550016 
2.160000000000134, -0.28774697931187376 
2.170000000000155, -0.28913212944197125 
2.180000000000176, -0.2899475515306217 
2.190000000000197, -0.2903913027471191 
2.2000000000002182, -0.2905825706906427 
2.2100000000002393, -0.2905883624203728 
2.2200000000002604, -0.2904433933121837 
2.2300000000002815, -0.2901638339193223 
2.2400000000003026, -0.2897581860491353 
2.2500000000003237, -0.289237713906965 
2.260000000000345, -0.28862634007990295 
2.270000000000366, -0.28796666638099766 
2.280000000000387, -0.2873175211623872 
2.290000000000408, -0.2867420692466921 
2.3000000000004293, -0.2862918191480967 
2.3100000000004504, -0.28599407818772316 
2.3200000000004715, -0.28584669795780954 
2.3300000000004926, -0.28581990734165325 
2.3400000000005137, -0.28586422140236917 
2.3500000000005348, -0.2859229764795722 
2.360000000000556, -0.28594551254756034 
2.370000000000577, -0.2858954245099967 
2.380000000000598, -0.2857509607323654 
2.390000000000619, -0.28549916944182113 
2.4000000000006403, -0.2851272483212354 
2.4100000000006614, -0.28461300425704145 
2.4200000000006825, -0.28391358582082865 
2.4300000000007036, -0.2829493291810642 
2.4400000000007247, -0.2815783419661143 
2.450000000000746, -0.27956004547426794 
2.460000000000767, -0.2765220952584939 
2.470000000000788, -0.27199127010638935 
2.480000000000809, -0.26560395602497167 
2.49000000000083, -0.2575133473124235 
2.5000000000008513, -0.2486247222207394 
2.5100000000008724, -0.24019657713347095 
2.5200000000008935, -0.2331274637810659 
2.5300000000009146, -0.227672388177281 
2.5400000000009357, -0.22364947524374879 
2.550000000000957, -0.220732124042835 
2.560000000000978, -0.21861368775657058 
2.570000000000999, -0.2170589673100189 
2.58000000000102, -0.21590413821380033 
2.5900000000010412, -0.21504251865604607 
2.6000000000010624, -0.21441077153665694 
2.6100000000010835, -0.21397968583306218 
2.6200000000011046, -0.21375040220585886 
2.6300000000011257, -0.21375660245387224 
2.6400000000011468, -0.21407399675872263 
2.650000000001168, -0.21483976847868042 
2.660000000001189, -0.21628555952338058 
2.67000000000121, -0.2187843489621304 
2.680000000001231, -0.22289055552446743 
2.6900000000012523, -0.22927675188991006 
2.7000000000012734, -0.23829670656412855 
2.7100000000012945, -0.2488498113933038 
2.7200000000013156, -0.25733657803758503 
2.7300000000013367, -0.259604829600437 
2.740000000001358, -0.2554085405706802 
2.750000000001379, -0.24838625680505846 
2.7600000000014, -0.24184543979906487 
2.770000000001421, -0.2369788629721578 
2.780000000001442, -0.2336991525985154 
2.7900000000014633, -0.23157773410055368 
2.8000000000014844, -0.2302280523039845 
2.8100000000015055, -0.2293809797958307 
2.8200000000015266, -0.22886683954667494 
2.8300000000015477, -0.22858498806636224 
2.840000000001569, -0.22848088020254154 
2.85000000000159, -0.22853227726740086 
2.860000000001611, -0.22874264792089366 
2.870000000001632, -0.22913994793609152 
2.8800000000016532, -0.22977960094759683 
2.8900000000016743, -0.2307507210431324 
2.9000000000016954, -0.2321838117778353 
2.9100000000017165, -0.2342550421168415 
2.9200000000017377, -0.237174366176845 
2.9300000000017588, -0.24113179687739605 
2.94000000000178, -0.24617281287282616 
2.950000000001801, -0.25202697829580895 
2.960000000001822, -0.258046055072832 
2.970000000001843, -0.2634374454785095 
2.9800000000018643, -0.2676688080063251 
2.9900000000018854, -0.27065211334907585 
3.0000000000019065, -0.2726008735390996 
3.0100000000019276, -0.2738053730610129 
3.0200000000019487, -0.27450717946732184 
3.03000000000197, -0.2748709537937872 
3.040000000001991, -0.2749973588070567 
3.050000000002012, -0.27494282901731837 
3.060000000002033, -0.27473565900656033 
3.070000000002054, -0.27438824891337316 
3.0800000000020753, -0.2739079489661459 
3.0900000000020964, -0.2733081349006877 
3.1000000000021175, -0.2726183072634043 
3.1100000000021386, -0.27188869040889335 
3.1200000000021597, -0.2711846856550355 
3.130000000002181, -0.27057201431724576 
3.140000000002202, -0.2700999560269143 
3.150000000002223, -0.26979036175144466 
3.160000000002244, -0.2696347807503295 
3.1700000000022652, -0.2695982756520423 
3.1800000000022863, -0.2696285466996209 
3.1900000000023074, -0.26966872631809813 
3.2000000000023285, -0.2696697379689133 
3.2100000000023496, -0.26959707763182056 
3.2200000000023707, -0.26942993519954656 
3.230000000002392, -0.26915470299293537 
3.240000000002413, -0.2687560929245544 
3.250000000002434, -0.2682072391960276 
3.260000000002455, -0.2674575147034855 
3.2700000000024763, -0.2664147837668184 
3.2800000000024974, -0.26491853437859925 
3.2900000000025185, -0.26270594683760085 
3.3000000000025396, -0.2593958764221174 
3.3100000000025607, -0.25456535647309086 
3.3200000000025818, -0.24801431411862035 
3.330000000002603, -0.24012939597625532 
3.340000000002624, -0.23191612994947236 
3.350000000002645, -0.2244694946946571 
3.360000000002666, -0.21841068549120696 
3.3700000000026873, -0.2138096049453627 
3.3800000000027084, -0.21043318577596465 
3.3900000000027295, -0.2079784421210149 
3.4000000000027506, -0.2061827991304618 
3.4100000000027717, -0.20485118554030263 
3.420000000002793, -0.20385000268160516 
3.430000000002814, -0.2030938219209435 
3.440000000002835, -0.2025340581111538 
3.450000000002856, -0.20215208959186276 
3.460000000002877, -0.2019574394937488 
3.4700000000028983, -0.20199169942231504 
3.4800000000029194, -0.2023396713365247 
3.4900000000029405, -0.2031499813876497 
3.5000000000029616, -0.2046660987259637 
3.5100000000029827, -0.20725759556838702 
3.520000000003004, -0.2113972767853789 
3.530000000003025, -0.2174085747295603 
3.540000000003046, -0.22466014492619454 
3.550000000003067, -0.23036770424585828 
3.5600000000030882, -0.23023552408151696 
3.5700000000031094, -0.2228134527313042 
3.5800000000031305, -0.211704476944851 
3.5900000000031516, -0.2013505926660762 
3.6000000000031727, -0.193620196851507 
3.6100000000031938, -0.18840448829741507 
3.620000000003215, -0.18501662645736555 
3.630000000003236, -0.1828346526971774 
3.640000000003257, -0.18142987848584613 
3.650000000003278, -0.1805346638366649 
3.6600000000032993, -0.17999053012739835 
3.6700000000033204, -0.1797099727779667 
3.6800000000033415, -0.1796537656826919 
3.6900000000033626, -0.17982000555908903 
3.7000000000033837, -0.18024198380473172 
3.710000000003405, -0.18099373477845931 
3.720000000003426, -0.1822035476501534 
3.730000000003447, -0.18407610713746164 
3.740000000003468, -0.18692087003707267 
3.750000000003489, -0.19117076759238244 
3.7600000000035103, -0.19733791368335724 
3.7700000000035314, -0.20579273296416578 
3.7800000000035525, -0.21628117435529665 
3.7900000000035736, -0.2274858917876287 
3.8000000000035947, -0.23744076390673952 
3.810000000003616, -0.24480660619961508 
3.820000000003637, -0.2495309582453976 
3.830000000003658, -0.2523156467447637 
3.840000000003679, -0.25390354476164473 
3.8500000000037002, -0.25480469124741983 
3.8600000000037213, -0.2553131332344074 
3.8700000000037424, -0.25558729680870723 
3.8800000000037635, -0.2557113313894059 
3.8900000000037847, -0.25573065029643477 
3.9000000000038058, -0.2556712868426323 
3.910000000003827, -0.255551243893765 
3.920000000003848, -0.25538844686764534 
3.930000000003869, -0.25520706368728596 
3.94000000000389, -0.2550417763261671 
3.9500000000039113, -0.2549383460226988 
3.9600000000039324, -0.25494919848038 
3.9700000000039535, -0.2551244182228201 
3.9800000000039746, -0.2554996982146379 
3.9900000000039957, -0.2560828572032707 
4.000000000004016, -0.25684199193459617 
4.010000000003993, -0.25770254201578136 
4.02000000000397, -0.25856162447460446 
4.030000000003946, -0.25931782566229333 
4.040000000003923, -0.2598997235941717 
4.0500000000039, -0.26027594122145004 
4.0600000000038765, -0.2604454845268039 
4.070000000003853, -0.2604197556083071 
4.08000000000383, -0.26020643319468706 
4.090000000003807, -0.2597981713637427 
4.100000000003783, -0.2591645854889432 
4.11000000000376, -0.25824602442804007 
4.120000000003737, -0.2569512237321194 
4.130000000003713, -0.25516761517790804 
4.14000000000369, -0.2527993046042928 
4.150000000003667, -0.2498390097428917 
4.1600000000036434, -0.24643913363316955 
4.17000000000362, -0.24290486555951057 
4.180000000003597, -0.23957852297121277 
4.1900000000035735, -0.2367020502971847 
4.20000000000355, -0.23436363840871483 
4.210000000003527, -0.23253250233325273 
4.220000000003504, -0.23112031397270977 
4.23000000000348, -0.23002678210435817 
4.240000000003457, -0.22916262076627655 
4.250000000003434, -0.22845763421615106 
4.26000000000341, -0.2278614170570589 
4.270000000003387, -0.22734101082736088 
4.280000000003364, -0.22687783478288318 
4.2900000000033405, -0.22646517260271967 
4.300000000003317, -0.22610674500066028 
4.310000000003294, -0.22581595814816277 
4.320000000003271, -0.22561342248454008 
4.330000000003247, -0.22551483985114157 
4.340000000003224, -0.22548655261413023 
4.350000000003201, -0.2253137617705964 
4.360000000003177, -0.22429471254654967 
4.370000000003154, -0.22081299062906537 
4.380000000003131, -0.21253552961195896 
4.390000000003107, -0.19849209715370392 
4.400000000003084, -0.18135009676959274 
4.410000000003061, -0.16552766673649727 
4.4200000000030375, -0.15347795563505584 
4.430000000003014, -0.1452092697098479 
4.440000000002991, -0.13976140687212016 
4.450000000002968, -0.13618832415671397 
4.460000000002944, -0.13381795122902518 
4.470000000002921, -0.13222449337678727 
4.480000000002898, -0.13115126457151433 
4.490000000002874, -0.13045012148578947 
4.500000000002851, -0.13004419322507585 
4.510000000002828, -0.1299085886696184 
4.520000000002804, -0.13006450322305121 
4.530000000002781, -0.1305852366383575 
4.540000000002758, -0.1316159930724211 
4.5500000000027345, -0.1334126040264858 
4.560000000002711, -0.1364051790866257 
4.570000000002688, -0.1412791642989974 
4.580000000002665, -0.1489964803585762 
4.590000000002641, -0.16046820154638092 
4.600000000002618, -0.17533864400504384 
4.610000000002595, -0.19024424396169376 
4.620000000002571, -0.19991631448545663 
4.630000000002548, -0.20233059626726932 
4.640000000002525, -0.2001777532315617 
4.6500000000025015, -0.1968315968303275 
4.660000000002478, -0.1939444810185478 
4.670000000002455, -0.19186719520860726 
4.6800000000024315, -0.19047677007364613 
4.690000000002408, -0.18957610099204397 
4.700000000002385, -0.18900873508292734 
4.710000000002362, -0.18867184638827372 
4.720000000002338, -0.18850544157783253 
4.730000000002315, -0.18848113319619514 
4.740000000002292, -0.1885954296142609 
4.750000000002268, -0.188867759793159 
4.760000000002245, -0.1893427171452343 
4.770000000002222, -0.19009609482967293 
4.7800000000021985, -0.1912440583838389 
4.790000000002175, -0.19295312423025124 
4.800000000002152, -0.19544305501326104 
4.810000000002129, -0.19896174965215851 
4.820000000002105, -0.20369355669250586 
4.830000000002082, -0.20957430117923717 
4.840000000002059, -0.21610088000979838 
4.850000000002035, -0.22239336580311098 
