t, s[1].omega / s[0].omega 
0, -0.3799630929099801 
0.009999999999999995, -0.37655907610996636 
0.019999999999999934, -0.3737470163523742 
0.029999999999999874, -0.3714874850563949 
0.04000000000000012, -0.3696911829664686 
0.050000000000000405, -0.3682625282581384 
0.06000000000000069, -0.36712074090351915 
0.07000000000000098, -0.36620680067556777 
0.08000000000000126, -0.3654839582741455 
0.09000000000000155, -0.3649365551939597 
0.10000000000000184, -0.3645697861604994 
0.11000000000000212, -0.3644119747164202 
0.12000000000000241, -0.36452067691055035 
0.130000000000002, -0.3649942628232367 
0.1400000000000009, -0.36599131803568846 
0.1499999999999998, -0.36776066662531925 
0.1599999999999987, -0.370683065574097 
0.1699999999999976, -0.37531566415030565 
0.1799999999999965, -0.38239782896568647 
0.1899999999999954, -0.3927036410792126 
0.1999999999999943, -0.4065533309600037 
0.2099999999999932, -0.42299581679329756 
0.2199999999999921, -0.4394742296156998 
0.229999999999991, -0.4530972533380691 
0.2399999999999899, -0.462565101298273 
0.2499999999999888, -0.4684270861856333 
0.2599999999999877, -0.4718992509669956 
0.2699999999999866, -0.47397571106654357 
0.2799999999999855, -0.4752556420986636 
0.2899999999999844, -0.47606086122722935 
0.2999999999999833, -0.4765608492831756 
0.3099999999999822, -0.47684657038568945 
0.3199999999999811, -0.47696697729542353 
0.32999999999998, -0.4769462196571941 
0.3399999999999789, -0.4767922008589681 
0.3499999999999778, -0.4765021190851593 
0.35999999999997667, -0.4760683519832054 
0.36999999999997557, -0.4754866714111303 
0.37999999999997447, -0.4747664909776363 
0.38999999999997337, -0.4739391218058352 
0.39999999999997227, -0.47305753981875054 
0.40999999999997117, -0.4721845121977496 
0.41999999999997006, -0.4713743146547376 
0.42999999999996896, -0.47065824292805675 
0.43999999999996786, -0.47004049962348826 
0.44999999999996676, -0.46950388768973383 
0.45999999999996566, -0.4690205824250134 
0.46999999999996456, -0.4685628559096009 
0.47999999999996346, -0.46811029571691193 
0.48999999999996235, -0.46765269047257807 
0.49999999999996125, -0.4671901099060739 
0.5099999999999602, -0.46673265837474165 
0.519999999999959, -0.4663020775375256 
0.529999999999958, -0.46593684637918037 
0.5399999999999568, -0.4657024254559173 
0.5499999999999557, -0.4657088774360133 
0.5599999999999546, -0.46613866091427925 
0.5699999999999535, -0.46728601794741353 
0.5799999999999524, -0.46960052742137676 
0.5899999999999513, -0.47369813307526804 
0.5999999999999502, -0.48023719028494416 
0.6099999999999491, -0.48949198028641777 
0.619999999999948, -0.5006350786014679 
0.6299999999999469, -0.5114660786756697 
0.6399999999999458, -0.5196305862588904 
0.6499999999999447, -0.5244054343916701 
0.6599999999999436, -0.5267367488797579 
0.6699999999999425, -0.5278845735562918 
0.6799999999999414, -0.5286056932103206 
0.6899999999999403, -0.5291830649032617 
0.6999999999999392, -0.5296768339058903 
0.7099999999999381, -0.5300823856855884 
0.719999999999937, -0.5303888362317868 
0.7299999999999359, -0.5305911561868062 
0.7399999999999348, -0.5306880292654333 
0.7499999999999337, -0.5306776076998652 
0.7599999999999326, -0.5305546028463569 
0.7699999999999315, -0.5303096347616794 
0.7799999999999304, -0.5299315237507858 
0.7899999999999293, -0.5294131062320824 
0.7999999999999282, -0.5287597677670833 
0.8099999999999271, -0.5279968730805585 
0.819999999999926, -0.5271700468542166 
0.8299999999999249, -0.526335002765931 
0.8399999999999238, -0.5255411073151495 
0.8499999999999227, -0.5248178672058399 
0.8599999999999216, -0.5241708465931163 
0.8699999999999205, -0.5235869218994559 
0.8799999999999194, -0.5230443710477314 
0.8899999999999183, -0.5225226874154644 
0.8999999999999172, -0.5220089485590205 
0.9099999999999161, -0.5215004258136202 
0.919999999999915, -0.5210052483312725 
0.9299999999999139, -0.5205434989848341 
0.9399999999999128, -0.5201506440506227 
0.9499999999999117, -0.5198846842331074 
0.9599999999999106, -0.5198383705227363 
0.9699999999999095, -0.5201581505820712 
0.9799999999999084, -0.5210716241311979 
0.9899999999999073, -0.5229237761744575 
0.9999999999999062, -0.5262155863009952 
1.0099999999999052, -0.5316191798394978 
1.019999999999904, -0.5399017794130798 
1.029999999999903, -0.5516395968715861 
1.039999999999902, -0.566654063701924 
1.0499999999999008, -0.5834724345783405 
1.0599999999998997, -0.5995989763973689 
1.0699999999998986, -0.6128375948943006 
1.0799999999998975, -0.6224058687752504 
1.0899999999998964, -0.6287693545523306 
1.0999999999998953, -0.6328263575396275 
1.1099999999998942, -0.6353673344736677 
1.119999999999893, -0.63693816690263 
1.129999999999892, -0.6378808230805542 
1.1399999999998909, -0.6384006075433973 
1.1499999999998898, -0.6386156886415615 
1.1599999999998887, -0.6385865776149575 
1.1699999999998876, -0.6383314046331314 
1.1799999999998865, -0.6378321721777479 
1.1899999999998854, -0.6370362917601599 
1.1999999999998843, -0.635858922913042 
1.2099999999998832, -0.6341949993283486 
1.219999999999882, -0.6319516902470765 
1.229999999999881, -0.629102726430562 
1.2399999999998799, -0.6257395131813002 
1.2499999999998788, -0.6220734552062815 
1.2599999999998777, -0.6183717390710187 
1.2699999999998766, -0.6148692605867419 
1.2799999999998755, -0.6117157601221448 
1.2899999999998744, -0.608974579920966 
1.2999999999998733, -0.6066501109160993 
1.3099999999998722, -0.6047177116723071 
1.319999999999871, -0.6031441452397066 
1.32999999999987, -0.6018978055928317 
1.3399999999998689, -0.6009520830575148 
1.3499999999998678, -0.6002852923061839 
1.3599999999998666, -0.5998795005781193 
1.3699999999998655, -0.5997195554663443 
1.3799999999998644, -0.5997928830191758 
1.3899999999998633, -0.6000901550068656 
1.3999999999998622, -0.6006066101774319 
1.4099999999998611, -0.6013435549021127 
1.41999999999986, -0.6023092314654679 
1.429999999999859, -0.6035177051703956 
1.4399999999998578, -0.6049837576742452 
1.4499999999998567, -0.6067115798399284 
1.4599999999998556, -0.6086767403318 
1.4699999999998545, -0.6108062506601003 
1.4799999999998534, -0.6129698966429215 
1.4899999999998523, -0.614999113288184 
1.4999999999998512, -0.6167347119010353 
1.5099999999998501, -0.6180770485470173 
1.519999999999849, -0.6190047854180933 
1.529999999999848, -0.619555829107292 
1.5399999999998468, -0.6197924933182233 
1.5499999999998457, -0.6197732769325981 
1.5599999999998446, -0.619537991006921 
1.5699999999998435, -0.6191021364302772 
1.5799999999998424, -0.6184543781667726 
1.5899999999998413, -0.6175524769820674 
1.5999999999998402, -0.6163140994599748 
1.6099999999998391, -0.6145981006427411 
1.619999999999838, -0.6121689727435022 
1.629999999999837, -0.6086349151638645 
1.6399999999998358, -0.6033645769845449 
1.6499999999998347, -0.5954661184095873 
1.6599999999998336, -0.5840795492993496 
1.6699999999998325, -0.5691991956627258 
1.6799999999998314, -0.5524369356134732 
1.6899999999998303, -0.5364653112613671 
1.6999999999998292, -0.5233949344154991 
1.709999999999828, -0.5138891490240555 
1.719999999999827, -0.5075256513687043 
1.729999999999826, -0.5035014371989452 
1.7399999999998248, -0.5010622929501863 
1.7499999999998237, -0.49963978835295836 
1.7599999999998226, -0.49884686710817794 
1.7699999999998215, -0.49843341599422597 
1.7799999999998204, -0.498242376754246 
1.7899999999998193, -0.49817673848029054 
1.7999999999998182, -0.4981772735439803 
1.809999999999817, -0.49820853100651713 
1.819999999999816, -0.49825078428610137 
1.8299999999998149, -0.4982962106506692 
1.8399999999998138, -0.4983477827794019 
1.8499999999998127, -0.4984189893595931 
1.8599999999998116, -0.4985319841432931 
1.8699999999998105, -0.49871206307933874 
1.8799999999998094, -0.49897818164305907 
1.8899999999998083, -0.49933198847485327 
1.8999999999998072, -0.4997501576278987 
1.909999999999806, -0.5001852475381794 
1.919999999999805, -0.5005772517749482 
1.9299999999998039, -0.500871292324737 
1.9399999999998028, -0.5010316787698899 
1.9499999999998017, -0.5010452147621469 
1.9599999999998006, -0.5009148475222744 
1.9699999999997995, -0.5006498525025258 
1.9799999999997984, -0.5002575753464085 
1.9899999999997973, -0.49973813508296516 
1.9999999999997962, -0.4990810157775215 
2.0099999999998173, -0.4982614108376947 
2.0199999999998384, -0.4972330065498663 
2.0299999999998595, -0.4959105169636199 
2.0399999999998806, -0.4941273000335381 
2.0499999999999017, -0.49154175318237253 
2.059999999999923, -0.48747553694380175 
2.069999999999944, -0.4807889127357508 
2.079999999999965, -0.4702124258678021 
2.089999999999986, -0.4555408692132888 
2.100000000000007, -0.43870505742358634 
2.1100000000000283, -0.42282149891918264 
2.1200000000000494, -0.41005743827473917 
2.1300000000000705, -0.4008653037109056 
2.1400000000000916, -0.3946619822935825 
2.1500000000001127, -0.39061887583268473 
2.160000000000134, -0.3880322140256938 
2.170000000000155, -0.38639960639806586 
2.180000000000176, -0.3853884554840435 
2.190000000000197, -0.38478621179332684 
2.2000000000002182, -0.3844598669785639 
2.2100000000002393, -0.3843282988750959 
2.2200000000002604, -0.38434489497303176 
2.2300000000002815, -0.3844873837687114 
2.2400000000003026, -0.3847525509524162 
2.2500000000003237, -0.3851541450614208 
2.260000000000345, -0.3857224202720781 
2.270000000000366, -0.3865033719534744 
2.280000000000387, -0.38755489758042727 
2.290000000000408, -0.38893613441002806 
2.3000000000004293, -0.39068599837118584 
2.3100000000004504, -0.39279037228975255 
2.3200000000004715, -0.3951490270396586 
2.3300000000004926, -0.3975701424000352 
2.3400000000005137, -0.3998182217631347 
2.3500000000005348, -0.4016986237377397 
2.360000000000556, -0.4031185649207002 
2.370000000000577, -0.40408550429479434 
2.380000000000598, -0.40466302462527154 
2.390000000000619, -0.4049253778534351 
2.4000000000006403, -0.40493046375138314 
2.4100000000006614, -0.40470876942370404 
2.4200000000006825, -0.4042593636685812 
2.4300000000007036, -0.4035465326430173 
2.4400000000007247, -0.4024950623348452 
2.450000000000746, -0.40098762671244037 
2.460000000000767, -0.39887593067213506 
2.470000000000788, -0.3960254007339227 
2.480000000000809, -0.39240380502506234 
2.49000000000083, -0.38817403191527233 
2.5000000000008513, -0.3836958383974652 
2.5100000000008724, -0.37939227634809003 
2.5200000000008935, -0.37558025958113955 
2.5300000000009146, -0.37239616105390294 
2.5400000000009357, -0.36982938718235053 
2.550000000000957, -0.36779395400696785 
2.560000000000978, -0.3661849926019779 
2.570000000000999, -0.3649086430420393 
2.58000000000102, -0.3638931485780082 
2.5900000000010412, -0.36309062385878366 
2.6000000000010624, -0.36247569269621244 
2.6100000000010835, -0.3620443691618338 
2.6200000000011046, -0.36181501543282635 
2.6300000000011257, -0.36183265800495484 
2.6400000000011468, -0.3621780772105808 
2.650000000001168, -0.36298367050772107 
2.660000000001189, -0.36445873250726646 
2.67000000000121, -0.3669262456425667 
2.680000000001231, -0.3708675668195153 
2.6900000000012523, -0.3769500205777504 
2.7000000000012734, -0.3859567158034525 
2.7100000000012945, -0.3984521404947321 
2.7200000000013156, -0.4140627046325779 
2.7300000000013367, -0.43081901897751507 
2.740000000001358, -0.4457554496454098 
2.750000000001379, -0.4568332650702958 
2.7600000000014, -0.4639791317528128 
2.770000000001421, -0.4682708128447751 
2.780000000001442, -0.4708223033576009 
2.7900000000014633, -0.4723740121749375 
2.8000000000014844, -0.47334040687785217 
2.8100000000015055, -0.47394199597890163 
2.8200000000015266, -0.47429681325063616 
2.8300000000015477, -0.47446868234086087 
2.840000000001569, -0.474490535631813 
2.85000000000159, -0.47437578507561245 
2.860000000001611, -0.474124847396611 
2.870000000001632, -0.473730902360484 
2.8800000000016532, -0.4731874560921711 
2.8900000000016743, -0.47249839310680564 
2.9000000000016954, -0.47168774806527675 
2.9100000000017165, -0.47080295331437777 
2.9200000000017377, -0.46990645741760506 
2.9300000000017588, -0.4690581897043512 
2.94000000000178, -0.46829856354464977 
2.950000000001801, -0.46764067517630437 
2.960000000001822, -0.4670732852247771 
2.970000000001843, -0.46657062501476326 
2.9800000000018643, -0.4661036872784702 
2.9900000000018854, -0.46564886019561263 
3.0000000000019065, -0.4651921902015599 
3.0100000000019276, -0.4647301430403414 
3.0200000000019487, -0.4642691931575789 
3.03000000000197, -0.46382658920354913 
3.040000000001991, -0.4634340805405698 
3.050000000002012, -0.4631461747914184 
3.060000000002033, -0.46305491475647853 
3.070000000002054, -0.46331384279363946 
3.0800000000020753, -0.4641734116542945 
3.0900000000020964, -0.4660245866317704 
3.1000000000021175, -0.46942647540517013 
3.1100000000021386, -0.4750401728607449 
3.1200000000021597, -0.4833126679727167 
3.130000000002181, -0.4938152095205253 
3.140000000002202, -0.5047080000587882 
3.150000000002223, -0.5134788991894659 
3.160000000002244, -0.5188357028152426 
3.1700000000022652, -0.5213997900641514 
3.1800000000022863, -0.5225136454769376 
3.1900000000023074, -0.5231176097497933 
3.2000000000023285, -0.5235963392080276 
3.2100000000023496, -0.5240348462652589 
3.2200000000023707, -0.5244216918131615 
3.230000000002392, -0.5247335545519332 
3.240000000002413, -0.5249560084372417 
3.250000000002434, -0.5250825672182935 
3.260000000002455, -0.5251095315251189 
3.2700000000024763, -0.5250318994894931 
3.2800000000024974, -0.5248415632214418 
3.2900000000025185, -0.5245283114715104 
3.3000000000025396, -0.5240841698092036 
3.3100000000025607, -0.5235107738355544 
3.3200000000025818, -0.522827039528343 
3.330000000002603, -0.5220717577928687 
3.340000000002624, -0.5212966817018636 
3.350000000002645, -0.5205518174312033 
3.360000000002666, -0.5198708033131448 
3.3700000000026873, -0.5192639804139472 
3.3800000000027084, -0.518721090520821 
3.3900000000027295, -0.5182203361630725 
3.4000000000027506, -0.5177387084508129 
3.4100000000027717, -0.5172595626994412 
3.420000000002793, -0.5167761127613631 
3.430000000002814, -0.5162921354448865 
3.440000000002835, -0.5158223351291362 
3.450000000002856, -0.5153945735340107 
3.460000000002877, -0.5150555686126528 
3.4700000000028983, -0.5148814991213586 
3.4800000000029194, -0.5149953110473129 
3.4900000000029405, -0.5155929671680198 
3.5000000000029616, -0.5169802520450368 
3.5100000000029827, -0.5196170091223624 
3.520000000003004, -0.5241496447764729 
3.530000000003025, -0.5313734261490003 
3.540000000003046, -0.5420042678937851 
3.550000000003067, -0.5561415469593823 
3.5600000000030882, -0.5726105510132982 
3.5700000000031094, -0.5889743848778638 
3.5800000000031305, -0.6027759778767321 
3.5900000000031516, -0.6129184553354989 
3.6000000000031727, -0.619729085632186 
3.6100000000031938, -0.6241095110298857 
3.620000000003215, -0.6268889320226219 
3.630000000003236, -0.6286429120225971 
3.640000000003257, -0.6297317467179052 
3.650000000003278, -0.6303734490130899 
3.6600000000032993, -0.6306969988521425 
3.6700000000033204, -0.6307737448006814 
3.6800000000033415, -0.6306341170405311 
3.6900000000033626, -0.6302754059056874 
3.7000000000033837, -0.6296647167958863 
3.710000000003405, -0.6287414623198553 
3.720000000003426, -0.6274258780469519 
3.730000000003447, -0.6256417556019807 
3.740000000003468, -0.6233564406176328 
3.750000000003489, -0.6206233414672604 
3.7600000000035103, -0.617593768344337 
3.7700000000035314, -0.6144771067203515 
3.7800000000035525, -0.6114723534398744 
3.7900000000035736, -0.6087176944639154 
3.8000000000035947, -0.6062804012942011 
3.810000000003616, -0.6041749778523482 
3.820000000003637, -0.6023880269264577 
3.830000000003658, -0.6008972378767656 
3.840000000003679, -0.5996818453538981 
3.8500000000037002, -0.5987265851423695 
3.8600000000037213, -0.5980219793905207 
3.8700000000037424, -0.597563121698629 
3.8800000000037635, -0.5973483025941768 
3.8900000000037847, -0.5973782032211888 
3.9000000000038058, -0.5976559703465122 
3.910000000003827, -0.5981881603384904 
3.920000000003848, -0.5989862074130179 
3.930000000003869, -0.6000676329717894 
3.94000000000389, -0.6014555561361136 
3.9500000000039113, -0.6031741845156933 
3.9600000000039324, -0.6052373048616941 
3.9700000000039535, -0.6076278044714095 
3.9800000000039746, -0.6102715397281403 
3.9900000000039957, -0.6130196718019814 
4.000000000004016, -0.6156623470943385 
4.010000000003993, -0.6179844163643994 
4.02000000000397, -0.6198365021397977 
4.030000000003946, -0.6211722681312675 
4.040000000003923, -0.6220317958257303 
4.0500000000039, -0.6224961696469584 
4.0600000000038765, -0.6226472038725585 
4.070000000003853, -0.6225455391851337 
4.08000000000383, -0.622222772190172 
4.090000000003807, -0.6216789570594463 
4.100000000003783, -0.6208788356225812 
4.11000000000376, -0.6197421259857265 
4.120000000003737, -0.6181231220215799 
4.130000000003713, -0.6157731773721843 
4.14000000000369, -0.6122800828812075 
4.150000000003667, -0.6069956070806399 
4.1600000000036434, -0.5990325966314343 
4.17000000000362, -0.5875467624639219 
4.180000000003597, -0.5724814781907532 
4.1900000000035735, -0.5552902604626649 
4.20000000000355, -0.5385289126360149 
4.210000000003527, -0.5243880941048742 
4.220000000003504, -0.5137353914993429 
4.23000000000348, -0.5063225516991983 
4.240000000003457, -0.5014312797286655 
4.250000000003434, -0.49832230573767144 
4.26000000000341, -0.4964069311193133 
4.270000000003387, -0.4952662301009241 
4.280000000003364, -0.4946184302272939 
4.2900000000033405, -0.4942797056906274 
4.300000000003317, -0.4941323483160092 
4.310000000003294, -0.49410215716910494 
4.320000000003271, -0.494143483591587 
4.330000000003247, -0.4942300069464138 
4.340000000003224, -0.494349678091165 
4.350000000003201, -0.49450248022709464 
4.360000000003177, -0.494699428718237 
4.370000000003154, -0.4949607272940574 
4.380000000003131, -0.4953108911956958 
4.390000000003107, -0.49576971875733655 
4.400000000003084, -0.49634036819018884 
4.410000000003061, -0.4969987966749295 
4.4200000000030375, -0.4976910683604496 
4.430000000003014, -0.49834369167926845 
4.440000000002991, -0.4988846722334753 
4.450000000002968, -0.499263829731738 
4.460000000002944, -0.49946064899442016 
4.470000000002921, -0.49947805220834657 
4.480000000002898, -0.49932951946863807 
4.490000000002874, -0.49902716406236297 
4.500000000002851, -0.49857346767807786 
4.510000000002828, -0.49795536742701446 
4.520000000002804, -0.49713762761695274 
4.530000000002781, -0.49605126433862895 
4.540000000002758, -0.4945702304686946 
4.5500000000027345, -0.4924645405921943 
4.560000000002711, -0.4893142914696119 
4.570000000002688, -0.48439075633101203 
4.580000000002665, -0.4766247833087972 
4.590000000002641, -0.4650052286038697 
4.600000000002618, -0.4496251909849624 
4.610000000002595, -0.43244971785495745 
4.620000000002571, -0.4163599992630063 
4.630000000002548, -0.403320088918646 
4.640000000002525, -0.39374891937532647 
4.6500000000025015, -0.3871195647441871 
4.660000000002478, -0.3826624387530945 
4.670000000002455, -0.37970836214935594 
4.6800000000024315, -0.37776855678277405 
4.690000000002408, -0.37651211409703256 
4.700000000002385, -0.37572299755599103 
4.710000000002362, -0.3752634062701521 
4.720000000002338, -0.37504810981229386 
4.730000000002315, -0.3750280579684558 
4.740000000002292, -0.37518073833744553 
4.750000000002268, -0.37550528577291387 
4.760000000002245, -0.3760208975463778 
4.770000000002222, -0.3767672515405019 
4.7800000000021985, -0.37780516231494005 
4.790000000002175, -0.379214455355997 
4.800000000002152, -0.38108387758632567 
4.810000000002129, -0.3834855564621665 
4.820000000002105, -0.38642824501158124 
4.830000000002082, -0.38979886037594513 
4.840000000002059, -0.39333384304557406 
4.850000000002035, -0.3966759020141902 
4.860000000002012, -0.3995102074978427 
4.870000000001989, -0.40167990224895894 
4.880000000001965, -0.4031952501628882 
4.890000000001942, -0.40416199953433435 
