t, s[1].omega / s[0].omega 
0, -1.2399979184270318 
0.009999999999999995, -1.2396264427530912 
0.019999999999999934, -1.2389375461939527 
0.029999999999999874, -1.2379613447610238 
0.04000000000000012, -1.236775525105715 
0.050000000000000405, -1.2355182834466547 
0.06000000000000069, -1.2343982824399906 
0.07000000000000098, -1.2336684079010427 
0.08000000000000126, -1.2334096810367963 
0.09000000000000155, -1.2333739096078538 
0.10000000000000184, -1.2332078793476915 
0.11000000000000212, -1.2325987682000097 
0.12000000000000241, -1.2311580839445089 
0.130000000000002, -1.228339802566759 
0.1400000000000009, -1.2235887033989685 
0.1499999999999998, -1.2166060360005277 
0.1599999999999987, -1.207523864391676 
0.1699999999999976, -1.1973274929485396 
0.1799999999999965, -1.1885840766304716 
0.1899999999999954, -1.184043796295252 
0.1999999999999943, -1.1831553817454938 
0.2099999999999932, -1.1834430104609224 
0.2199999999999921, -1.183597809855493 
0.229999999999991, -1.1832561020275905 
0.2399999999999899, -1.182019198377461 
0.2499999999999888, -1.1785900689318451 
0.2599999999999877, -1.1689000905154683 
0.2699999999999866, -1.1420494641301533 
0.2799999999999855, -1.0802925457614552 
0.2899999999999844, -0.986628089083698 
0.2999999999999833, -0.9068067921199917 
0.3099999999999822, -0.8684492622527438 
0.3199999999999811, -0.8576232085088895 
0.32999999999998, -0.856533752870054 
0.3399999999999789, -0.8573627562212207 
0.3499999999999778, -0.8580568805077241 
0.35999999999997667, -0.8583147342658454 
0.36999999999997557, -0.8581173426570402 
0.37999999999997447, -0.8573198759429865 
0.38999999999997337, -0.8554599778405912 
0.39999999999997227, -0.851602012387196 
0.40999999999997117, -0.8446052895596813 
0.41999999999997006, -0.834341739186377 
0.42999999999996896, -0.8225065060588325 
0.43999999999996786, -0.8112876911975149 
0.44999999999996676, -0.8019734807767951 
0.45999999999996566, -0.7950017976845029 
0.46999999999996456, -0.7903650112342762 
0.47999999999996346, -0.7877433494086962 
0.48999999999996235, -0.7865675039662542 
0.49999999999996125, -0.7862062974814167 
0.5099999999999602, -0.7861673620121719 
0.519999999999959, -0.7861520011212941 
0.529999999999958, -0.7859942285153109 
0.5399999999999568, -0.7855976056453132 
0.5499999999999557, -0.7849307467619673 
0.5599999999999546, -0.7840532476939372 
0.5699999999999535, -0.7830870507766291 
0.5799999999999524, -0.7821306387220355 
0.5899999999999513, -0.7812156918352942 
0.5999999999999502, -0.780339511519814 
0.6099999999999491, -0.7795173883724491 
0.619999999999948, -0.7788080500291943 
0.6299999999999469, -0.7783058817409357 
0.6399999999999458, -0.7781095787285196 
0.6499999999999447, -0.7782836579066046 
0.6599999999999436, -0.7788368246715054 
0.6699999999999425, -0.7797307103756519 
0.6799999999999414, -0.7809105711980645 
0.6899999999999403, -0.7823359799943131 
0.6999999999999392, -0.7839844782706025 
0.7099999999999381, -0.7858054289185786 
0.719999999999937, -0.7876396739318546 
0.7299999999999359, -0.789208008855867 
0.7399999999999348, -0.790265572423769 
0.7499999999999337, -0.7907654384343696 
0.7599999999999326, -0.790818987105134 
0.7699999999999315, -0.7905697254739926 
0.7799999999999304, -0.7901672128374969 
0.7899999999999293, -0.789887004788342 
0.7999999999999282, -0.7904158760587047 
0.8099999999999271, -0.7932502392967313 
0.819999999999926, -0.800838446337851 
0.8299999999999249, -0.8158796460725312 
0.8399999999999238, -0.8396612545206319 
0.8499999999999227, -0.86988520525539 
0.8599999999999216, -0.8995098614463116 
0.8699999999999205, -0.9207593137618384 
0.8799999999999194, -0.9320536585882757 
0.8899999999999183, -0.9369335678354729 
0.8999999999999172, -0.938779068027994 
0.9099999999999161, -0.9392936771315208 
0.919999999999915, -0.9391233774846499 
0.9299999999999139, -0.9384207292426446 
0.9399999999999128, -0.9371498206848506 
0.9499999999999117, -0.9356494761311135 
0.9599999999999106, -0.936824496967326 
0.9699999999999095, -0.9513981181036505 
0.9799999999999084, -0.9979470773249458 
0.9899999999999073, -1.076203656530228 
0.9999999999999062, -1.1483749567348138 
1.0099999999999052, -1.188613709102275 
1.019999999999904, -1.2049023446602525 
1.029999999999903, -1.2105788261257084 
1.039999999999902, -1.2123799897511383 
1.0499999999999008, -1.212744107795825 
1.0599999999998997, -1.2124612545382574 
1.0699999999998986, -1.2118796445910252 
1.0799999999998975, -1.211697925443584 
1.0899999999998964, -1.2134424679069655 
1.0999999999998953, -1.2180032303509334 
1.1099999999998942, -1.2240467270125377 
1.119999999999893, -1.229805949835001 
1.129999999999892, -1.2344866573891724 
1.1399999999998909, -1.2379025302824411 
1.1499999999998898, -1.2400758426976835 
1.1599999999998887, -1.2411772674416315 
1.1699999999998876, -1.2414926107994015 
1.1799999999998865, -1.241314712691871 
1.1899999999998854, -1.2409053743698544 
1.1999999999998843, -1.2405439578673394 
1.2099999999998832, -1.240468428266474 
1.219999999999882, -1.240713270555093 
1.229999999999881, -1.2411501857234162 
1.2399999999998799, -1.2416172803179049 
1.2499999999998788, -1.2419531866567566 
1.2599999999998777, -1.2420290437736001 
1.2699999999998766, -1.2417704779993561 
1.2799999999998755, -1.2411506861500978 
1.2899999999998744, -1.2401704210221711 
1.2999999999998733, -1.2388436454535274 
1.3099999999998722, -1.2372107805514767 
1.319999999999871, -1.235379375955958 
1.32999999999987, -1.2335943630717696 
1.3399999999998689, -1.2322672772558054 
1.3499999999998678, -1.2316732196481752 
1.3599999999998666, -1.2315706948955643 
1.3699999999998655, -1.231482001044223 
1.3799999999998644, -1.231030827334758 
1.3899999999998633, -1.2297927923302945 
1.3999999999998622, -1.2269908403268184 
1.4099999999998611, -1.221375416588887 
1.41999999999986, -1.2116252306897406 
1.429999999999859, -1.1972118533638643 
1.4399999999998578, -1.179468387232808 
1.4499999999998567, -1.1629246704646843 
1.4599999999998556, -1.1533823287069378 
1.4699999999998545, -1.1509980709697192 
1.4799999999998534, -1.1513583108515528 
1.4899999999998523, -1.151837696254368 
1.4999999999998512, -1.1518466013823667 
1.5099999999998501, -1.151204952459302 
1.519999999999849, -1.1492951802645064 
1.529999999999848, -1.1439766360150385 
1.5399999999998468, -1.128545386253309 
1.5499999999998457, -1.0860856295738663 
1.5599999999998446, -0.9971179626240452 
1.5699999999998435, -0.8865145930024266 
1.5799999999998424, -0.8117275470996743 
1.5899999999998413, -0.7811376093875442 
1.5999999999998402, -0.7728821039949785 
1.6099999999998391, -0.7718675789069448 
1.619999999999838, -0.772387424774737 
1.629999999999837, -0.7728945283564997 
1.6399999999998358, -0.7730901902462404 
1.6499999999998347, -0.7729154590588787 
1.6599999999998336, -0.7722528406626936 
1.6699999999998325, -0.7708286049135873 
1.6799999999998314, -0.7682559609380636 
1.6899999999998303, -0.7643587268748604 
1.6999999999998292, -0.7595655547882525 
1.709999999999828, -0.754690586922979 
1.719999999999827, -0.7503270514026199 
1.729999999999826, -0.7466823306146841 
1.7399999999998248, -0.7437697185190681 
1.7499999999998237, -0.7415649468514831 
1.7599999999998226, -0.7400412720110294 
1.7699999999998215, -0.7391420113382347 
1.7799999999998204, -0.7387543544022322 
1.7899999999998193, -0.738720619773237 
1.7999999999998182, -0.7388801422752367 
1.809999999999817, -0.7391083066187935 
1.819999999999816, -0.7393350077190735 
1.8299999999998149, -0.7395471214571514 
1.8399999999998138, -0.7397714947004568 
1.8499999999998127, -0.740028847356861 
1.8599999999998116, -0.740283985062118 
1.8699999999998105, -0.7404471595707004 
1.8799999999998094, -0.7404378415516415 
1.8899999999998083, -0.7402422382201632 
1.8999999999998072, -0.7399171939173683 
1.909999999999806, -0.7395856753232462 
1.919999999999805, -0.7394727764329033 
1.9299999999998039, -0.7399669089189056 
1.9399999999998028, -0.741637213240183 
1.9499999999998017, -0.7451480705925261 
1.9599999999998006, -0.751113616221287 
1.9699999999997995, -0.7599817557688165 
1.9799999999997984, -0.7718473168183577 
1.9899999999997973, -0.7858730093353421 
1.9999999999997962, -0.7995788501178213 
2.0099999999998173, -0.8098738605993026 
2.0199999999998384, -0.815771456401711 
2.0299999999998595, -0.8185130016954548 
2.0399999999998806, -0.8195640373024295 
2.0499999999999017, -0.8197524502322819 
2.059999999999923, -0.8193885810433595 
2.069999999999944, -0.8184626233599701 
2.079999999999965, -0.8167265961546064 
2.089999999999986, -0.8138613547898242 
2.100000000000007, -0.8106020348577453 
2.1100000000000283, -0.8131831599985657 
2.1200000000000494, -0.8403274245521773 
2.1300000000000705, -0.909524858954449 
2.1400000000000916, -0.9961909176289583 
2.1500000000001127, -1.0554018965191792 
2.160000000000134, -1.0814133274942 
2.170000000000155, -1.0907275545407988 
2.180000000000176, -1.093883083856385 
2.190000000000197, -1.09483276035018 
2.2000000000002182, -1.0948291681225326 
2.2100000000002393, -1.0941318249583565 
2.2200000000002604, -1.0925017075642864 
2.2300000000002815, -1.0896001293451443 
2.2400000000003026, -1.087809197287074 
2.2500000000003237, -1.1020610998644025 
2.260000000000345, -1.1572343400469514 
2.270000000000366, -1.2363325599657533 
2.280000000000387, -1.292175178060122 
2.290000000000408, -1.3174891594398372 
2.3000000000004293, -1.3267007478246304 
2.3100000000004504, -1.3297087508281409 
2.3200000000004715, -1.3305001167944956 
2.3300000000004926, -1.3304239317405875 
2.3400000000005137, -1.3300009771812598 
2.3500000000005348, -1.3297936827241323 
2.360000000000556, -1.3305866073656365 
2.370000000000577, -1.3324613412564965 
2.380000000000598, -1.3346326824967194 
2.390000000000619, -1.3365031743886806 
2.4000000000006403, -1.337891420595918 
2.4100000000006614, -1.3387799582073756 
2.4200000000006825, -1.3391880109784968 
2.4300000000007036, -1.3391435900826103 
2.4400000000007247, -1.3386933273977117 
2.450000000000746, -1.3379193372570248 
2.460000000000767, -1.3369491295286542 
2.470000000000788, -1.3359466422527642 
2.480000000000809, -1.3351195135489173 
2.49000000000083, -1.334681758021895 
2.5000000000008513, -1.3345879373983562 
2.5100000000008724, -1.3344991534189683 
2.5200000000008935, -1.3340494161059933 
2.5300000000009146, -1.332803696142982 
2.5400000000009357, -1.3300005090849265 
2.550000000000957, -1.3244291133611312 
2.560000000000978, -1.3146640453686977 
2.570000000000999, -1.2997588697670925 
2.58000000000102, -1.2812604833427492 
2.5900000000010412, -1.2661794412495757 
2.6000000000010624, -1.2607052446284475 
2.6100000000010835, -1.2608915079283138 
2.6200000000011046, -1.2617239812806127 
2.6300000000011257, -1.261969018214597 
2.6400000000011468, -1.2615304945494905 
2.650000000001168, -1.2599852161896317 
2.660000000001189, -1.2555903932141461 
2.67000000000121, -1.2430588370387248 
2.680000000001231, -1.2147298504202564 
2.6900000000012523, -1.2004669967948396 
2.7000000000012734, -1.2810272391380317 
2.7100000000012945, -1.3849282322518588 
2.7200000000013156, -1.429026088634575 
2.7300000000013367, -1.441632204889265 
2.740000000001358, -1.4450226256532084 
2.750000000001379, -1.44578205113496 
2.7600000000014, -1.4456218458939956 
2.770000000001421, -1.4451240054854757 
2.780000000001442, -1.445053620349732 
2.7900000000014633, -1.4463268045876931 
2.8000000000014844, -1.4485385029730884 
2.8100000000015055, -1.450615611509071 
2.8200000000015266, -1.4521296618134212 
2.8300000000015477, -1.4530536119454251 
2.840000000001569, -1.4534340018059018 
2.85000000000159, -1.4533134555312892 
2.860000000001611, -1.4527250382769354 
2.870000000001632, -1.451706330619619 
2.8800000000016532, -1.4503217339076493 
2.8900000000016743, -1.4487144063143231 
2.9000000000016954, -1.4472772771145763 
2.9100000000017165, -1.4465537134757969 
2.9200000000017377, -1.4464383460260313 
2.9300000000017588, -1.4463031931276071 
2.94000000000178, -1.4456179275285337 
2.950000000001801, -1.4435063573074807 
2.960000000001822, -1.4372210906716132 
2.970000000001843, -1.4181953741104425 
2.9800000000018643, -1.3663458845104508 
2.9900000000018854, -1.272201636588522 
3.0000000000019065, -1.2005111907858474 
3.0100000000019276, -1.1891095082862841 
3.0200000000019487, -1.1955292572411595 
3.03000000000197, -1.199761357310977 
3.040000000001991, -1.2013826048404599 
3.050000000002012, -1.2017286542234533 
3.060000000002033, -1.201303916942358 
3.070000000002054, -1.1999605473603272 
3.0800000000020753, -1.1970318918825136 
3.0900000000020964, -1.1930603916817717 
3.1000000000021175, -1.2001181550509474 
3.1100000000021386, -1.2460838037011923 
3.1200000000021597, -1.316652496528467 
3.130000000002181, -1.3655443138318009 
3.140000000002202, -1.3875344567256218 
3.150000000002223, -1.3956221719015955 
3.160000000002244, -1.3982672686648074 
3.1700000000022652, -1.3989187896469022 
3.1800000000022863, -1.398784860472646 
3.1900000000023074, -1.3983902637381795 
3.2000000000023285, -1.398287782503139 
3.2100000000023496, -1.398924810734845 
3.2200000000023707, -1.4000555673851356 
3.230000000002392, -1.4011744201861593 
3.240000000002413, -1.4020223868698176 
3.250000000002434, -1.402497691488187 
3.260000000002455, -1.4025556950309146 
3.2700000000024763, -1.4021773589089042 
3.2800000000024974, -1.4013500870008953 
3.2900000000025185, -1.4000639222157771 
3.3000000000025396, -1.3983309575346696 
3.3100000000025607, -1.3962558698450922 
3.3200000000025818, -1.3942466277975165 
3.330000000002603, -1.3930326892857692 
3.340000000002624, -1.3927541160359442 
3.350000000002645, -1.3927289421150197 
3.360000000002666, -1.3923623096682405 
3.3700000000026873, -1.3910815698266912 
3.3800000000027084, -1.3873410692023618 
3.3900000000027295, -1.3762119481875654 
3.4000000000027506, -1.344178527552615 
3.4100000000027717, -1.2707492828853917 
3.420000000002793, -1.1753336647663875 
3.430000000002814, -1.1265362644842374 
3.440000000002835, -1.1223099716261888 
3.450000000002856, -1.127026409960493 
3.460000000002877, -1.1299312648359559 
3.4700000000028983, -1.1310536375803473 
3.4800000000029194, -1.1312046320276083 
3.4900000000029405, -1.130625284493264 
3.5000000000029616, -1.1289405382203155 
3.5100000000029827, -1.1247564721137353 
3.520000000003004, -1.1151842330183361 
3.530000000003025, -1.1017346747718286 
3.540000000003046, -1.1193410858756625 
3.550000000003067, -1.2195003794702308 
3.5600000000030882, -1.3297107733568216 
3.5700000000031094, -1.3789736629481755 
3.5800000000031305, -1.3939506649958315 
3.5900000000031516, -1.398166537880453 
3.6000000000031727, -1.3992280199210714 
3.6100000000031938, -1.3992064422017745 
3.620000000003215, -1.3987342120316344 
3.630000000003236, -1.3984329696094844 
3.640000000003257, -1.399368041983362 
3.650000000003278, -1.4017207784761263 
3.6600000000032993, -1.4043520014697548 
3.6700000000033204, -1.4064780887380117 
3.6800000000033415, -1.407950804801348 
3.6900000000033626, -1.4088138980827045 
3.7000000000033837, -1.4091286030055814 
3.710000000003405, -1.4089514333794406 
3.720000000003426, -1.4083479567192654 
3.730000000003447, -1.4074104808028545 
3.740000000003468, -1.4062695922478814 
3.750000000003489, -1.405115450822549 
3.7600000000035103, -1.4042658166706428 
3.7700000000035314, -1.4039428348721308 
3.7800000000035525, -1.4038788233971853 
3.7900000000035736, -1.4036056827176824 
3.8000000000035947, -1.4026507316304315 
3.810000000003616, -1.400090473832603 
3.820000000003637, -1.3936915140524129 
3.830000000003658, -1.37888971035008 
3.840000000003679, -1.3493776662694252 
3.8500000000037002, -1.3056170874166697 
3.8600000000037213, -1.2703155603841954 
3.8700000000037424, -1.261214579045542 
3.8800000000037635, -1.2632169605714219 
3.8900000000037847, -1.265167061889822 
3.9000000000038058, -1.265866123425752 
3.910000000003827, -1.2657249659186913 
3.920000000003848, -1.2647388253440814 
3.930000000003869, -1.2621952412042068 
3.94000000000389, -1.256921733029079 
3.9500000000039113, -1.25445742208654 
3.9600000000039324, -1.286819283261377 
3.9700000000039535, -1.3628389341920888 
3.9800000000039746, -1.4225066122462389 
3.9900000000039957, -1.4491245264663348 
4.000000000004016, -1.4585828267342702 
4.010000000003993, -1.4615985561845666 
4.02000000000397, -1.4623489433686123 
4.030000000003946, -1.4622413747047944 
4.040000000003923, -1.4618519189657642 
4.0500000000039, -1.4617129144632173 
4.0600000000038765, -1.4621678802380047 
4.070000000003853, -1.4629524259060989 
4.08000000000383, -1.463685716830553 
4.090000000003807, -1.4641720070275142 
4.100000000003783, -1.4642862844637556 
4.11000000000376, -1.4639314726226695 
4.120000000003737, -1.4630218834533597 
4.130000000003713, -1.4614629118986406 
4.14000000000369, -1.4591337896458874 
4.150000000003667, -1.4559318245203172 
4.1600000000036434, -1.4521340178078024 
4.17000000000362, -1.4491034791114221 
4.180000000003597, -1.4481120253925615 
4.1900000000035735, -1.448217122256636 
4.20000000000355, -1.4481885470103748 
4.210000000003527, -1.447494678836138 
4.220000000003504, -1.4451812718385522 
4.23000000000348, -1.4375457339017592 
4.240000000003457, -1.4115544265286986 
4.250000000003434, -1.351455958037327 
4.26000000000341, -1.3456473895324796 
4.270000000003387, -1.4435896934558732 
4.280000000003364, -1.501387516539148 
4.2900000000033405, -1.5179260208651235 
4.300000000003317, -1.522145635250679 
4.310000000003294, -1.523090941904969 
4.320000000003271, -1.522984303909507 
4.330000000003247, -1.5225169311578208 
4.340000000003224, -1.5224411403224307 
4.350000000003201, -1.5234582976500517 
4.360000000003177, -1.5250515413403118 
4.370000000003154, -1.5264174303002755 
4.380000000003131, -1.527306090489943 
4.390000000003107, -1.527686406849182 
4.400000000003084, -1.5275514865940023 
4.410000000003061, -1.526881453853974 
4.4200000000030375, -1.5256287267260626 
4.430000000003014, -1.5237165700334554 
4.440000000002991, -1.5211040839590255 
4.450000000002968, -1.5181819586180334 
4.460000000002944, -1.5162506414843597 
4.470000000002921, -1.5158877351127213 
4.480000000002898, -1.515969886245723 
4.490000000002874, -1.5156416130727757 
4.500000000002851, -1.5142589555584747 
4.510000000002828, -1.509663281811132 
4.520000000002804, -1.4933612130307816 
4.530000000002781, -1.4471891898511038 
4.540000000002758, -1.4336729933059944 
4.5500000000027345, -1.5427260937501242 
4.560000000002711, -1.6107335033622185 
4.570000000002688, -1.629228064672324 
4.580000000002665, -1.633725184567826 
4.590000000002641, -1.6346873480903905 
4.600000000002618, -1.6345755452793402 
4.610000000002595, -1.6341617942152082 
4.620000000002571, -1.634096475317006 
4.630000000002548, -1.6346081540778814 
4.640000000002525, -1.6352474729536934 
4.6500000000025015, -1.6357003150969598 
4.660000000002478, -1.6358039205058041 
4.670000000002455, -1.635369910256977 
4.6800000000024315, -1.6341269651463353 
4.690000000002408, -1.6316220309403555 
4.700000000002385, -1.6270701770109524 
4.710000000002362, -1.6193329361811304 
4.720000000002338, -1.6090320031819647 
4.730000000002315, -1.60296237497685 
4.740000000002292, -1.6031191089825827 
4.750000000002268, -1.60398946947858 
4.760000000002245, -1.6040312692349974 
4.770000000002222, -1.6031793084870833 
4.7800000000021985, -1.6009595347970422 
4.790000000002175, -1.5990369392916524 
4.800000000002152, -1.6093126000719473 
4.810000000002129, -1.6296485700277192 
4.820000000002105, -1.6435889796464498 
4.830000000002082, -1.6504871706140185 
4.840000000002059, -1.6535220876341277 
4.850000000002035, -1.654587710224902 
4.860000000002012, -1.6546365023556393 
4.870000000001989, -1.6541490130387086 
4.880000000001965, -1.653423023179113 
4.890000000001942, -1.6526592403394003 
4.900000000001919, -1.652057666496562 
4.9100000000018955, -1.6518303304562714 
4.920000000001872, -1.6517139575295867 
4.930000000001849, -1.6511608899533816 
4.940000000001826, -1.6492914395030316 
