t, s[1].omega / s[0].omega 
0, -0.5399977484030911 
0.009999999999999995, -0.5398110477812975 
0.019999999999999934, -0.5396869514897832 
0.029999999999999874, -0.5395902333315681 
0.04000000000000012, -0.5394771079293381 
0.050000000000000405, -0.5393097995905529 
0.06000000000000069, -0.5390658078966879 
0.07000000000000098, -0.538739467019198 
0.08000000000000126, -0.5383388182674007 
0.09000000000000155, -0.5378828332997083 
0.10000000000000184, -0.5374028869387149 
0.11000000000000212, -0.5369510771401853 
0.12000000000000241, -0.536618367462822 
0.130000000000002, -0.5365677275061406 
0.1400000000000009, -0.5370908621336945 
0.1499999999999998, -0.5386998488132099 
0.1599999999999987, -0.5422596726809031 
0.1699999999999976, -0.5491303162887996 
0.1799999999999965, -0.5611627270610181 
0.1899999999999954, -0.5801451669884514 
0.1999999999999943, -0.6062480717243288 
0.2099999999999932, -0.6362426612109096 
0.2199999999999921, -0.6643362524014188 
0.229999999999991, -0.6861693582600409 
0.2399999999999899, -0.7011081122656309 
0.2499999999999888, -0.7107380921075511 
0.2599999999999877, -0.7168439757878805 
0.2699999999999866, -0.7207037738844904 
0.2799999999999855, -0.7231270945468771 
0.2899999999999844, -0.7246156969678753 
0.2999999999999833, -0.7254785535255714 
0.3099999999999822, -0.7259002785143317 
0.3199999999999811, -0.7259802788715516 
0.32999999999998, -0.7257529918544433 
0.3399999999999789, -0.725194297953656 
0.3499999999999778, -0.7242172472273112 
0.35999999999997667, -0.7226620753813203 
0.36999999999997557, -0.7202936510942436 
0.37999999999997447, -0.7168343766443893 
0.38999999999997337, -0.7120662879818831 
0.39999999999997227, -0.7059918670292604 
0.40999999999997117, -0.6989439641501228 
0.41999999999997006, -0.691511706232764 
0.42999999999996896, -0.6843123144556208 
0.43999999999996786, -0.6777930829689329 
0.44999999999996676, -0.6721775986881025 
0.45999999999996566, -0.667517810901803 
0.46999999999996456, -0.6637691944343819 
0.47999999999996346, -0.6608450941558599 
0.48999999999996235, -0.6586449650372622 
0.49999999999996125, -0.6570657160253931 
0.5099999999999602, -0.6560056550107494 
0.519999999999959, -0.6553667855231087 
0.529999999999958, -0.6550576417831425 
0.5399999999999568, -0.6549965937132396 
0.5499999999999557, -0.6551147107569533 
0.5599999999999546, -0.6553575036586203 
0.5699999999999535, -0.6556855368660123 
0.5799999999999524, -0.6560743282656235 
0.5899999999999513, -0.6565136530100499 
0.5999999999999502, -0.6570053799401233 
0.6099999999999491, -0.6575581045615142 
0.619999999999948, -0.6581774491432204 
0.6299999999999469, -0.6588536752820248 
0.6399999999999458, -0.6595520562204069 
0.6499999999999447, -0.6602133099114819 
0.6599999999999436, -0.6607676792211531 
0.6699999999999425, -0.6611567370068492 
0.6799999999999414, -0.661349734423298 
0.6899999999999403, -0.6613456708583054 
0.6999999999999392, -0.6611641515173807 
0.7099999999999381, -0.6608346752385705 
0.719999999999937, -0.6603917997438458 
0.7299999999999359, -0.6598792263695716 
0.7399999999999348, -0.6593643531639035 
0.7499999999999337, -0.658966338046358 
0.7599999999999326, -0.6589032336544549 
0.7699999999999315, -0.6595649841875456 
0.7799999999999304, -0.6616151340257507 
0.7899999999999293, -0.6661063633825598 
0.7999999999999282, -0.674545706619379 
0.8099999999999271, -0.6887422044966273 
0.819999999999926, -0.7101473859402303 
0.8299999999999249, -0.7385361505618281 
0.8399999999999238, -0.7707841039751264 
0.8499999999999227, -0.8015700959913706 
0.8599999999999216, -0.82635289557065 
0.8699999999999205, -0.8436626514939853 
0.8799999999999194, -0.8546035780854787 
0.8899999999999183, -0.8611111036785527 
0.8999999999999172, -0.8648433354832031 
0.9099999999999161, -0.8669119110311845 
0.919999999999915, -0.8679803365541282 
0.9299999999999139, -0.8684174518309812 
0.9399999999999128, -0.8684090560819907 
0.9499999999999117, -0.8680199705134889 
0.9599999999999106, -0.8672170828542743 
0.9699999999999095, -0.8658598967144793 
0.9799999999999084, -0.8636568160337438 
0.9899999999999073, -0.8600787698369547 
0.9999999999999062, -0.8542257822543343 
1.0099999999999052, -0.8446846868325842 
1.019999999999904, -0.8295566503511825 
1.029999999999903, -0.8070825660314354 
1.039999999999902, -0.7772410686315754 
1.0499999999999008, -0.7433863851507617 
1.0599999999998997, -0.7114019575066096 
1.0699999999998986, -0.6861521834437291 
1.0799999999998975, -0.6690770000144122 
1.0899999999998964, -0.6588998307212411 
1.0999999999998953, -0.6534641095138977 
1.1099999999998942, -0.6508804363546733 
1.119999999999893, -0.6498460008522399 
1.129999999999892, -0.6495714811335274 
1.1399999999998909, -0.6496170623777744 
1.1499999999998898, -0.6497518475651833 
1.1599999999998887, -0.6498585860070135 
1.1699999999998876, -0.6498758373155322 
1.1799999999998865, -0.6497652051864662 
1.1899999999998854, -0.6494944475000153 
1.1999999999998843, -0.6490316848961482 
1.2099999999998832, -0.648349190588289 
1.219999999999882, -0.6474354128502474 
1.229999999999881, -0.6463095805672264 
1.2399999999998799, -0.6450276632125714 
1.2499999999998788, -0.6436706545415966 
1.2599999999998777, -0.6423194567010739 
1.2699999999998766, -0.641032095869481 
1.2799999999998755, -0.6398355322747247 
1.2899999999998744, -0.6387320413303087 
1.2999999999998733, -0.6377124244222172 
1.3099999999998722, -0.6367684964954242 
1.319999999999871, -0.6359012237316374 
1.32999999999987, -0.635124573734025 
1.3399999999998689, -0.6344668226011543 
1.3499999999998678, -0.6339708464494878 
1.3599999999998666, -0.6336939698849862 
1.3699999999998655, -0.6337072941989281 
1.3799999999998644, -0.6340944233381112 
1.3899999999998633, -0.6349499112514916 
1.3999999999998622, -0.6363780599245532 
1.4099999999998611, -0.6384923313237596 
1.41999999999986, -0.6414140950931857 
1.429999999999859, -0.6452663553691881 
1.4399999999998578, -0.6501535815736492 
1.4499999999998567, -0.6561149363920384 
1.4599999999998556, -0.6630431739710526 
1.4699999999998545, -0.6705914878280356 
1.4799999999998534, -0.6781487503995813 
1.4899999999998523, -0.6849831165579386 
1.4999999999998512, -0.6905252330930228 
1.5099999999998501, -0.6945763952087524 
1.519999999999849, -0.6972788948964345 
1.529999999999848, -0.6989336679702666 
1.5399999999998468, -0.6998391125858915 
1.5499999999998457, -0.7002185521509268 
1.5599999999998446, -0.7002097467368069 
1.5699999999998435, -0.6998756927110655 
1.5799999999998424, -0.6992133409600267 
1.5899999999998413, -0.6981502508810606 
1.5999999999998402, -0.6965227857075299 
1.6099999999998391, -0.6940262258159617 
1.619999999999838, -0.6901202057227731 
1.629999999999837, -0.6838712400538086 
1.6399999999998358, -0.6737595147312184 
1.6499999999998347, -0.6576866290162062 
1.6599999999998336, -0.6338368658864262 
1.6699999999998325, -0.6028088902811137 
1.6799999999998314, -0.5690743721708855 
1.6899999999998303, -0.5386823325282897 
1.6999999999998292, -0.5152812189106518 
1.709999999999828, -0.4991269641224959 
1.719999999999827, -0.4886966015100634 
1.729999999999826, -0.4822212600203687 
1.7399999999998248, -0.4783034587004706 
1.7499999999998237, -0.47598748708838434 
1.7599999999998226, -0.4746595009073046 
1.7699999999998215, -0.4739359695600684 
1.7799999999998204, -0.47358017818870113 
1.7899999999998193, -0.4734470639633258 
1.7999999999998182, -0.4734486631662131 
1.809999999999817, -0.4735332684071805 
1.819999999999816, -0.4736736100385091 
1.8299999999998149, -0.47386102666319185 
1.8399999999998138, -0.4741032650914379 
1.8499999999998127, -0.47442333855574487 
1.8599999999998116, -0.4748563848906254 
1.8699999999998105, -0.4754417328083808 
1.8799999999998094, -0.47620903470409476 
1.8899999999998083, -0.4771602142721433 
1.8999999999998072, -0.4782531887628044 
1.909999999999806, -0.4793981148040822 
1.919999999999805, -0.4804760632324506 
1.9299999999998039, -0.48137595147274076 
1.9399999999998028, -0.4820275778176416 
1.9499999999998017, -0.48241014432364004 
1.9599999999998006, -0.4825370673646036 
1.9699999999997995, -0.48243278938377665 
1.9799999999997984, -0.4821137932295853 
1.9899999999997973, -0.4815757185208026 
1.9999999999997962, -0.4807819757657515 
2.0099999999998173, -0.47964644465486783 
2.0199999999998384, -0.47799935774278773 
2.0299999999998595, -0.4755177645418428 
2.0399999999998806, -0.47159179381850536 
2.0499999999999017, -0.4651133823865906 
2.059999999999923, -0.45432676782070336 
2.069999999999944, -0.4373187465713319 
2.079999999999965, -0.41385513082515646 
2.089999999999986, -0.38719604709967725 
2.100000000000007, -0.36249589730065956 
2.1100000000000283, -0.343060549585407 
2.1200000000000494, -0.3292521301101684 
2.1300000000000705, -0.31991243808426206 
2.1400000000000916, -0.313691294703378 
2.1500000000001127, -0.3095406051236904 
2.160000000000134, -0.30675341394451194 
2.170000000000155, -0.30487886331907094 
2.180000000000176, -0.30363668011261585 
2.190000000000197, -0.3028569356428878 
2.2000000000002182, -0.30244262809170575 
2.2100000000002393, -0.3023484776791676 
2.2200000000002604, -0.3025709745620109 
2.2300000000002815, -0.3031470174187824 
2.2400000000003026, -0.304160402105652 
2.2500000000003237, -0.3057568675803549 
2.260000000000345, -0.30816902279648245 
2.270000000000366, -0.31175044043434263 
2.280000000000387, -0.31700763654517317 
2.290000000000408, -0.3245860463488201 
2.3000000000004293, -0.33509884940023854 
2.3100000000004504, -0.34864613270967487 
2.3200000000004715, -0.3641324596071013 
2.3300000000004926, -0.37920166428913615 
2.3400000000005137, -0.39151201767472643 
2.3500000000005348, -0.40016300959526685 
2.360000000000556, -0.40565753719605135 
2.370000000000577, -0.40896970674633193 
2.380000000000598, -0.4109210714387575 
2.390000000000619, -0.41204507185824096 
2.4000000000006403, -0.4126512517315305 
2.4100000000006614, -0.41290870833614335 
2.4200000000006825, -0.41290276988210745 
2.4300000000007036, -0.4126674121286378 
2.4400000000007247, -0.41220398541616665 
2.450000000000746, -0.4114955877960969 
2.460000000000767, -0.4105242711179472 
2.470000000000788, -0.4092939777696471 
2.480000000000809, -0.4078528869257467 
2.49000000000083, -0.4062992061692001 
2.5000000000008513, -0.4047588146957984 
2.5100000000008724, -0.40334527455959834 
2.5200000000008935, -0.4021282188372696 
2.5300000000009146, -0.4011254847786197 
2.5400000000009357, -0.40031430825737424 
2.550000000000957, -0.39964957855012395 
2.560000000000978, -0.3990809486334724 
2.570000000000999, -0.39856514381373337 
2.58000000000102, -0.3980723325314981 
2.5900000000010412, -0.39758751976028855 
2.6000000000010624, -0.3971096213410229 
2.6100000000010835, -0.3966513082964921 
2.6200000000011046, -0.396242251336521 
2.6300000000011257, -0.39593822103397985 
2.6400000000011468, -0.3958393377109762 
2.650000000001168, -0.3961224265263239 
2.660000000001189, -0.3970927950636701 
2.67000000000121, -0.3992508382307677 
2.680000000001231, -0.40331817240704215 
2.6900000000012523, -0.4100049889433291 
2.7000000000012734, -0.4190138582513261 
2.7100000000012945, -0.42709358905422806 
2.7200000000013156, -0.4277604992980851 
2.7300000000013367, -0.4170550978905096 
2.740000000001358, -0.3992673844825569 
2.750000000001379, -0.38205426922065955 
2.7600000000014, -0.3693433224702257 
2.770000000001421, -0.36117505338998257 
2.780000000001442, -0.35626330532325357 
2.7900000000014633, -0.3533988583001557 
2.8000000000014844, -0.35175778135306596 
2.8100000000015055, -0.3508373342500454 
2.8200000000015266, -0.35034320675512454 
2.8300000000015477, -0.3501059325790058 
2.840000000001569, -0.35002948338474227 
2.85000000000159, -0.35006198390584176 
2.860000000001611, -0.35018008598322 
2.870000000001632, -0.3503816744251735 
2.8800000000016532, -0.3506836067197906 
2.8900000000016743, -0.35112196192412704 
2.9000000000016954, -0.35175219206392105 
2.9100000000017165, -0.3526461407433559 
2.9200000000017377, -0.3538822995681708 
2.9300000000017588, -0.3555249045857871 
2.94000000000178, -0.357588704527458 
2.950000000001801, -0.3599962670485377 
2.960000000001822, -0.36255659915230753 
2.970000000001843, -0.3650040606784164 
2.9800000000018643, -0.3670950883291729 
2.9900000000018854, -0.3686944920994427 
3.0000000000019065, -0.36978876762316365 
3.0100000000019276, -0.37043867059728164 
3.0200000000019487, -0.3707227559957944 
3.03000000000197, -0.3707014108378257 
3.040000000001991, -0.37040053648633275 
3.050000000002012, -0.36980372595681466 
3.060000000002033, -0.3688444773455438 
3.070000000002054, -0.3673965241267257 
3.0800000000020753, -0.3652704830587172 
3.0900000000020964, -0.3622416142676924 
3.1000000000021175, -0.35814581999904205 
3.1100000000021386, -0.3530432869255344 
3.1200000000021597, -0.3473308884712181 
3.130000000002181, -0.34163276180126384 
3.140000000002202, -0.3365104488649249 
3.150000000002223, -0.3322547542215066 
3.160000000002244, -0.328890892551787 
3.1700000000022652, -0.32629605594490985 
3.1800000000022863, -0.32430505683518385 
3.1900000000023074, -0.32276644386539777 
3.2000000000023285, -0.32156223777852466 
3.2100000000023496, -0.320610277491504 
3.2200000000023707, -0.3198607456821081 
3.230000000002392, -0.3192925119712514 
3.240000000002413, -0.3189121581214598 
3.250000000002434, -0.3187577162886359 
3.260000000002455, -0.3189095708115903 
3.2700000000024763, -0.31951263406658326 
3.2800000000024974, -0.32081712421293584 
3.2900000000025185, -0.32325011529069914 
3.3000000000025396, -0.3275337951122335 
3.3100000000025607, -0.33485345150195045 
3.3200000000025818, -0.34698964790108877 
3.330000000002603, -0.36602459111237723 
3.340000000002624, -0.3927311878723668 
3.350000000002645, -0.42352259678209814 
3.360000000002666, -0.4502025639772437 
3.3700000000026873, -0.4667032480939241 
3.3800000000027084, -0.47408426406661996 
3.3900000000027295, -0.4766970344436068 
3.4000000000027506, -0.4776410819796616 
3.4100000000027717, -0.4781791038777271 
3.420000000002793, -0.4786426667244291 
3.430000000002814, -0.4790647417604467 
3.440000000002835, -0.47942025431667795 
3.450000000002856, -0.4796879092660388 
3.460000000002877, -0.47985662832450976 
3.4700000000028983, -0.47992039900946554 
3.4800000000029194, -0.4798734722680562 
3.4900000000029405, -0.4797085077976758 
3.5000000000029616, -0.479418372331126 
3.5100000000029827, -0.4790018521643957 
3.520000000003004, -0.47847202177379505 
3.530000000003025, -0.4778629398873022 
3.540000000003046, -0.47722836729609835 
3.550000000003067, -0.4766295390246971 
3.5600000000030882, -0.476116824036002 
3.5700000000031094, -0.47571469155262636 
3.5800000000031305, -0.47541650718232215 
3.5900000000031516, -0.4751899229914084 
3.6000000000031727, -0.4749896869678416 
3.6100000000031938, -0.47477236951915536 
3.620000000003215, -0.4745069848700988 
3.630000000003236, -0.4741784197121337 
3.640000000003257, -0.47378531614861596 
3.650000000003278, -0.4733366651110319 
3.6600000000032993, -0.4728509006270385 
3.6700000000033204, -0.472359954431813 
3.6800000000033415, -0.4719205275955785 
3.6900000000033626, -0.47163618112868144 
3.7000000000033837, -0.4716959782216376 
3.710000000003405, -0.472435352164696 
3.720000000003426, -0.47441160714336794 
3.730000000003447, -0.4784265261565648 
3.740000000003468, -0.4852602564739592 
3.750000000003489, -0.4946675165008954 
3.7600000000035103, -0.5037353428387151 
3.7700000000035314, -0.5071666981703807 
3.7800000000035525, -0.5021293042448257 
3.7900000000035736, -0.4918324471627128 
3.8000000000035947, -0.48158734864508607 
3.810000000003616, -0.47413185048549955 
3.820000000003637, -0.469580208820788 
3.830000000003658, -0.46709773355582207 
3.840000000003679, -0.465866322304947 
3.8500000000037002, -0.4653246339831302 
3.8600000000037213, -0.465135958026473 
3.8700000000037424, -0.46511031132730374 
3.8800000000037635, -0.4651432943658448 
3.8900000000037847, -0.46517762115874717 
3.9000000000038058, -0.465181227827203 
3.910000000003827, -0.465136151953465 
3.920000000003848, -0.46503454389211096 
3.930000000003869, -0.46487946871641156 
3.94000000000389, -0.46468794232433686 
3.9500000000039113, -0.46449244416403823 
3.9600000000039324, -0.46433691768685037 
3.9700000000039535, -0.46426591914377113 
3.9800000000039746, -0.4643099584353739 
3.9900000000039957, -0.46447268024804045 
4.000000000004016, -0.4647252828812456 
4.010000000003993, -0.46501186188710186 
4.02000000000397, -0.46526544271345865 
4.030000000003946, -0.4654278075367408 
4.040000000003923, -0.465462586101643 
4.0500000000039, -0.46535612229213336 
4.0600000000038765, -0.4651094071745244 
4.070000000003853, -0.4647279688081502 
4.08000000000383, -0.46421410418514053 
4.090000000003807, -0.4635620260199693 
4.100000000003783, -0.46275412822109674 
4.11000000000376, -0.46175465615133077 
4.120000000003737, -0.46049210051732714 
4.130000000003713, -0.4588064979760406 
4.14000000000369, -0.4562997469887137 
4.150000000003667, -0.451967425022411 
4.1600000000036434, -0.4435608130876765 
4.17000000000362, -0.4274091412491104 
4.180000000003597, -0.40090577790838555 
4.1900000000035735, -0.36731396242176045 
4.20000000000355, -0.3350121973373738 
4.210000000003527, -0.31006481926574747 
4.220000000003504, -0.2931941802862176 
4.23000000000348, -0.28245505393114473 
4.240000000003457, -0.2757304923811128 
4.250000000003434, -0.2715018171773255 
4.26000000000341, -0.2688173712509799 
4.270000000003387, -0.26710804824335965 
4.280000000003364, -0.2660387005946435 
4.2900000000033405, -0.26541476808206543 
4.300000000003317, -0.26512857398078926 
4.310000000003294, -0.2651302989472526 
4.320000000003271, -0.2654142969847427 
4.330000000003247, -0.26601592474380664 
4.340000000003224, -0.26701701222840124 
4.350000000003201, -0.2685599081708637 
4.360000000003177, -0.2708704922000678 
4.370000000003154, -0.2742875807766722 
4.380000000003131, -0.2792831709987628 
4.390000000003107, -0.28642194673204 
4.400000000003084, -0.29614777297783834 
4.410000000003061, -0.308296339467517 
4.4200000000030375, -0.3215850200454839 
4.430000000003014, -0.33388621347687364 
4.440000000002991, -0.34350149118430207 
4.450000000002968, -0.35006130832780913 
4.460000000002944, -0.35416740962458626 
4.470000000002921, -0.35662799393821054 
4.480000000002898, -0.3580670921154384 
4.490000000002874, -0.35887679271174605 
4.500000000002851, -0.35928130315219076 
4.510000000002828, -0.3594010759712642 
4.520000000002804, -0.35929457114554536 
4.530000000002781, -0.3589829720607833 
4.540000000002758, -0.358466760339633 
4.5500000000027345, -0.3577412699118466 
4.560000000002711, -0.3568147582474893 
4.570000000002688, -0.3557260464356764 
4.580000000002665, -0.3545515071168631 
4.590000000002641, -0.3533919825525214 
4.600000000002618, -0.3523439193419759 
4.610000000002595, -0.3514721893111743 
4.620000000002571, -0.35079842584977483 
4.630000000002548, -0.35030490741023534 
4.640000000002525, -0.3499468856074144 
4.6500000000025015, -0.34966767891049844 
4.660000000002478, -0.34941286405711297 
4.670000000002455, -0.34914002160223107 
4.6800000000024315, -0.3488218126027721 
4.690000000002408, -0.34844331893231245 
4.700000000002385, -0.34799669523259913 
4.710000000002362, -0.3474756823163988 
4.720000000002338, -0.34687048874926674 
4.730000000002315, -0.3461609714910921 
4.740000000002292, -0.3453017371711043 
4.750000000002268, -0.3441821000855351 
4.760000000002245, -0.34251693660031884 
4.770000000002222, -0.3395732124196442 
4.7800000000021985, -0.3336292052580886 
4.790000000002175, -0.3215051812730514 
4.800000000002152, -0.2999409839778834 
4.810000000002129, -0.27015872367351756 
4.820000000002105, -0.2395129041486448 
4.830000000002082, -0.21491583308161216 
4.840000000002059, -0.19801555141291968 
4.850000000002035, -0.1871861658400119 
4.860000000002012, -0.18035312837060552 
4.870000000001989, -0.17599373526363699 
4.880000000001965, -0.17315798831503976 
