t, s[1].omega / s[0].omega 
0, -1.6999925051705016 
0.009999999999999995, -1.6989909222778763 
0.019999999999999934, -1.697440664424277 
0.029999999999999874, -1.6952635911334581 
0.04000000000000012, -1.692431207224494 
0.050000000000000405, -1.6891295864200415 
0.06000000000000069, -1.6859949462588184 
0.07000000000000098, -1.683952608348196 
0.08000000000000126, -1.683322652510265 
0.09000000000000155, -1.683486053588922 
0.10000000000000184, -1.6837215044340674 
0.11000000000000212, -1.6836962595126745 
0.12000000000000241, -1.6832989122464048 
0.130000000000002, -1.6824166566414704 
0.1400000000000009, -1.6808516782058849 
0.1499999999999998, -1.6784915239361582 
0.1599999999999987, -1.676165625015313 
0.1699999999999976, -1.6768526345057488 
0.1799999999999965, -1.6833805985862587 
0.1899999999999954, -1.6935163610639474 
0.1999999999999943, -1.7027494872205964 
0.2099999999999932, -1.7091733351795937 
0.2199999999999921, -1.7130454791712126 
0.229999999999991, -1.7151389694960848 
0.2399999999999899, -1.7160920867461882 
0.2499999999999888, -1.7163217819214183 
0.2599999999999877, -1.716080336281875 
0.2699999999999866, -1.7155275487097998 
0.2799999999999855, -1.7147903500831316 
0.2899999999999844, -1.7139922727314094 
0.2999999999999833, -1.713251505745157 
0.3099999999999822, -1.7126791809917534 
0.3199999999999811, -1.7123536604554945 
0.32999999999998, -1.712236331375744 
0.3399999999999789, -1.7121602109533032 
0.3499999999999778, -1.7119283407697878 
0.35999999999997667, -1.7113502742256905 
0.36999999999997557, -1.7101557052910459 
0.37999999999997447, -1.7078197609742056 
0.38999999999997337, -1.7032993246124069 
0.39999999999997227, -1.6948277198952404 
0.40999999999997117, -1.6808435297850401 
0.41999999999997006, -1.6644276198665948 
0.42999999999996896, -1.6563994074074544 
0.43999999999996786, -1.6615808253280737 
0.44999999999996676, -1.6710459074505468 
0.45999999999996566, -1.6778283864117156 
0.46999999999996456, -1.6814020098503477 
0.47999999999996346, -1.6829954394595155 
0.48999999999996235, -1.6835276401347763 
0.49999999999996125, -1.683477711233973 
0.5099999999999602, -1.683089779311 
0.519999999999959, -1.6825541106101205 
0.529999999999958, -1.682128753252076 
0.5399999999999568, -1.6820977234573449 
0.5499999999999557, -1.6825429246108399 
0.5599999999999546, -1.6832709366727532 
0.5699999999999535, -1.6840219947769122 
0.5799999999999524, -1.684619615057774 
0.5899999999999513, -1.6849619433152578 
0.5999999999999502, -1.6849805605345787 
0.6099999999999491, -1.6846104708215826 
0.619999999999948, -1.683766308668444 
0.6299999999999469, -1.6823253190885872 
0.6399999999999458, -1.6801210108527833 
0.6499999999999447, -1.676964195738043 
0.6599999999999436, -1.6727531063810321 
0.6699999999999425, -1.6677883664166728 
0.6799999999999414, -1.6631850707608256 
0.6899999999999403, -1.6604472817213385 
0.6999999999999392, -1.659867534354536 
0.7099999999999381, -1.660325732473676 
0.719999999999937, -1.6608046747986773 
0.7299999999999359, -1.6609443331476097 
0.7399999999999348, -1.6606906265860946 
0.7499999999999337, -1.660009646630175 
0.7599999999999326, -1.658818967140051 
0.7699999999999315, -1.6571474069697651 
0.7799999999999304, -1.655721637122009 
0.7899999999999293, -1.6565517204000855 
0.7999999999999282, -1.6612991529678918 
0.8099999999999271, -1.668540059017952 
0.819999999999926, -1.6754301836552734 
0.8299999999999249, -1.6805533512166668 
0.8399999999999238, -1.683872184567139 
0.8499999999999227, -1.68579903542654 
0.8599999999999216, -1.6867440059748908 
0.8699999999999205, -1.6870093937173571 
0.8799999999999194, -1.686796713217613 
0.8899999999999183, -1.686240524885104 
0.8999999999999172, -1.685446780367423 
0.9099999999999161, -1.6845221267579178 
0.919999999999915, -1.6835863365564794 
0.9299999999999139, -1.682780209964741 
0.9399999999999128, -1.6822435215070457 
0.9499999999999117, -1.6820081654255687 
0.9599999999999106, -1.6819311265177912 
0.9699999999999095, -1.681795152015135 
0.9799999999999084, -1.681406597727729 
0.9899999999999073, -1.6805538208805113 
0.9999999999999062, -1.6788663607743235 
1.0099999999999052, -1.6755955057292844 
1.019999999999904, -1.6693490511475428 
1.029999999999903, -1.658310845844816 
1.039999999999902, -1.64292610268996 
1.0499999999999008, -1.6311587617891299 
1.0599999999998997, -1.6327231835419203 
1.0699999999998986, -1.6432795789885801 
1.0799999999998975, -1.6528981959959044 
1.0899999999998964, -1.6585756571801364 
1.0999999999998953, -1.661350541263987 
1.1099999999998942, -1.662512480930398 
1.119999999999893, -1.6628176848633545 
1.129999999999892, -1.6626422795354796 
1.1399999999998909, -1.6621940511042559 
1.1499999999998898, -1.6616708980281352 
1.1599999999998887, -1.6613380013533736 
1.1699999999998876, -1.661424016293235 
1.1799999999998865, -1.6619227133490178 
1.1899999999998854, -1.6626204020547166 
1.1999999999998843, -1.663294839903164 
1.2099999999998832, -1.6638002397692613 
1.219999999999882, -1.6640452865802646 
1.229999999999881, -1.6639615638048468 
1.2399999999998799, -1.6634785030736652 
1.2499999999998788, -1.6625022644128502 
1.2599999999998777, -1.6609019395115343 
1.2699999999998766, -1.6585082197380738 
1.2799999999998755, -1.6551457393122042 
1.2899999999998744, -1.6507674517501745 
1.2999999999998733, -1.6457894451962383 
1.3099999999998722, -1.641417796435141 
1.319999999999871, -1.639017227150609 
1.32999999999987, -1.6386239354541974 
1.3399999999998689, -1.6390951592883027 
1.3499999999998678, -1.6395272976029542 
1.3599999999998666, -1.6396196788030715 
1.3699999999998655, -1.6393240135037082 
1.3799999999998644, -1.6385947954591509 
1.3899999999998633, -1.6373331007753031 
1.3999999999998622, -1.6355513002757505 
1.4099999999998611, -1.633985446755167 
1.41999999999986, -1.6347641772745902 
1.429999999999859, -1.6397941319983016 
1.4399999999998578, -1.6476977386343556 
1.4499999999998567, -1.6553456949043128 
1.4599999999998556, -1.661076119108674 
1.4699999999998545, -1.6648003488669896 
1.4799999999998534, -1.6669761579373343 
1.4899999999998523, -1.6680725743778453 
1.4999999999998512, -1.668437171058151 
1.5099999999998501, -1.6683007780103878 
1.519999999999849, -1.6678154283626228 
1.529999999999848, -1.667097339275675 
1.5399999999998468, -1.6662590864089015 
1.5499999999998457, -1.6654180951449935 
1.5599999999998446, -1.6646948000662085 
1.5699999999998435, -1.6642014433990593 
1.5799999999998424, -1.6639723193965086 
1.5899999999998413, -1.663897519559913 
1.5999999999998402, -1.6637844339719705 
1.6099999999998391, -1.663448076618693 
1.619999999999838, -1.6626929370086967 
1.629999999999837, -1.6611994779111883 
1.6399999999998358, -1.658340141852933 
1.6499999999998347, -1.6529303221896743 
1.6599999999998336, -1.6431718882816753 
1.6699999999998325, -1.62803426460833 
1.6799999999998314, -1.6117007136753092 
1.6899999999998303, -1.6043980880081343 
1.6999999999998292, -1.608990317894179 
1.709999999999828, -1.6172011411028762 
1.719999999999827, -1.623166571953518 
1.729999999999826, -1.6263796143216651 
1.7399999999998248, -1.6278376284900489 
1.7499999999998237, -1.62832389784542 
1.7599999999998226, -1.6282589031006651 
1.7699999999998215, -1.6278591826891269 
1.7799999999998204, -1.6272972783580997 
1.7899999999998193, -1.6268332183568543 
1.7999999999998182, -1.6268104321905086 
1.809999999999817, -1.6274058595495746 
1.819999999999816, -1.6284404660572087 
1.8299999999998149, -1.6295724017761166 
1.8399999999998138, -1.6305481123936327 
1.8499999999998127, -1.6312410243790723 
1.8599999999998116, -1.6315952161291822 
1.8699999999998105, -1.631580396065735 
1.8799999999998094, -1.6311671041665143 
1.8899999999998083, -1.6303141697260917 
1.8999999999998072, -1.6289650569725935 
1.909999999999806, -1.6270548064816737 
1.919999999999805, -1.624541154216855 
1.9299999999998039, -1.6214943965080888 
1.9399999999998028, -1.618270461711596 
1.9499999999998017, -1.6155983297934828 
1.9599999999998006, -1.614149882783348 
1.9699999999997995, -1.6138480304915876 
1.9799999999997984, -1.6140361336594455 
1.9899999999997973, -1.614178600884235 
1.9999999999997962, -1.614047210099227 
2.0099999999998173, -1.6135364998992057 
2.0199999999998384, -1.6124944305270534 
2.0299999999998595, -1.610644689720712 
2.0399999999998806, -1.6077146992949358 
2.0499999999999017, -1.6042721419457873 
2.059999999999923, -1.6034355317662612 
2.069999999999944, -1.609680762696644 
2.079999999999965, -1.6221680697470546 
2.089999999999986, -1.634925365852562 
2.100000000000007, -1.644217255215039 
2.1100000000000283, -1.6498778343600855 
2.1200000000000494, -1.6529686195227833 
2.1300000000000705, -1.6544704704920694 
2.1400000000000916, -1.6550266184717266 
2.1500000000001127, -1.655012617978859 
2.160000000000134, -1.654648048272842 
2.170000000000155, -1.6540884208325193 
2.180000000000176, -1.6534794762228024 
2.190000000000197, -1.6529525715710789 
2.2000000000002182, -1.6525866098891562 
2.2100000000002393, -1.6524023496964813 
2.2200000000002604, -1.6523691501893285 
2.2300000000002815, -1.6523913826838394 
2.2400000000003026, -1.6523278807892503 
2.2500000000003237, -1.652030503129811 
2.260000000000345, -1.6513317802015348 
2.270000000000366, -1.6499761124693688 
2.280000000000387, -1.6475173934309066 
2.290000000000408, -1.6432031609975148 
2.3000000000004293, -1.6359469560830253 
2.3100000000004504, -1.6247987034982903 
2.3200000000004715, -1.6107054347378758 
2.3300000000004926, -1.5985954938519533 
2.3400000000005137, -1.593882338572998 
2.3500000000005348, -1.5953953000678174 
2.360000000000556, -1.5984005656916218 
2.370000000000577, -1.6005431914491943 
2.380000000000598, -1.601624433033771 
2.390000000000619, -1.6019659269516087 
2.4000000000006403, -1.6018189275220418 
2.4100000000006614, -1.6013157987614712 
2.4200000000006825, -1.600568514465131 
2.4300000000007036, -1.5998500373219953 
2.4400000000007247, -1.5997477348912916 
2.450000000000746, -1.600872883027904 
2.460000000000767, -1.6031653374008947 
2.470000000000788, -1.605894930244758 
2.480000000000809, -1.6083749525177975 
2.49000000000083, -1.6102969289766005 
2.5000000000008513, -1.6116117273586077 
2.5100000000008724, -1.6123679763867003 
2.5200000000008935, -1.6126327965260523 
2.5300000000009146, -1.6124649103863473 
2.5400000000009357, -1.611909091811994 
2.550000000000957, -1.6110004094151962 
2.560000000000978, -1.6097768546688083 
2.570000000000999, -1.608302281416267 
2.58000000000102, -1.6067043794610203 
2.5900000000010412, -1.6052175717176103 
2.6000000000010624, -1.6041413973532328 
2.6100000000010835, -1.6036251391431904 
2.6200000000011046, -1.603508393313394 
2.6300000000011257, -1.6034812594249022 
2.6400000000011468, -1.6032993874463508 
2.650000000001168, -1.6027914319540624 
2.660000000001189, -1.6017404578127725 
2.67000000000121, -1.5997276289654327 
2.680000000001231, -1.5959476017063727 
2.6900000000012523, -1.589188757860986 
2.7000000000012734, -1.578988502741663 
2.7100000000012945, -1.5693764830754628 
2.7200000000013156, -1.5696229239820179 
2.7300000000013367, -1.581855326151619 
2.740000000001358, -1.596648873906374 
2.750000000001379, -1.607104839486512 
2.7600000000014, -1.6128995045184116 
2.770000000001421, -1.6157314853626907 
2.780000000001442, -1.6169486608740342 
2.7900000000014633, -1.6173009786307795 
2.8000000000014844, -1.6171666709199077 
2.8100000000015055, -1.6167553110535824 
2.8200000000015266, -1.6162475146377244 
2.8300000000015477, -1.6158633973246541 
2.840000000001569, -1.6157992409877564 
2.85000000000159, -1.6160858754006764 
2.860000000001611, -1.6165851525546064 
2.870000000001632, -1.6171214511950445 
2.8800000000016532, -1.6175565346976886 
2.8900000000016743, -1.6177882049620735 
2.9000000000016954, -1.6177349359370776 
2.9100000000017165, -1.617317896313957 
2.9200000000017377, -1.6164407595886243 
2.9300000000017588, -1.6149747492243454 
2.94000000000178, -1.6127546635527932 
2.950000000001801, -1.6095982384628553 
2.960000000001822, -1.6053923664187812 
2.970000000001843, -1.600333404244881 
2.9800000000018643, -1.5952956871540358 
2.9900000000018854, -1.591720032943266 
3.0000000000019065, -1.5903666206199725 
3.0100000000019276, -1.5905135157913386 
3.0200000000019487, -1.5910298082369558 
3.03000000000197, -1.5913324378600548 
3.040000000001991, -1.5912768617208388 
3.050000000002012, -1.590831038758437 
3.060000000002033, -1.5899195237650088 
3.070000000002054, -1.588416566461885 
3.0800000000020753, -1.5863805142307743 
3.0900000000020964, -1.5847907626528683 
3.1000000000021175, -1.5861611601861616 
3.1100000000021386, -1.5924320065652897 
3.1200000000021597, -1.601772376670441 
3.130000000002181, -1.6106308914573735 
3.140000000002202, -1.617199781913167 
3.150000000002223, -1.6214336129119116 
3.160000000002244, -1.623895528090126 
3.1700000000022652, -1.6251510885699485 
3.1800000000022863, -1.625614695863637 
3.1900000000023074, -1.6255572728736074 
3.2000000000023285, -1.6251537267389284 
3.2100000000023496, -1.6245347700723425 
3.2200000000023707, -1.623824191862211 
3.230000000002392, -1.6231422965738886 
3.240000000002413, -1.622586844565707 
3.250000000002434, -1.622223601379933 
3.260000000002455, -1.6220639382543414 
3.2700000000024763, -1.6220267376830317 
3.2800000000024974, -1.6219607719772953 
3.2900000000025185, -1.621705747875214 
3.3000000000025396, -1.6210953384456954 
3.3100000000025607, -1.6198886152696166 
3.3200000000025818, -1.6176566271854154 
3.330000000002603, -1.613636576092126 
3.340000000002624, -1.606630347437753 
3.350000000002645, -1.5953337888021817 
3.360000000002666, -1.5800328852334882 
3.3700000000026873, -1.5654172220997575 
3.3800000000027084, -1.558445817890155 
3.3900000000027295, -1.559601408382327 
3.4000000000027506, -1.5634806450573735 
3.4100000000027717, -1.5665517270216374 
3.420000000002793, -1.5682562814597587 
3.430000000002814, -1.5689781441387456 
3.440000000002835, -1.569083488651462 
3.450000000002856, -1.568777005056055 
3.460000000002877, -1.5681730952692368 
3.4700000000028983, -1.5674308931501908 
3.4800000000029194, -1.5669305338094413 
3.4900000000029405, -1.5672781729287866 
3.5000000000029616, -1.5688315995419824 
3.5100000000029827, -1.5712451404816627 
3.520000000003004, -1.5738121350369456 
3.530000000003025, -1.5760280411341343 
3.540000000003046, -1.577701052428944 
3.550000000003067, -1.5788153595947345 
3.5600000000030882, -1.5794169943637963 
3.5700000000031094, -1.5795626037855572 
3.5800000000031305, -1.5793022284763187 
3.5900000000031516, -1.5786764071710324 
3.6000000000031727, -1.5777213423930085 
3.6100000000031938, -1.5764818989147666 
3.620000000003215, -1.5750334358203684 
3.630000000003236, -1.5735144014414317 
3.640000000003257, -1.5721533285269609 
3.650000000003278, -1.5712079357845483 
3.6600000000032993, -1.5707719256911115 
3.6700000000033204, -1.5706725580317333 
3.6800000000033415, -1.5706287221502613 
3.6900000000033626, -1.570420488779667 
3.7000000000033837, -1.569881578466405 
3.710000000003405, -1.5687890478727944 
3.720000000003426, -1.566713395999077 
3.730000000003447, -1.5628252009454244 
3.740000000003468, -1.555788759565538 
3.750000000003489, -1.544531201871789 
3.7600000000035103, -1.531438173368072 
3.7700000000035314, -1.52506037587181 
3.7800000000035525, -1.5313146306761034 
3.7900000000035736, -1.5439029617453637 
3.8000000000035947, -1.554448606273075 
3.810000000003616, -1.5607820127307157 
3.820000000003637, -1.5640232813403014 
3.830000000003658, -1.5654916439451219 
3.840000000003679, -1.5659978043677771 
3.8500000000037002, -1.565960520556939 
3.8600000000037213, -1.5655980567414942 
3.8700000000037424, -1.5650759443644633 
3.8800000000037635, -1.5646155199780933 
3.8900000000037847, -1.5644987634163026 
3.9000000000038058, -1.5648970572396343 
3.910000000003827, -1.5657145703204753 
3.920000000003848, -1.5666917729721535 
3.930000000003869, -1.5675985548154436 
3.94000000000389, -1.568295738846144 
3.9500000000039113, -1.568708465611517 
3.9600000000039324, -1.568793519072298 
3.9700000000039535, -1.5685176465840807 
3.9800000000039746, -1.5678449545002273 
3.9900000000039957, -1.566732085578915 
4.000000000004016, -1.5651310452416254 
4.010000000003993, -1.563004756963523 
4.02000000000397, -1.560371554002272 
4.030000000003946, -1.5574028379711709 
4.040000000003923, -1.5545443240081007 
4.0500000000039, -1.5524403506167255 
4.0600000000038765, -1.551455733313722 
4.070000000003853, -1.5513174577222009 
4.08000000000383, -1.5514643253921547 
4.090000000003807, -1.5515089211248998 
4.100000000003783, -1.5512772095845093 
4.11000000000376, -1.550651095589104 
4.120000000003737, -1.5494303052482414 
4.130000000003713, -1.5472374866353955 
4.14000000000369, -1.543558744785437 
4.150000000003667, -1.5384217892954588 
4.1600000000036434, -1.5344316265172107 
4.17000000000362, -1.5375590979933575 
4.180000000003597, -1.5502890918537802 
4.1900000000035735, -1.5664295299410635 
4.20000000000355, -1.5792950849470937 
4.210000000003527, -1.5873233683424712 
4.220000000003504, -1.5917092240779902 
4.23000000000348, -1.5938812762657892 
4.240000000003457, -1.5947997791716622 
4.250000000003434, -1.595007086837825 
4.26000000000341, -1.594796863552967 
4.270000000003387, -1.5943513711929698 
4.280000000003364, -1.593834604214205 
4.2900000000033405, -1.5934204924356945 
4.300000000003317, -1.5932343106310207 
4.310000000003294, -1.593286120883823 
4.320000000003271, -1.5934968348844074 
4.330000000003247, -1.5937590263873402 
4.340000000003224, -1.5939595193401466 
4.350000000003201, -1.5939879438624787 
4.360000000003177, -1.593739838015138 
4.370000000003154, -1.5930999602040896 
4.380000000003131, -1.591913848988649 
4.390000000003107, -1.5899636249910858 
4.400000000003084, -1.586960691953308 
4.410000000003061, -1.582583174742627 
4.4200000000030375, -1.5766408617250143 
4.430000000003014, -1.569506809203878 
4.440000000002991, -1.562669317963076 
4.450000000002968, -1.55826184496173 
4.460000000002944, -1.556991572388639 
4.470000000002921, -1.5575156083306847 
4.480000000002898, -1.558332798909623 
4.490000000002874, -1.558819858755502 
4.500000000002851, -1.5588863330035647 
4.510000000002828, -1.5585563341278832 
4.520000000002804, -1.5578118729202095 
4.530000000002781, -1.556595949754738 
4.540000000002758, -1.5549995855961014 
4.5500000000027345, -1.5537789142916958 
4.560000000002711, -1.5547674275386456 
4.570000000002688, -1.5595189588127227 
4.580000000002665, -1.5670091172807559 
4.590000000002641, -1.5746180901726128 
4.600000000002618, -1.5806674215942254 
4.610000000002595, -1.5848363274235528 
4.620000000002571, -1.587429341988384 
4.630000000002548, -1.5888639245531777 
4.640000000002525, -1.5894903789892163 
4.6500000000025015, -1.589560653817542 
4.660000000002478, -1.58924655100923 
4.670000000002455, -1.5886738437558374 
4.6800000000024315, -1.5879563636951632 
4.690000000002408, -1.5872109938989445 
4.700000000002385, -1.5865466445201197 
4.710000000002362, -1.586050283409497 
4.720000000002338, -1.58577070539739 
4.730000000002315, -1.585676911924143 
4.740000000002292, -1.5856456725182009 
4.750000000002268, -1.585517546391099 
4.760000000002245, -1.5851386794079925 
4.770000000002222, -1.5843302473034764 
4.7800000000021985, -1.5828060996933622 
4.790000000002175, -1.58005963612079 
4.800000000002152, -1.5752411977005196 
4.810000000002129, -1.56715757654846 
4.820000000002105, -1.554859311941118 
4.830000000002082, -1.5395412185887474 
4.840000000002059, -1.526433002722001 
4.850000000002035, -1.5210638343993157 
4.860000000002012, -1.5224399625623475 
4.870000000001989, -1.5257420261036994 
4.880000000001965, -1.528277456992003 
4.890000000001942, -1.529670813825439 
4.900000000001919, -1.530232498455836 
4.9100000000018955, -1.5302496339873177 
4.920000000001872, -1.5298790078306896 
4.930000000001849, -1.529206727961633 
4.940000000001826, -1.5283785485310282 
4.950000000001802, -1.5277995820418357 
