t, s[1].omega / s[0].omega 
0, -1.0199974683853679 
0.009999999999999995, -1.0196751639908863 
0.019999999999999934, -1.0194606245994642 
0.029999999999999874, -1.0191748026684426 
0.04000000000000012, -1.018860349299553 
0.050000000000000405, -1.0186289719336534 
0.06000000000000069, -1.0182540766297048 
0.07000000000000098, -1.0180168942592072 
0.08000000000000126, -1.01766614523298 
0.09000000000000155, -1.0173232157696228 
0.10000000000000184, -1.0170469304861054 
0.11000000000000212, -1.01661157545995 
0.12000000000000241, -1.0163571376356253 
0.130000000000002, -1.0159342162350957 
0.1400000000000009, -1.0155631711166866 
0.1499999999999998, -1.0152395276731465 
0.1599999999999987, -1.014734247619597 
0.1699999999999976, -1.0144667907090414 
0.1799999999999965, -1.0139601035542523 
0.1899999999999954, -1.0135631613575962 
0.1999999999999943, -1.0131868275033529 
0.2099999999999932, -1.012603817739603 
0.2199999999999921, -1.0123260852968847 
0.229999999999991, -1.0117232741590416 
0.2399999999999899, -1.0113047919089886 
0.2499999999999888, -1.0108702537708072 
0.2599999999999877, -1.0102070390894808 
0.2699999999999866, -1.009920322626947 
0.2799999999999855, -1.0092137632558476 
0.2899999999999844, -1.0087801527385976 
0.2999999999999833, -1.0082851432738584 
0.3099999999999822, -1.007548042940262 
0.3199999999999811, -1.0072528581200617 
0.32999999999998, -1.0064465688507493 
0.3399999999999789, -1.0060055438841051 
0.3499999999999778, -1.0054548405935129 
0.35999999999997667, -1.0046610266797082 
0.36999999999997557, -1.004358248825299 
0.37999999999997447, -1.003473482525389 
0.38999999999997337, -1.0030327713930494 
0.39999999999997227, -1.0024408199235335 
0.40999999999997117, -1.0016175272486885 
0.41999999999997006, -1.0013093856739828 
0.42999999999996896, -1.0003847840155597 
0.43999999999996786, -0.9999509552934253 
0.44999999999996676, -0.9993411750011774 
0.45999999999996566, -0.9985213696000999 
0.46999999999996456, -0.9982117060397814 
0.47999999999996346, -0.9972957652161137 
0.48999999999996235, -0.9968738003770509 
0.49999999999996125, -0.9962737765685796 
0.5099999999999602, -0.995489450952862 
0.519999999999959, -0.9951831159998298 
0.529999999999958, -0.9943217025758967 
0.5399999999999568, -0.9939153306027765 
0.5499999999999557, -0.9933499588203264 
0.5599999999999546, -0.9926258547841009 
0.5699999999999535, -0.9923276769358823 
0.5799999999999524, -0.9915531013897678 
0.5899999999999513, -0.9911653632503205 
0.5999999999999502, -0.9906516219427048 
0.6099999999999491, -0.9900019340148234 
0.619999999999948, -0.9897159164446043 
0.6299999999999469, -0.9890426781920503 
0.6399999999999458, -0.9886762410073304 
0.6499999999999447, -0.9882218508486007 
0.6599999999999436, -0.9876505173757495 
0.6699999999999425, -0.9873796778196903 
0.6799999999999414, -0.9868070739002793 
0.6899999999999403, -0.9864642366680935 
0.6999999999999392, -0.9860697012888062 
0.7099999999999381, -0.9855730434005805 
0.719999999999937, -0.985319888324176 
0.7299999999999359, -0.9848380886805701 
0.7399999999999348, -0.9845207045474208 
0.7499999999999337, -0.9841827794021559 
0.7599999999999326, -0.9837527526427566 
0.7699999999999315, -0.9835201225415927 
0.7799999999999304, -0.9831162130013317 
0.7899999999999293, -0.9828257273458545 
0.7999999999999282, -0.9825407514679204 
0.8099999999999271, -0.9821676661606984 
0.819999999999926, -0.9819597183534576 
0.8299999999999249, -0.9816220522487056 
0.8399999999999238, -0.9813596907837152 
0.8499999999999227, -0.981126299592319 
0.8599999999999216, -0.9808006580389301 
0.8699999999999205, -0.9806239536175796 
0.8799999999999194, -0.9803448333041238 
0.8899999999999183, -0.9801118568637835 
0.8999999999999172, -0.9799334499556499 
0.9099999999999161, -0.9796470401982198 
0.919999999999915, -0.9795119232449025 
0.9299999999999139, -0.9792894360263259 
0.9399999999999128, -0.9790873431278672 
0.9499999999999117, -0.9789751989063391 
0.9599999999999106, -0.9787217810185589 
0.9699999999999095, -0.9786444135181123 
0.9799999999999084, -0.9784844891904938 
0.9899999999999073, -0.9783150136770215 
0.9999999999999062, -0.9782934377513468 
1.0099999999999052, -0.9780694264904661 
1.019999999999904, -0.9780749886647369 
1.029999999999903, -0.9779949392475851 
1.039999999999902, -0.9778595489790095 
1.0499999999999008, -0.9779752468018896 
1.0599999999998997, -0.9777807873961954 
1.0699999999998986, -0.9779084749171615 
1.0799999999998975, -0.9779437099928933 
1.0899999999998964, -0.9778420223072084 
1.0999999999998953, -0.9781808758271824 
1.1099999999998942, -0.97802143966781 
1.119999999999893, -0.9783316029946667 
1.129999999999892, -0.978547528140783 
1.1399999999998909, -0.9784739498854212 
1.1499999999998898, -0.9791871587620901 
1.1599999999998887, -0.9790748333426422 
1.1699999999998876, -0.9796558364998693 
1.1799999999998865, -0.9801642564629944 
1.1899999999998854, -0.9801036875525926 
1.1999999999998843, -0.9814313153366669 
1.2099999999998832, -0.9813829958044112 
1.219999999999882, -0.9823445452534934 
1.229999999999881, -0.9833075018837493 
1.2399999999998799, -0.9832361358133485 
1.2499999999998788, -0.985466973242804 
1.2599999999998777, -0.9854945201111601 
1.2699999999998766, -0.9869162735617394 
1.2799999999998755, -0.9884760425590711 
1.2899999999998744, -0.9883761656867388 
1.2999999999998733, -0.9916285102286556 
1.3099999999998722, -0.9917193964604513 
1.319999999999871, -0.9935496492791112 
1.32999999999987, -0.9956242934371663 
1.3399999999998689, -0.9955053048344314 
1.3499999999998678, -0.9994017515666265 
1.3599999999998666, -0.9995071708541952 
1.3699999999998655, -1.0015141104902825 
1.3799999999998644, -1.0036602358361053 
1.3899999999998633, -1.0035595867802702 
1.3999999999998622, -1.007281243592156 
1.4099999999998611, -1.0073382691850594 
1.41999999999986, -1.0091955215626836 
1.429999999999859, -1.0108946522513225 
1.4399999999998578, -1.010849120003757 
1.4499999999998567, -1.013699612193951 
1.4599999999998556, -1.0136719535747305 
1.4699999999998545, -1.015127658113073 
1.4799999999998534, -1.0161898371003817 
1.4899999999998523, -1.0161978782679106 
1.4999999999998512, -1.0180151802283872 
1.5099999999998501, -1.0179067468146252 
1.519999999999849, -1.018900573075758 
1.529999999999848, -1.0194431212256612 
1.5399999999998468, -1.0194656488918201 
1.5499999999998457, -1.0204767116668059 
1.5599999999998446, -1.020312506014925 
1.5699999999998435, -1.020919431810441 
1.5799999999998424, -1.0211271312056969 
1.5899999999998413, -1.0211251128064338 
1.5999999999998402, -1.0216218197176357 
1.6099999999998391, -1.0214253479241948 
1.619999999999838, -1.0217502965275609 
1.629999999999837, -1.021758188410199 
1.6399999999998358, -1.0217129208767235 
1.6499999999998347, -1.0219051426838963 
1.6599999999998336, -1.0216888298352462 
1.6699999999998325, -1.02181932554008 
1.6799999999998314, -1.0217065587524166 
1.6899999999998303, -1.0216151190834568 
1.6999999999998292, -1.0216260125971084 
1.709999999999828, -1.0213926496601597 
1.719999999999827, -1.0213915312401471 
1.729999999999826, -1.0212008126222585 
1.7399999999998248, -1.0210671569466652 
1.7499999999998237, -1.0209632760920533 
1.7599999999998226, -1.0207109108234076 
1.7699999999998215, -1.020620043493772 
1.7799999999998204, -1.0203727457894778 
1.7899999999998193, -1.020202779316168 
1.7999999999998182, -1.0200182625570178 
1.809999999999817, -1.0197437684871384 
1.819999999999816, -1.0195891405913968 
1.8299999999998149, -1.0192938389130797 
1.8399999999998138, -1.01909367666956 
1.8499999999998127, -1.018844282691184 
1.8599999999998116, -1.01854500408207 
1.8699999999998105, -1.0183411460207723 
1.8799999999998094, -1.0179983525057186 
1.8899999999998083, -1.01777384464218 
1.8999999999998072, -1.0174643333062519 
1.909999999999806, -1.0171386913266443 
1.919999999999805, -1.0168920532890224 
1.9299999999998039, -1.0164972822124547 
1.9399999999998028, -1.0162537947247867 
1.9499999999998017, -1.0158818570179349 
1.9599999999998006, -1.0155296041908752 
1.9699999999997995, -1.0152411228948965 
1.9799999999997984, -1.014787455826255 
1.9899999999997973, -1.0145295973201498 
1.9999999999997962, -1.014088455732423 
2.0099999999998173, -1.013710882793826 
2.0199999999998384, -1.013378153859449 
2.0299999999998595, -1.0128589043003355 
2.0399999999998806, -1.012590211821337 
2.0499999999999017, -1.012071317505865 
2.059999999999923, -1.0116714643326472 
2.069999999999944, -1.0112909241619386 
2.079999999999965, -1.0107025628905628 
2.089999999999986, -1.0104253363959128 
2.100000000000007, -1.0098220515426033 
2.1100000000000283, -1.0094047710391183 
2.1200000000000494, -1.008974181373485 
2.1300000000000705, -1.0083192159939294 
2.1400000000000916, -1.008034739290485 
2.1500000000001127, -1.0073470746886317 
2.160000000000134, -1.0069187088572222 
2.170000000000155, -1.006439901161313 
2.180000000000176, -1.0057289657504 
2.190000000000197, -1.005438168271804 
2.2000000000002182, -1.0046773529351756 
2.2100000000002393, -1.004244939773139 
2.2200000000002604, -1.0037261378279236 
2.2300000000002815, -1.0029783164677202 
2.2400000000003026, -1.0026826037663379 
2.2500000000003237, -1.0018730637147175 
2.260000000000345, -1.0014433405621423 
2.270000000000366, -1.000899809842156 
2.280000000000387, -1.0001404832873122 
2.290000000000408, -0.9998422874708113 
2.3000000000004293, -0.9990188399898753 
2.3100000000004504, -0.9985975157274419 
2.3200000000004715, -0.9980495600345985 
2.3300000000004926, -0.9973060325375097 
2.3400000000005137, -0.9970087895435794 
2.3500000000005348, -0.9962092489130819 
2.360000000000556, -0.9958008241666272 
2.370000000000577, -0.9952695615954822 
2.380000000000598, -0.994565962206629 
2.390000000000619, -0.9942735926701926 
2.4000000000006403, -0.9935300282888684 
2.4100000000006614, -0.993138030147759 
2.4200000000006825, -0.9926409101082422 
2.4300000000007036, -0.9919943509637965 
2.4400000000007247, -0.991710617922781 
2.450000000000746, -0.9910434133061927 
2.460000000000767, -0.9906707014416628 
2.470000000000788, -0.9902188697359144 
2.480000000000809, -0.9896380706960535 
2.49000000000083, -0.9893662090772077 
2.5000000000008513, -0.9887829819490014 
2.5100000000008724, -0.9884319126094977 
2.5200000000008935, -0.9880301784867817 
2.5300000000009146, -0.9875164012823529 
2.5400000000009357, -0.9872591997999225 
2.550000000000957, -0.9867576678818359 
2.560000000000978, -0.9864301382641526 
2.570000000000999, -0.9860788255734745 
2.58000000000102, -0.9856280675976876 
2.5900000000010412, -0.9853883420797651 
2.6000000000010624, -0.9849607707252297 
2.6100000000010835, -0.9846582690840856 
2.6200000000011046, -0.9843557541082778 
2.6300000000011257, -0.9839611170374415 
2.6400000000011468, -0.9837424162461955 
2.650000000001168, -0.9833797180129176 
2.660000000001189, -0.9831034556619016 
2.67000000000121, -0.98284860816437 
2.680000000001231, -0.9825022171982968 
2.6900000000012523, -0.9823096668032288 
2.7000000000012734, -0.9820044000904004 
2.7100000000012945, -0.9817555111522056 
2.7200000000013156, -0.9815499173866977 
2.7300000000013367, -0.9812442399061826 
2.740000000001358, -0.9810855763799328 
2.750000000001379, -0.9808340210056218 
2.7600000000014, -0.9806137617475394 
2.770000000001421, -0.9804641368091631 
2.780000000001442, -0.9801928335899903 
2.7900000000014633, -0.9800798284961932 
2.8000000000014844, -0.9798837765375774 
2.8100000000015055, -0.9796936292317581 
2.8200000000015266, -0.9796152405781465 
2.8300000000015477, -0.9793738144786304 
2.840000000001569, -0.9793244146090194 
2.85000000000159, -0.9791935346162175 
2.860000000001611, -0.9790350580386106 
2.870000000001632, -0.9790574855917272 
2.8800000000016532, -0.9788440463802727 
2.8900000000016743, -0.9788856639078819 
2.9000000000016954, -0.9788415531062482 
2.9100000000017165, -0.978715658932608 
2.9200000000017377, -0.9788929334851814 
2.9300000000017588, -0.9787093380456627 
2.94000000000178, -0.9788837350999083 
2.950000000001801, -0.9789671190590921 
2.960000000001822, -0.9788722363491577 
2.970000000001843, -0.9792997508806683 
2.9800000000018643, -0.9791529877038597 
2.9900000000018854, -0.9795224737252107 
3.0000000000019065, -0.979804654816909 
3.0100000000019276, -0.9797334693476446 
3.0200000000019487, -0.9805705667805042 
3.03000000000197, -0.9804732018083885 
3.040000000001991, -0.9811239854715194 
3.050000000002012, -0.981718778165528 
3.060000000002033, -0.9816553226992207 
3.070000000002054, -0.9831338635421654 
3.0800000000020753, -0.9831005905998085 
3.0900000000020964, -0.9841279859759812 
3.1000000000021175, -0.9851807733917032 
3.1100000000021386, -0.9851041038247484 
3.1200000000021597, -0.9874567661680241 
3.130000000002181, -0.9874931500282571 
3.140000000002202, -0.9889437989523434 
3.150000000002223, -0.9905399570823293 
3.160000000002244, -0.9904394403384438 
3.1700000000022652, -0.9936717809433246 
3.1800000000022863, -0.9937573877587963 
3.1900000000023074, -0.9955446978708652 
3.2000000000023285, -0.9975278285864765 
3.2100000000023496, -0.99741840206198 
3.2200000000023707, -1.001079183931597 
3.230000000002392, -1.001163835383912 
3.240000000002413, -1.003051274663662 
3.250000000002434, -1.0049848197204574 
3.260000000002455, -1.0049016360992382 
3.2700000000024763, -1.008249031264074 
3.2800000000024974, -1.0082787426389643 
3.2900000000025185, -1.0099753192377328 
3.3000000000025396, -1.0114480015132377 
3.3100000000025607, -1.0114176320930715 
3.3200000000025818, -1.0139185698237079 
3.330000000002603, -1.0138681071583222 
3.340000000002624, -1.0151776294813692 
3.350000000002645, -1.0160827079476324 
3.360000000002666, -1.0160951151213493 
3.3700000000026873, -1.0176808415012748 
3.3800000000027084, -1.017558551091352 
3.3900000000027295, -1.0184510145211279 
3.4000000000027506, -1.0189086867580455 
3.4100000000027717, -1.0189266367517729 
3.420000000002793, -1.0198146720979866 
3.430000000002814, -1.0196437873514095 
3.440000000002835, -1.0201910963880358 
3.450000000002856, -1.0203582944921772 
3.460000000002877, -1.020349161449933 
3.4700000000028983, -1.0207883942860991 
3.4800000000029194, -1.020588986284856 
3.4900000000029405, -1.0208824901098983 
3.5000000000029616, -1.02087221745881 
3.5100000000029827, -1.0208212391738678 
3.520000000003004, -1.020988808308824 
3.530000000003025, -1.0207710231648264 
3.540000000003046, -1.0208868614104836 
3.550000000003067, -1.0207664919693558 
3.5600000000030882, -1.020671817839455 
3.5700000000031094, -1.0206733529895515 
3.5800000000031305, -1.0204392325807465 
3.5900000000031516, -1.020432847321301 
3.6000000000031727, -1.0202396122310613 
3.6100000000031938, -1.0201050297969472 
3.620000000003215, -1.019998979936828 
3.630000000003236, -1.0197466681290561 
3.640000000003257, -1.0196555978600257 
3.650000000003278, -1.019408617612767 
3.6600000000032993, -1.0192395777591896 
3.6700000000033204, -1.019056743792114 
3.6800000000033415, -1.0187834765846593 
3.6900000000033626, -1.0186314716909355 
3.7000000000033837, -1.0183387963444321 
3.710000000003405, -1.018140962260112 
3.720000000003426, -1.0178961571810659 
3.730000000003447, -1.017599664796089 
3.740000000003468, -1.0174004118086262 
3.750000000003489, -1.017063110081485 
3.7600000000035103, -1.016841924633894 
3.7700000000035314, -1.0165403546218994 
3.7800000000035525, -1.0162193947906941 
3.7900000000035736, -1.0159794699245486 
3.8000000000035947, -1.0155943857391607 
3.810000000003616, -1.0153548630191225 
3.820000000003637, -1.0149957107684124 
3.830000000003658, -1.0146502851040005 
3.840000000003679, -1.0143714730716478 
3.8500000000037002, -1.0139335467664072 
3.8600000000037213, -1.013680041275348 
3.8700000000037424, -1.0132589308165105 
3.8800000000037635, -1.0128904296823225 
3.8900000000037847, -1.0125717081532288 
3.9000000000038058, -1.0120762985544733 
3.910000000003827, -1.0118122619183016 
3.920000000003848, -1.0113236973175996 
3.930000000003869, -1.010935017863269 
3.94000000000389, -1.010574487052613 
3.9500000000039113, -1.0100197721542716 
3.9600000000039324, -1.0097476341924014 
3.9700000000039535, -1.0091880094951324 
3.9800000000039746, -1.008783547142582 
3.9900000000039957, -1.0083804705862895 
4.000000000004016, -1.007769649697901 
4.010000000003993, -1.007490985255939 
4.02000000000397, -1.0068621067433454 
4.030000000003946, -1.0064474672918589 
4.040000000003923, -1.0060043340500748 
4.0500000000039, -1.0053470650975984 
4.0600000000038765, -1.0050630784253936 
4.070000000003853, -1.0043752734536018 
4.08000000000383, -1.0039566636520763 
4.090000000003807, -1.0034807787169282 
4.100000000003783, -1.0027931967410326 
4.11000000000376, -1.0025053361395284 
4.120000000003737, -1.0017785598532736 
4.130000000003713, -1.0013620349461514 
4.14000000000369, -1.000865849629717 
4.150000000003667, -1.0001687830688273 
4.1600000000036434, -0.9998791782445124 
4.17000000000362, -0.9991408286986528 
4.180000000003597, -0.9987317050506009 
4.1900000000035735, -0.9982313413992956 
4.20000000000355, -0.9975470153408227 
4.210000000003527, -0.99725852735043 
4.220000000003504, -0.9965382296533397 
4.23000000000348, -0.9961408602470341 
4.240000000003457, -0.9956531655443793 
4.250000000003434, -0.9950014434305416 
4.26000000000341, -0.9947173602023869 
4.270000000003387, -0.9940408260983453 
4.280000000003364, -0.9936586863849171 
4.2900000000033405, -0.9931980688105516 
4.300000000003317, -0.9925935568124787 
4.310000000003294, -0.9923171725633128 
4.320000000003271, -0.9917018096911191 
4.330000000003247, -0.9913376920461119 
4.340000000003224, -0.9909141074893979 
4.350000000003201, -0.9903649589884568 
4.360000000003177, -0.9900993106595777 
4.370000000003154, -0.9895530496919895 
4.380000000003131, -0.9892092142241344 
4.390000000003107, -0.9888279027936355 
4.400000000003084, -0.9883362942551999 
4.410000000003061, -0.9880842055764679 
4.4200000000030375, -0.9876071685482706 
4.430000000003014, -0.9872854327444559 
4.440000000002991, -0.9869480743643687 
4.450000000002968, -0.9865117034065204 
4.460000000002944, -0.9862761297668123 
4.470000000002921, -0.9858637011574893 
4.480000000002898, -0.9855655274312127 
4.490000000002874, -0.98527208209295 
4.500000000002851, -0.9848859386823244 
4.510000000002828, -0.9846705275182783 
4.520000000002804, -0.984316481378726 
4.530000000002781, -0.9840431083530616 
4.540000000002758, -0.9837937797391789 
4.5500000000027345, -0.9834516954403208 
4.560000000002711, -0.9832615058634004 
4.570000000002688, -0.9829605292413194 
4.580000000002665, -0.9827131424223007 
4.590000000002641, -0.9825103216343756 
4.600000000002618, -0.9822061200500372 
4.610000000002595, -0.9820485413578042 
4.620000000002571, -0.981798153106502 
4.630000000002548, -0.9815780515467802 
4.640000000002525, -0.9814285007528193 
4.6500000000025015, -0.9811567985441523 
4.660000000002478, -0.981042818567164 
4.670000000002455, -0.9808450849491562 
4.6800000000024315, -0.9806537729238334 
4.690000000002408, -0.9805716643082582 
4.700000000002385, -0.9803284986985503 
4.710000000002362, -0.9802745743413757 
4.720000000002338, -0.9801382531439563 
4.730000000002315, -0.9799773314104498 
4.740000000002292, -0.9799891709033484 
4.750000000002268, -0.9797726906896914 
4.760000000002245, -0.9798035577724681 
4.770000000002222, -0.9797475229849913 
4.7800000000021985, -0.9796181279149563 
4.790000000002175, -0.9797711280312414 
4.800000000002152, -0.9795825523467055 
4.810000000002129, -0.9797353071000298 
4.820000000002105, -0.9797943388164612 
4.830000000002082, -0.9796957058661946 
4.840000000002059, -0.9800713913426784 
4.850000000002035, -0.9799161565122803 
4.860000000002012, -0.9802453921985923 
4.870000000001989, -0.9804790928859115 
4.880000000001965, -0.9804059323905218 
4.890000000001942, -0.9811382462554693 
4.900000000001919, -0.9810264778644835 
4.9100000000018955, -0.9816075152160028 
4.920000000001872, -0.9821096760528373 
4.930000000001849, -0.9820494382948165 
