t, s[1].omega / s[0].omega 
0, -0.9201471528911853 
0.009999999999999995, -0.9340567714436702 
0.019999999999999934, -0.945430634402126 
0.029999999999999874, -0.953697116502099 
0.04000000000000012, -0.9591684534721592 
0.050000000000000405, -0.9625378898950216 
0.06000000000000069, -0.9644843422911729 
0.07000000000000098, -0.9655142297111098 
0.08000000000000126, -0.9659542717355036 
0.09000000000000155, -0.9659944720059468 
0.10000000000000184, -0.965731549946493 
0.11000000000000212, -0.9652003290590404 
0.12000000000000241, -0.9643973066679644 
0.130000000000002, -0.9633093677970328 
0.1400000000000009, -0.9619704318967102 
0.1499999999999998, -0.9605786815198931 
0.1599999999999987, -0.9596938148011922 
0.1699999999999976, -0.9604427145823836 
0.1799999999999965, -0.964467667750319 
0.1899999999999954, -0.9732532929965181 
0.1999999999999943, -0.9869195742081018 
0.2099999999999932, -1.0035021429813762 
0.2199999999999921, -1.0197976836559142 
0.229999999999991, -1.0332035493858587 
0.2399999999999899, -1.042787193059541 
0.2499999999999888, -1.0489676216662747 
0.2599999999999877, -1.0526697287667326 
0.2699999999999866, -1.0547529730409255 
0.2799999999999855, -1.0558274579118492 
0.2899999999999844, -1.05627064054559 
0.2999999999999833, -1.0562946241908933 
0.3099999999999822, -1.0560049474398885 
0.3199999999999811, -1.0554421300807841 
0.32999999999998, -1.0546171320582742 
0.3399999999999789, -1.0535631504806993 
0.3499999999999778, -1.0524364420848022 
0.35999999999997667, -1.0516895697071962 
0.36999999999997557, -1.0522560980990145 
0.37999999999997447, -1.0555019629785358 
0.38999999999997337, -1.0626384441012724 
0.39999999999997227, -1.073761762473677 
0.40999999999997117, -1.087384978224001 
0.41999999999997006, -1.1010976662582068 
0.42999999999996896, -1.1128184798898704 
0.43999999999996786, -1.121580404701255 
0.44999999999996676, -1.1274665139837634 
0.45999999999996566, -1.13109676248738 
0.46999999999996456, -1.1331675959270835 
0.47999999999996346, -1.1342311184199108 
0.48999999999996235, -1.1346560139465371 
0.49999999999996125, -1.1346648225274645 
0.5099999999999602, -1.134385766173147 
0.519999999999959, -1.1339017549293344 
0.529999999999958, -1.133302250384819 
0.5399999999999568, -1.1327471299264968 
0.5499999999999557, -1.132529615274586 
0.5599999999999546, -1.1330758205022906 
0.5699999999999535, -1.1348023114965708 
0.5799999999999524, -1.137874241216553 
0.5899999999999513, -1.14207129436759 
0.5999999999999502, -1.1468913556592368 
0.6099999999999491, -1.1517728293743332 
0.619999999999948, -1.1562574679264785 
0.6299999999999469, -1.1600478909355374 
0.6399999999999458, -1.1630046434207373 
0.6499999999999447, -1.16512131385756 
0.6599999999999436, -1.1664872206414878 
0.6699999999999425, -1.1672412380543666 
0.6799999999999414, -1.1675290441645336 
0.6899999999999403, -1.1674771955910235 
0.6999999999999392, -1.1671882709273134 
0.7099999999999381, -1.1667528115445367 
0.719999999999937, -1.1662696580575609 
0.7299999999999359, -1.1658613360238352 
0.7399999999999348, -1.1656658241799123 
0.7499999999999337, -1.1657960411367243 
0.7599999999999326, -1.1662911514263188 
0.7699999999999315, -1.1671017427045685 
0.7799999999999304, -1.1681189745470848 
0.7899999999999293, -1.1692180808427062 
0.7999999999999282, -1.1702884509159435 
0.8099999999999271, -1.1712453507467377 
0.819999999999926, -1.1720299090364321 
0.8299999999999249, -1.1726042506450733 
0.8399999999999238, -1.1729463997172065 
0.8499999999999227, -1.1730473111166373 
0.8599999999999216, -1.1729101912063251 
0.8699999999999205, -1.1725508011773955 
0.8799999999999194, -1.1719976621234947 
0.8899999999999183, -1.1712925234071645 
0.8999999999999172, -1.1704916900268465 
0.9099999999999161, -1.1696663559743161 
0.919999999999915, -1.1688975234817574 
0.9299999999999139, -1.1682630861849324 
0.9399999999999128, -1.1678206230075054 
0.9499999999999117, -1.1675922215235364 
0.9599999999999106, -1.1675562461109037 
0.9699999999999095, -1.1676509695727908 
0.9799999999999084, -1.1677915163544417 
0.9899999999999073, -1.1678910363846744 
0.9999999999999062, -1.1678735596252512 
1.0099999999999052, -1.1676757424325601 
1.019999999999904, -1.1672442390142177 
1.029999999999903, -1.1665356092674386 
1.039999999999902, -1.1655202292824018 
1.0499999999999008, -1.1641871440209932 
1.0599999999998997, -1.1625467832835383 
1.0699999999998986, -1.160632059897882 
1.0799999999998975, -1.1585011345324538 
1.0899999999998964, -1.1562438494264948 
1.0999999999998953, -1.1539890380420135 
1.1099999999998942, -1.1519032312064128 
1.119999999999893, -1.1501656899948578 
1.129999999999892, -1.1489117070848807 
1.1399999999998909, -1.1481683204627233 
1.1499999999998898, -1.1478366299972058 
1.1599999999998887, -1.1477436443676052 
1.1699999999998876, -1.1477168556694914 
1.1799999999998865, -1.1476232311088823 
1.1899999999998854, -1.147363046151141 
1.1999999999998843, -1.1468419452051335 
1.2099999999998832, -1.1459418636952867 
1.219999999999882, -1.1445013028682764 
1.229999999999881, -1.1423141498313152 
1.2399999999998799, -1.1391589112996472 
1.2499999999998788, -1.1348641832832043 
1.2599999999998777, -1.1293966748558224 
1.2699999999998766, -1.1229406449356993 
1.2799999999998755, -1.1159386588657432 
1.2899999999998744, -1.1090666794154447 
1.2999999999998733, -1.1031032109721717 
1.3099999999998722, -1.0986745005832517 
1.319999999999871, -1.0959850695185485 
1.32999999999987, -1.0947554811170939 
1.3399999999998689, -1.094442031143011 
1.3499999999998678, -1.0945314407860485 
1.3599999999998666, -1.0946875408754153 
1.3699999999998655, -1.0947368123954369 
1.3799999999998644, -1.0945930727267894 
1.3899999999998633, -1.0941886147393949 
1.3999999999998622, -1.093423494437148 
1.4099999999998611, -1.0921218083639663 
1.41999999999986, -1.0899855643327219 
1.429999999999859, -1.0865537173136102 
1.4399999999998578, -1.0812084182393473 
1.4499999999998567, -1.0733132435307424 
1.4599999999998556, -1.0625575218427135 
1.4699999999998545, -1.0494191712192575 
1.4799999999998534, -1.0353930101682347 
1.4899999999998523, -1.0225986744856816 
1.4999999999998512, -1.012844059675368 
1.5099999999998501, -1.0068036698600102 
1.519999999999849, -1.0039445275535166 
1.529999999999848, -1.003130256824503 
1.5399999999998468, -1.0032930661089716 
1.5499999999998457, -1.0037419176112319 
1.5599999999998446, -1.0041375774745165 
1.5699999999998435, -1.0043506809748073 
1.5799999999998424, -1.00433962326161 
1.5899999999998413, -1.0040769099275733 
1.5999999999998402, -1.0035070087717846 
1.6099999999998391, -1.0025142935681404 
1.619999999999838, -1.0008872448211368 
1.629999999999837, -0.9982766798735202 
1.6399999999998358, -0.9941677424143102 
1.6499999999998347, -0.9879242783008099 
1.6599999999998336, -0.9789956264499331 
1.6699999999998325, -0.9673108154626064 
1.6799999999998314, -0.9536581443279897 
1.6899999999998303, -0.9396630357763337 
1.6999999999998292, -0.9272065762810918 
1.709999999999828, -0.9176450851068537 
1.719999999999827, -0.9113727015026534 
1.729999999999826, -0.907931237961842 
1.7399999999998248, -0.9064511242162846 
1.7499999999998237, -0.9060783870337008 
1.7599999999998226, -0.9061933137078506 
1.7699999999998215, -0.9064317929882526 
1.7799999999998204, -0.90661251831449 
1.7899999999998193, -0.9066535893257214 
1.7999999999998182, -0.9065112941713291 
1.809999999999817, -0.9061417132180442 
1.819999999999816, -0.9054762459499262 
1.8299999999998149, -0.9044045381906592 
1.8399999999998138, -0.9027657205183429 
1.8499999999998127, -0.900358690492005 
1.8599999999998116, -0.896988195852394 
1.8699999999998105, -0.8925506399739731 
1.8799999999998094, -0.8871242952060872 
1.8899999999998083, -0.8809983656024377 
1.8999999999998072, -0.8746089928437911 
1.909999999999806, -0.8684242333784434 
1.919999999999805, -0.8628453573140649 
1.9299999999998039, -0.8581531076311537 
1.9399999999998028, -0.8544887790763142 
1.9499999999998017, -0.8518558313640927 
1.9599999999998006, -0.8501399120626489 
1.9699999999997995, -0.8491484820991507 
1.9799999999997984, -0.8486617073015449 
1.9899999999997973, -0.8484773852213798 
1.9999999999997962, -0.8484360201171809 
2.0099999999998173, -0.8484242802516528 
2.0199999999998384, -0.8483646628787469 
2.0299999999998595, -0.8482010568679913 
2.0399999999998806, -0.8478870520675379 
2.0499999999999017, -0.8473807136570425 
2.059999999999923, -0.8466473159920194 
2.069999999999944, -0.8456686554608819 
2.079999999999965, -0.8444531933108473 
2.089999999999986, -0.8430387491176694 
2.100000000000007, -0.8414837777833043 
2.1100000000000283, -0.8398523481387693 
2.1200000000000494, -0.8382023407659706 
2.1300000000000705, -0.8365820163927111 
2.1400000000000916, -0.8350331230893371 
2.1500000000001127, -0.8335955967297217 
2.160000000000134, -0.8323099259404863 
2.170000000000155, -0.8312156181723148 
2.180000000000176, -0.8303462027694059 
2.190000000000197, -0.8297226055786064 
2.2000000000002182, -0.8293475289745219 
2.2100000000002393, -0.8292033486117557 
2.2200000000002604, -0.8292547445045122 
2.2300000000002815, -0.8294552465595284 
2.2400000000003026, -0.8297552521833721 
2.2500000000003237, -0.830108908441691 
2.260000000000345, -0.8304784273108936 
2.270000000000366, -0.8308357240300775 
2.280000000000387, -0.8311617211868141 
2.290000000000408, -0.831443470393527 
2.3000000000004293, -0.8316695770536098 
2.3100000000004504, -0.8318258056263618 
2.3200000000004715, -0.8318938384552093 
2.3300000000004926, -0.8318548804671341 
2.3400000000005137, -0.8316963283064742 
2.3500000000005348, -0.8314173466948013 
2.360000000000556, -0.8310306562997821 
2.370000000000577, -0.8305615236840097 
2.380000000000598, -0.8300469496909664 
2.390000000000619, -0.8295369728952815 
2.4000000000006403, -0.829097393841636 
2.4100000000006614, -0.8288109680894454 
2.4200000000006825, -0.8287734334019019 
2.4300000000007036, -0.8290825054417967 
2.4400000000007247, -0.829821935613235 
2.450000000000746, -0.8310463337451905 
2.460000000000767, -0.8327723771173947 
2.470000000000788, -0.8349777679351768 
2.480000000000809, -0.8376042373523814 
2.49000000000083, -0.8405590326983383 
2.5000000000008513, -0.8437123259437186 
2.5100000000008724, -0.8468949897785929 
2.5200000000008935, -0.8499083408939816 
2.5300000000009146, -0.8525562388298786 
2.5400000000009357, -0.8546931764780611 
2.550000000000957, -0.8562609244884563 
2.560000000000978, -0.8572885064776571 
2.570000000000999, -0.8578592267012833 
2.58000000000102, -0.8580706128500255 
2.5900000000010412, -0.8580080230488244 
2.6000000000010624, -0.8577361904047516 
2.6100000000010835, -0.8573042224022054 
2.6200000000011046, -0.8567603907868232 
2.6300000000011257, -0.8561772439963269 
2.6400000000011468, -0.8556899799551273 
2.650000000001168, -0.8555474640395566 
2.660000000001189, -0.8561616145981039 
2.67000000000121, -0.8581180538680397 
2.680000000001231, -0.8620946739071457 
2.6900000000012523, -0.8686540890166917 
2.7000000000012734, -0.8779463627093781 
2.7100000000012945, -0.8894545076109084 
2.7200000000013156, -0.9019744117477148 
2.7300000000013367, -0.9139552798932412 
2.740000000001358, -0.9240821127582566 
2.750000000001379, -0.9317256541713232 
2.7600000000014, -0.9369666523230448 
2.770000000001421, -0.9402898071746731 
2.780000000001442, -0.9422543565479844 
2.7900000000014633, -0.943316121890158 
2.8000000000014844, -0.9437866967161366 
2.8100000000015055, -0.9438555282662758 
2.8200000000015266, -0.9436244395494908 
2.8300000000015477, -0.9431364127866237 
2.840000000001569, -0.9423988390633962 
2.85000000000159, -0.9414112101276142 
2.860000000001611, -0.9402159717550159 
2.870000000001632, -0.9389990811574505 
2.8800000000016532, -0.9382569839681139 
2.8900000000016743, -0.938978561307905 
2.9000000000016954, -0.9426390893965504 
2.9100000000017165, -0.9506959793401094 
2.9200000000017377, -0.9635569939368086 
2.9300000000017588, -0.9797495748391952 
2.94000000000178, -0.9963485078017994 
2.950000000001801, -1.0105815562730767 
2.960000000001822, -1.0211283002284501 
2.970000000001843, -1.0281274713484676 
2.9800000000018643, -1.0324185136525799 
2.9900000000018854, -1.0348907942483545 
3.0000000000019065, -1.0362154783523283 
3.0100000000019276, -1.0368236564794473 
3.0200000000019487, -1.0369654235471089 
3.03000000000197, -1.0367709102983729 
3.040000000001991, -1.0362940726808332 
3.050000000002012, -1.0355449455627679 
3.060000000002033, -1.0345274780185885 
3.070000000002054, -1.0333114182936505 
3.0800000000020753, -1.0321738395752962 
3.0900000000020964, -1.0318111903840292 
3.1000000000021175, -1.0334812840186216 
3.1100000000021386, -1.038735329164706 
3.1200000000021597, -1.0485193823409567 
3.130000000002181, -1.0621666155362406 
3.140000000002202, -1.0773662731960116 
3.150000000002223, -1.0913860648286102 
3.160000000002244, -1.1024491392613536 
3.1700000000022652, -1.1101617078552553 
3.1800000000022863, -1.1150514119529595 
3.1900000000023074, -1.1179247597563364 
3.2000000000023285, -1.119484579546509 
3.2100000000023496, -1.120220333329403 
3.2200000000023707, -1.120433098166099 
3.230000000002392, -1.1202938781501555 
3.240000000002413, -1.1198975308459118 
3.250000000002434, -1.1193116026376797 
3.260000000002455, -1.1186342738721566 
3.2700000000024763, -1.1180728875127202 
3.2800000000024974, -1.1180204014636042 
3.2900000000025185, -1.1190390742997736 
3.3000000000025396, -1.121649521843329 
3.3100000000025607, -1.1260032816721197 
3.3200000000025818, -1.1317271644385976 
3.330000000002603, -1.1380914385716734 
3.340000000002624, -1.1443223919903036 
3.350000000002645, -1.1498258698330512 
3.360000000002666, -1.154266187021444 
3.3700000000026873, -1.1575521353864304 
3.3800000000027084, -1.1597755795629514 
3.3900000000027295, -1.1611284744769772 
3.4000000000027506, -1.1618249595771608 
3.4100000000027717, -1.1620513351434194 
3.420000000002793, -1.1619495727363174 
3.430000000002814, -1.1616260693967977 
3.440000000002835, -1.161175044068805 
3.450000000002856, -1.160707192423394 
3.460000000002877, -1.1603687111544292 
3.4700000000028983, -1.1603273365766786 
3.4800000000029194, -1.1607154522480922 
3.4900000000029405, -1.161565751519245 
3.5000000000029616, -1.1627969784551873 
3.5100000000029827, -1.1642589234130347 
3.520000000003004, -1.1657918302758847 
3.530000000003025, -1.1672625752419827 
3.540000000003046, -1.1685743635595551 
3.550000000003067, -1.169662462830627 
3.5600000000030882, -1.1704868256119272 
3.5700000000031094, -1.1710270612210514 
3.5800000000031305, -1.1712806477966888 
3.5900000000031516, -1.1712622374160788 
3.6000000000031727, -1.1710017295003452 
3.6100000000031938, -1.1705414192958654 
3.620000000003215, -1.1699347658599073 
3.630000000003236, -1.1692478252720138 
3.640000000003257, -1.1685596834293728 
3.650000000003278, -1.167955292626175 
3.6600000000032993, -1.167508693875806 
3.6700000000033204, -1.1672641319985215 
3.6800000000033415, -1.1672250621748341 
3.6900000000033626, -1.1673542719829109 
3.7000000000033837, -1.1675837818488495 
3.710000000003405, -1.167831736108263 
3.720000000003426, -1.1680193378311894 
3.730000000003447, -1.168080393485345 
3.740000000003468, -1.1679629225545223 
3.750000000003489, -1.1676278862715865 
3.7600000000035103, -1.1670490291574707 
3.7700000000035314, -1.166213897691685 
3.7800000000035525, -1.1651244089310464 
3.7900000000035736, -1.1637968281752387 
3.8000000000035947, -1.1622629166046232 
3.810000000003616, -1.1605737635591427 
3.820000000003637, -1.1588055571916345 
3.830000000003658, -1.1570636143921702 
3.840000000003679, -1.1554778837658137 
3.8500000000037002, -1.154180977966364 
3.8600000000037213, -1.1532656081077097 
3.8700000000037424, -1.152740052019525 
3.8800000000037635, -1.152518877492739 
3.8900000000037847, -1.1524624201044216 
3.9000000000038058, -1.15243057915587 
3.910000000003827, -1.1523099776119652 
3.920000000003848, -1.1520082194109356 
3.930000000003869, -1.151432903073907 
3.94000000000389, -1.1504724641127386 
3.9500000000039113, -1.1489893848776895 
3.9600000000039324, -1.1468330733043375 
3.9700000000039535, -1.1438747406541423 
3.9800000000039746, -1.140055762858681 
3.9900000000039957, -1.135432527542475 
4.000000000004016, -1.1302057819142752 
4.010000000003993, -1.1247318440098972 
4.02000000000397, -1.1195033417256197 
4.030000000003946, -1.1150625242069412 
4.040000000003923, -1.1118257087064738 
4.0500000000039, -1.1098979748299624 
4.0600000000038765, -1.1090398507651829 
4.070000000003853, -1.108833614292069 
4.08000000000383, -1.1088943007072882 
4.090000000003807, -1.1089686699777548 
4.100000000003783, -1.1089184029571748 
4.11000000000376, -1.1086603354396627 
4.120000000003737, -1.1081102335444146 
4.130000000003713, -1.1071372372164445 
4.14000000000369, -1.1055220033423785 
4.150000000003667, -1.1029184361089706 
4.1600000000036434, -1.0988413939217214 
4.17000000000362, -1.0927350358323182 
4.180000000003597, -1.0841861939607083 
4.1900000000035735, -1.0732711070354546 
4.20000000000355, -1.0608529613575244 
4.210000000003527, -1.0485330427378377 
4.220000000003504, -1.0381060939599567 
4.23000000000348, -1.0307697416959984 
4.240000000003457, -1.0266465060705485 
4.250000000003434, -1.0249720242013978 
4.26000000000341, -1.0247012536762 
4.270000000003387, -1.0250002706637127 
4.280000000003364, -1.025387899564112 
4.2900000000033405, -1.0256499060463524 
4.300000000003317, -1.02570870429129 
4.310000000003294, -1.0255294384492992 
4.320000000003271, -1.0250647904976429 
4.330000000003247, -1.024218014520153 
4.340000000003224, -1.0228064679611415 
4.350000000003201, -1.0205178739455127 
4.360000000003177, -1.0168699282733593 
4.370000000003154, -1.011219954967871 
4.380000000003131, -1.0029164265992414 
4.390000000003107, -0.9916663756527215 
4.400000000003084, -0.9780015276701832 
4.410000000003061, -0.963448700112218 
4.4200000000030375, -0.9500652884972635 
4.430000000003014, -0.9395496851019708 
4.440000000002991, -0.9325741494215792 
4.450000000002968, -0.9287638693110714 
4.460000000002944, -0.9271753131440745 
4.470000000002921, -0.9268326303938336 
4.480000000002898, -0.9270223916112871 
4.490000000002874, -0.9273326362646825 
4.500000000002851, -0.9275667343149167 
4.510000000002828, -0.9276429017472555 
4.520000000002804, -0.9275221343975678 
4.530000000002781, -0.9271645131827816 
4.540000000002758, -0.9265015682283076 
4.5500000000027345, -0.9254149383775593 
4.560000000002711, -0.9237196018935039 
4.570000000002688, -0.921161978749358 
4.580000000002665, -0.9174565806243182 
4.590000000002641, -0.9123837861488632 
4.600000000002618, -0.9059306994029104 
4.610000000002595, -0.8983911283139179 
4.620000000002571, -0.8903347569058713 
4.630000000002548, -0.8824518128255242 
4.640000000002525, -0.8753702072161132 
4.6500000000025015, -0.8695280355534507 
4.660000000002478, -0.8651202286175635 
4.670000000002455, -0.8621068159739605 
4.6800000000024315, -0.8602696359725117 
4.690000000002408, -0.859299522335443 
4.700000000002385, -0.8588838775591684 
4.710000000002362, -0.8587653358509513 
4.720000000002338, -0.8587611846081369 
4.730000000002315, -0.8587534568478233 
4.740000000002292, -0.8586666500913545 
4.750000000002268, -0.8584456879116253 
4.760000000002245, -0.8580401017497961 
4.770000000002222, -0.8573968301222091 
4.7800000000021985, -0.8564632294072924 
4.790000000002175, -0.8552004360064828 
4.800000000002152, -0.8536020137327862 
4.810000000002129, -0.8517062502491688 
4.820000000002105, -0.8495914955406217 
4.830000000002082, -0.8473562210847054 
4.840000000002059, -0.8450971511299116 
4.850000000002035, -0.8428972349706058 
4.860000000002012, -0.8408247513947555 
4.870000000001989, -0.8389374917638752 
4.880000000001965, -0.8372856689145847 
4.890000000001942, -0.8359105074966102 
4.900000000001919, -0.8348389177648707 
4.9100000000018955, -0.8340770229048493 
4.920000000001872, -0.8336062628130414 
4.930000000001849, -0.8333849186663258 
