t, s[1].omega / s[0].omega 
0, -1.459985011310439 
0.009999999999999995, -1.4582093706407722 
0.019999999999999934, -1.4558511360627358 
0.029999999999999874, -1.4528993645654256 
0.04000000000000012, -1.449459016830485 
0.050000000000000405, -1.4458599057974515 
0.06000000000000069, -1.442701889824388 
0.07000000000000098, -1.4406069634238146 
0.08000000000000126, -1.4397309223814363 
0.09000000000000155, -1.4396545787216561 
0.10000000000000184, -1.4398236264625193 
0.11000000000000212, -1.439891882094695 
0.12000000000000241, -1.439705623200068 
0.130000000000002, -1.4391632539674553 
0.1400000000000009, -1.438097684294218 
0.1499999999999998, -1.4361785255807147 
0.1599999999999987, -1.4328357737406245 
0.1699999999999976, -1.4273894614879783 
0.1799999999999965, -1.4199990898867056 
0.1899999999999954, -1.413857587047163 
0.1999999999999943, -1.415360783097164 
0.2099999999999932, -1.4271090045841786 
0.2199999999999921, -1.4431634797775257 
0.229999999999991, -1.4565095285549834 
0.2399999999999899, -1.4650333941839349 
0.2499999999999888, -1.469746942242898 
0.2599999999999877, -1.4721168046752096 
0.2699999999999866, -1.4731655584223453 
0.2799999999999855, -1.4734708079910843 
0.2899999999999844, -1.473336091917746 
0.2999999999999833, -1.4729349257040896 
0.3099999999999822, -1.4724203877812343 
0.3199999999999811, -1.472002269651028 
0.32999999999998, -1.4719336083265993 
0.3399999999999789, -1.472365173015194 
0.3499999999999778, -1.473221338908267 
0.35999999999997667, -1.47427433874224 
0.36999999999997557, -1.475301839659902 
0.37999999999997447, -1.4761559204628751 
0.38999999999997337, -1.4767535346935567 
0.39999999999997227, -1.477050967917996 
0.40999999999997117, -1.4770244013679523 
0.41999999999997006, -1.4766582078796249 
0.42999999999996896, -1.4759398124542915 
0.43999999999996786, -1.474859863778632 
0.44999999999996676, -1.4734181406443185 
0.45999999999996566, -1.4716385118041238 
0.46999999999996456, -1.4695986446623273 
0.47999999999996346, -1.467475595713121 
0.48999999999996235, -1.465572216839901 
0.49999999999996125, -1.4642241279193136 
0.5099999999999602, -1.4635645731395113 
0.519999999999959, -1.4634058357630944 
0.529999999999958, -1.4634183013572781 
0.5399999999999568, -1.4633444833970228 
0.5499999999999557, -1.463025959827482 
0.5599999999999546, -1.4623149676101788 
0.5699999999999535, -1.4609623214575207 
0.5799999999999524, -1.458483977693566 
0.5899999999999513, -1.4540028928492428 
0.5999999999999502, -1.4462400136536229 
0.6099999999999491, -1.4343620698539987 
0.619999999999948, -1.4206304013789568 
0.6299999999999469, -1.4121933101858604 
0.6399999999999458, -1.414712997151056 
0.6499999999999447, -1.4245491260825969 
0.6599999999999436, -1.4344168762178144 
0.6699999999999425, -1.4410965752331357 
0.6799999999999414, -1.444838818158757 
0.6899999999999403, -1.4466993080766568 
0.6999999999999392, -1.4474786017399568 
0.7099999999999381, -1.4476314727618182 
0.719999999999937, -1.4473911370697061 
0.7299999999999359, -1.4468910455891906 
0.7399999999999348, -1.4462775240807701 
0.7499999999999337, -1.4458200358772122 
0.7599999999999326, -1.4459233044746083 
0.7699999999999315, -1.4468961203387933 
0.7799999999999304, -1.4486557131001594 
0.7899999999999293, -1.4507875808328716 
0.7999999999999282, -1.4528659827207313 
0.8099999999999271, -1.4546331910012615 
0.819999999999926, -1.4559837690093458 
0.8299999999999249, -1.4568971403044175 
0.8399999999999238, -1.4573902950682218 
0.8499999999999227, -1.457494472074999 
0.8599999999999216, -1.4572455302136453 
0.8699999999999205, -1.4566812897260837 
0.8799999999999194, -1.4558439776395646 
0.8899999999999183, -1.4547878217931165 
0.8999999999999172, -1.453589829271581 
0.9099999999999161, -1.4523598266396154 
0.919999999999915, -1.4512440061945888 
0.9299999999999139, -1.4503997903836565 
0.9399999999999128, -1.449915873799273 
0.9499999999999117, -1.4497341308131733 
0.9599999999999106, -1.4496808287037237 
0.9699999999999095, -1.4495699209517627 
0.9799999999999084, -1.4492499281040587 
0.9899999999999073, -1.4485679738929647 
0.9999999999999062, -1.447293010022688 
1.0099999999999052, -1.4450175687272713 
1.019999999999904, -1.4410439493152636 
1.029999999999903, -1.4343212976299704 
1.039999999999902, -1.4236889855077777 
1.0499999999999008, -1.408930997714018 
1.0599999999998997, -1.3926348446943728 
1.0699999999998986, -1.3802798187821481 
1.0799999999998975, -1.3755963058680496 
1.0899999999998964, -1.3767789081554311 
1.0999999999998953, -1.3797737920557673 
1.1099999999998942, -1.382267871185022 
1.119999999999893, -1.3837805948828314 
1.129999999999892, -1.3845003026188205 
1.1399999999998909, -1.384670096634467 
1.1499999999998898, -1.3844372143503059 
1.1599999999998887, -1.383858850196129 
1.1699999999998876, -1.3829566446405053 
1.1799999999998865, -1.381841267667511 
1.1899999999998854, -1.3809605997744345 
1.1999999999998843, -1.381322512332305 
1.2099999999998832, -1.3841026105012928 
1.219999999999882, -1.3895029919679875 
1.229999999999881, -1.396328788250952 
1.2399999999998799, -1.4030031279543604 
1.2499999999998788, -1.408540155613625 
1.2599999999998777, -1.4126445571585438 
1.2699999999998766, -1.4154193124742325 
1.2799999999998755, -1.4171165872697407 
1.2899999999998744, -1.418005036481145 
1.2999999999998733, -1.4183129398958032 
1.3099999999998722, -1.4182139291045297 
1.319999999999871, -1.4178380893742255 
1.32999999999987, -1.417296508108739 
1.3399999999998689, -1.4167039754642041 
1.3499999999998678, -1.4161789475478774 
1.3599999999998666, -1.4158143758248625 
1.3699999999998655, -1.415648796239115 
1.3799999999998644, -1.4156646758673799 
1.3899999999998633, -1.4157997696312596 
1.3999999999998622, -1.4159596916040473 
1.4099999999998611, -1.4160387234148955 
1.41999999999986, -1.4159378936107796 
1.429999999999859, -1.4155644842990303 
1.4399999999998578, -1.4148186221037429 
1.4499999999998567, -1.4135822005602816 
1.4599999999998556, -1.4117192981405142 
1.4699999999998545, -1.4090910114672683 
1.4799999999998534, -1.4055891542572996 
1.4899999999998523, -1.4012045639178088 
1.4999999999998512, -1.3961533949625342 
1.5099999999998501, -1.3910311408545746 
1.519999999999849, -1.3867814185996972 
1.529999999999848, -1.384195065636526 
1.5399999999998468, -1.3832733871986105 
1.5499999999998457, -1.3833244521198484 
1.5599999999998446, -1.3836347870235561 
1.5699999999998435, -1.3838199820539985 
1.5799999999998424, -1.3837400878132513 
1.5899999999998413, -1.3833270853850725 
1.5999999999998402, -1.3824695898793367 
1.6099999999998391, -1.3809354446229651 
1.619999999999838, -1.3783146333130076 
1.629999999999837, -1.3740823052575775 
1.6399999999998358, -1.368160404804693 
1.6499999999998347, -1.3624503664728773 
1.6599999999998336, -1.3619258064230924 
1.6699999999998325, -1.370838514181569 
1.6799999999998314, -1.386526986157385 
1.6899999999998303, -1.401997418626784 
1.6999999999998292, -1.413139502988194 
1.709999999999828, -1.41983951866484 
1.719999999999827, -1.4234580486365151 
1.729999999999826, -1.4252424449847998 
1.7399999999998248, -1.4259854528813272 
1.7499999999998237, -1.4261255378087092 
1.7599999999998226, -1.4258965245871307 
1.7699999999998215, -1.4254450659185305 
1.7799999999998204, -1.4249253403894013 
1.7899999999998193, -1.4245631370235987 
1.7999999999998182, -1.4246219681101793 
1.809999999999817, -1.4252426170297254 
1.819999999999816, -1.4263255866201496 
1.8299999999998149, -1.4276182663878216 
1.8399999999998138, -1.4288790040776225 
1.8499999999998127, -1.4299497608421383 
1.8599999999998116, -1.4307466723774502 
1.8699999999998105, -1.4312317628642843 
1.8799999999998094, -1.4313914342363612 
1.8899999999998083, -1.4312240202848585 
1.8999999999998072, -1.4307341705184367 
1.909999999999806, -1.4299320306814853 
1.919999999999805, -1.428836722669754 
1.9299999999998039, -1.4274850430387 
1.9399999999998028, -1.4259461577792854 
1.9499999999998017, -1.4243410763137763 
1.9599999999998006, -1.4228555995098264 
1.9699999999997995, -1.4217073190484482 
1.9799999999997984, -1.4210315039292432 
1.9899999999997973, -1.4207709459078106 
1.9999999999997962, -1.4207167320866954 
2.0099999999998173, -1.4206481606151022 
2.0199999999998384, -1.4204014665913243 
2.0299999999998595, -1.4198353531192855 
2.0399999999998806, -1.4187512450759212 
2.0499999999999017, -1.416793044847584 
2.059999999999923, -1.41332097424806 
2.069999999999944, -1.4072962710721815 
2.079999999999965, -1.3973941376707457 
2.089999999999986, -1.3828951718703815 
2.100000000000007, -1.3657073953214482 
2.1100000000000283, -1.351392843961533 
2.1200000000000494, -1.345086028857181 
2.1300000000000705, -1.34608377215039 
2.1400000000000916, -1.3498952465947047 
2.1500000000001127, -1.3533441041297911 
2.160000000000134, -1.355571157532847 
2.170000000000155, -1.3567545875705376 
2.180000000000176, -1.357228107318374 
2.190000000000197, -1.3572229346808786 
2.2000000000002182, -1.3568537202166586 
2.2100000000002393, -1.3561622243341653 
2.2200000000002604, -1.3551953396553449 
2.2300000000002815, -1.3541646645182146 
2.2400000000003026, -1.3536926325433496 
2.2500000000003237, -1.3548574694364521 
2.260000000000345, -1.3585287106005763 
2.270000000000366, -1.3644135070541181 
2.280000000000387, -1.3711752685783867 
2.290000000000408, -1.377469859346093 
2.3000000000004293, -1.3825671752893238 
2.3100000000004504, -1.3862965430392005 
2.3200000000004715, -1.388789975655236 
2.3300000000004926, -1.3902900892208536 
2.3400000000005137, -1.3910464631809685 
2.3500000000005348, -1.3912692620182212 
2.360000000000556, -1.3911185771943573 
2.370000000000577, -1.3907168597550534 
2.380000000000598, -1.390173228642526 
2.390000000000619, -1.3896036595524546 
2.4000000000006403, -1.389126317612088 
2.4100000000006614, -1.388828692177164 
2.4200000000006825, -1.3887388608491333 
2.4300000000007036, -1.3888272867291205 
2.4400000000007247, -1.3890234764676634 
2.450000000000746, -1.389232348311155 
2.460000000000767, -1.3893535523926055 
2.470000000000788, -1.389296079595081 
2.480000000000809, -1.3889779005763052 
2.49000000000083, -1.388316490099453 
2.5000000000008513, -1.3872223955597711 
2.5100000000008724, -1.3856018576606952 
2.5200000000008935, -1.3833685333937393 
2.5300000000009146, -1.3804652914410172 
2.5400000000009357, -1.3769050088238735 
2.550000000000957, -1.372845091610396 
2.560000000000978, -1.368684150542346 
2.570000000000999, -1.3650700944166785 
2.58000000000102, -1.3626309259405458 
2.5900000000010412, -1.3615228055289088 
2.6000000000010624, -1.3613364454555819 
2.6100000000010835, -1.3615009812625598 
2.6200000000011046, -1.3616324238110304 
2.6300000000011257, -1.3615537689808035 
2.6400000000011468, -1.3611721021619103 
2.650000000001168, -1.360366987004536 
2.660000000001189, -1.358900698156167 
2.67000000000121, -1.3563225086946704 
2.680000000001231, -1.3518932647405484 
2.6900000000012523, -1.3447555489668386 
2.7000000000012734, -1.334943625632849 
2.7100000000012945, -1.325448441873175 
2.7200000000013156, -1.3223590918795314 
2.7300000000013367, -1.3290258962556958 
2.740000000001358, -1.341350971475587 
2.750000000001379, -1.352927311301515 
2.7600000000014, -1.360900163841189 
2.770000000001421, -1.3655444511484507 
2.780000000001442, -1.3679832093025344 
2.7900000000014633, -1.369124702535866 
2.8000000000014844, -1.3695147589853616 
2.8100000000015055, -1.3694435330831303 
2.8200000000015266, -1.369061829899692 
2.8300000000015477, -1.3684779284112265 
2.840000000001569, -1.3678590791544714 
2.85000000000159, -1.3675267243566558 
2.860000000001611, -1.3679263973579951 
2.870000000001632, -1.3693567685395491 
2.8800000000016532, -1.3716884508765548 
2.8900000000016743, -1.3744528381361105 
2.9000000000016954, -1.377168977913127 
2.9100000000017165, -1.3795319537357753 
2.9200000000017377, -1.381407874503074 
2.9300000000017588, -1.3827673604517043 
2.94000000000178, -1.3836338372316188 
2.950000000001801, -1.3840556800087218 
2.960000000001822, -1.3840921889545033 
2.970000000001843, -1.3838060911351966 
2.9800000000018643, -1.3832613080119358 
2.9900000000018854, -1.3825268524273893 
3.0000000000019065, -1.3816838587507743 
3.0100000000019276, -1.3808273075200737 
3.0200000000019487, -1.380056891605917 
3.03000000000197, -1.3794607595381183 
3.040000000001991, -1.3790926225423898 
3.050000000002012, -1.3789417511310849 
3.060000000002033, -1.3789229791165165 
3.070000000002054, -1.378909712984829 
3.0800000000020753, -1.3787764866885759 
3.0900000000020964, -1.3784081541635984 
3.1000000000021175, -1.3776768522985896 
3.1100000000021386, -1.3764099051756318 
3.1200000000021597, -1.3743668786521526 
3.130000000002181, -1.3712408850937818 
3.140000000002202, -1.3667043933801684 
3.150000000002223, -1.360529315533293 
3.160000000002244, -1.352817190219842 
3.1700000000022652, -1.3443174580974468 
3.1800000000022863, -1.3365527493845142 
3.1900000000023074, -1.3311909527511558 
3.2000000000023285, -1.3288077554296973 
3.2100000000023496, -1.328537282711938 
3.2200000000023707, -1.3290963588463183 
3.230000000002392, -1.3296767576624093 
3.240000000002413, -1.3299858258953976 
3.250000000002434, -1.3299679745026642 
3.260000000002455, -1.3296071334857857 
3.2700000000024763, -1.3288356503898617 
3.2800000000024974, -1.3274886804886703 
3.2900000000025185, -1.325290158877849 
3.3000000000025396, -1.3219640550089626 
3.3100000000025607, -1.3177474843400652 
3.3200000000025818, -1.3145157356082655 
3.330000000002603, -1.3162939292110378 
3.340000000002624, -1.3262447832702888 
3.350000000002645, -1.3421773012707077 
3.360000000002666, -1.3582133740190379 
3.3700000000026873, -1.3703616777030858 
3.3800000000027084, -1.3780743253829617 
3.3900000000027295, -1.3824584643765303 
3.4000000000027506, -1.384747155688895 
3.4100000000027717, -1.3858069218177496 
3.420000000002793, -1.386149909904541 
3.430000000002814, -1.3860578168270044 
3.440000000002835, -1.3856934511087853 
3.450000000002856, -1.3851905490227476 
3.460000000002877, -1.38472710514694 
3.4700000000028983, -1.3845465492466649 
3.4800000000029194, -1.384865631954137 
3.4900000000029405, -1.3857218122564794 
3.5000000000029616, -1.3869448197365015 
3.5100000000029827, -1.3882855172721924 
3.520000000003004, -1.3895390803277947 
3.530000000003025, -1.3905783986395455 
3.540000000003046, -1.3913371778271553 
3.550000000003067, -1.3917864612059299 
3.5600000000030882, -1.3919179853057808 
3.5700000000031094, -1.3917348953872417 
3.5800000000031305, -1.391247863348115 
3.5900000000031516, -1.3904750055392046 
3.6000000000031727, -1.38944538477146 
3.6100000000031938, -1.3882065050527415 
3.620000000003215, -1.3868348504774395 
3.630000000003236, -1.385446233611646 
3.640000000003257, -1.3841968603609267 
3.650000000003278, -1.3832506404614486 
3.6600000000032993, -1.3826964113438123 
3.6700000000033204, -1.3824765964776569 
3.6800000000033415, -1.382420037925204 
3.6900000000033626, -1.3823416206344254 
3.7000000000033837, -1.3820937904553026 
3.710000000003405, -1.3815425757073028 
3.720000000003426, -1.3805067515388718 
3.730000000003447, -1.3786840500064277 
3.740000000003468, -1.375571150341013 
3.750000000003489, -1.3704098876655162 
3.7600000000035103, -1.362276672299564 
3.7700000000035314, -1.3505555876282365 
3.7800000000035525, -1.33597423801121 
3.7900000000035736, -1.321542618491967 
3.8000000000035947, -1.3114093681918744 
3.810000000003616, -1.3074086189111953 
3.820000000003637, -1.3077354587153467 
3.830000000003658, -1.3095457883237547 
3.840000000003679, -1.3111982964908226 
3.8500000000037002, -1.312244770307199 
3.8600000000037213, -1.312728727866194 
3.8700000000037424, -1.3127737152609948 
3.8800000000037635, -1.3124512596029232 
3.8900000000037847, -1.3117589038398256 
3.9000000000038058, -1.3106369722075883 
3.910000000003827, -1.3090462270419463 
3.920000000003848, -1.3072108890754095 
3.930000000003869, -1.3061063157600539 
3.94000000000389, -1.3077575931385774 
3.9500000000039113, -1.3141537719826144 
3.9600000000039324, -1.3250148875933596 
3.9700000000039535, -1.3375254721065717 
3.9800000000039746, -1.348688420593661 
3.9900000000039957, -1.3570602449777778 
4.000000000004016, -1.3626201433963514 
4.010000000003993, -1.3659805265103815 
4.02000000000397, -1.367828697924668 
4.030000000003946, -1.3687036177421774 
4.040000000003923, -1.368965337516325 
4.0500000000039, -1.368837806780879 
4.0600000000038765, -1.3684683014279746 
4.070000000003853, -1.3679849829252269 
4.08000000000383, -1.367538682353095 
4.090000000003807, -1.367298438886687 
4.100000000003783, -1.367384662439913 
4.11000000000376, -1.3678002431383347 
4.120000000003737, -1.3684413835838085 
4.130000000003713, -1.3691664288687255 
4.14000000000369, -1.3698479333103828 
4.150000000003667, -1.370389081333281 
4.1600000000036434, -1.3707225184207263 
4.17000000000362, -1.3708033874863186 
4.180000000003597, -1.3706016327813344 
4.1900000000035735, -1.3700968590856584 
4.20000000000355, -1.369276600235549 
4.210000000003527, -1.368137672062643 
4.220000000003504, -1.3666912950220085 
4.23000000000348, -1.3649739666879526 
4.240000000003457, -1.363065823483018 
4.250000000003434, -1.3611138719242777 
4.26000000000341, -1.3593406932256453 
4.270000000003387, -1.3579919294696876 
4.280000000003364, -1.3572032275650883 
4.2900000000033405, -1.3568967688562954 
4.300000000003317, -1.356842123663429 
4.310000000003294, -1.3568054826076286 
4.320000000003271, -1.3566209390062087 
4.330000000003247, -1.3561606175718832 
4.340000000003224, -1.3552641544726822 
4.350000000003201, -1.3536560163056734 
4.360000000003177, -1.3508461592246053 
4.370000000003154, -1.3460269496129047 
4.380000000003131, -1.3380760765826851 
4.390000000003107, -1.3259753096033076 
4.400000000003084, -1.3100341469086516 
4.410000000003061, -1.293384861879554 
4.4200000000030375, -1.2811690945744802 
4.430000000003014, -1.2762817294916506 
4.440000000002991, -1.2769620184947736 
4.450000000002968, -1.2796519322372324 
4.460000000002944, -1.2821313736965427 
4.470000000002921, -1.2837713944789786 
4.480000000002898, -1.2846478075017196 
4.490000000002874, -1.2849656218906682 
4.500000000002851, -1.2848709114114891 
4.510000000002828, -1.2844235712768597 
4.520000000002804, -1.283613604366653 
4.530000000002781, -1.2824061358658296 
4.540000000002758, -1.280869908320316 
4.5500000000027345, -1.2794808847235999 
4.560000000002711, -1.279520580000913 
4.570000000002688, -1.2828997249167187 
4.580000000002665, -1.2906936281669943 
4.590000000002641, -1.3017034097373283 
4.600000000002618, -1.3132278650614038 
4.610000000002595, -1.323038591936849 
4.620000000002571, -1.3302585880563869 
4.630000000002548, -1.3350286464622836 
4.640000000002525, -1.3379067204227262 
4.6500000000025015, -1.3394773835433906 
4.660000000002478, -1.3401958508206326 
4.670000000002455, -1.3403687805762716 
4.6800000000024315, -1.3401908547605699 
4.690000000002408, -1.339796333673718 
4.700000000002385, -1.3393103520669685 
4.710000000002362, -1.3388845032307217 
4.720000000002338, -1.3386861342855767 
4.730000000002315, -1.3388297402251372 
4.740000000002292, -1.3393119894553265 
4.750000000002268, -1.3400251057662436 
4.760000000002245, -1.3408247787398726 
4.770000000002222, -1.3415820304466115 
4.7800000000021985, -1.3422002208023065 
4.790000000002175, -1.3426138011137523 
4.800000000002152, -1.3427811693743255 
4.810000000002129, -1.342677033746614 
4.820000000002105, -1.3422871617336574 
4.830000000002082, -1.3416061847478886 
4.840000000002059, -1.3406381607066367 
4.850000000002035, -1.3394002279759658 
4.860000000002012, -1.3379303108350393 
4.870000000001989, -1.3362991238175785 
4.880000000001965, -1.3346240388748078 
4.890000000001942, -1.3330744760151534 
4.900000000001919, -1.3318425491961496 
4.9100000000018955, -1.3310578983544339 
4.920000000001872, -1.3306983743021983 
4.930000000001849, -1.3306001068478028 
4.940000000001826, -1.3305605617671623 
