t, s[1].omega / s[0].omega 
0, -0.47999478973146276 
0.009999999999999995, -0.47951492714591026 
0.019999999999999934, -0.47911207429953045 
0.029999999999999874, -0.47876576841210666 
0.04000000000000012, -0.47844573785469213 
0.050000000000000405, -0.4781225950777849 
0.06000000000000069, -0.4777752293430738 
0.07000000000000098, -0.4773933327706813 
0.08000000000000126, -0.4769764839789462 
0.09000000000000155, -0.4765325715127334 
0.10000000000000184, -0.47607795191334146 
0.11000000000000212, -0.4756409249369199 
0.12000000000000241, -0.47526988075401777 
0.130000000000002, -0.47504790797703544 
0.1400000000000009, -0.4751160256512101 
0.1499999999999998, -0.47570544453378727 
0.1599999999999987, -0.4771697233831202 
0.1699999999999976, -0.4799779431905692 
0.1799999999999965, -0.4845683295400648 
0.1899999999999954, -0.4909213566638314 
0.1999999999999943, -0.49795254264916544 
0.2099999999999932, -0.503549088445431 
0.2199999999999921, -0.5060487992339737 
0.229999999999991, -0.505715729011136 
0.2399999999999899, -0.5041192978449411 
0.2499999999999888, -0.5025686151521183 
0.2599999999999877, -0.5015581690387447 
0.2699999999999866, -0.5010674012598686 
0.2799999999999855, -0.5009200582997729 
0.2899999999999844, -0.5009525430301499 
0.2999999999999833, -0.5010538190361843 
0.3099999999999822, -0.5011580626726629 
0.3199999999999811, -0.5012284770991976 
0.32999999999998, -0.5012440843384476 
0.3399999999999789, -0.501191369649642 
0.3499999999999778, -0.5010602231034887 
0.35999999999997667, -0.5008435676780649 
0.36999999999997557, -0.5005401572165982 
0.37999999999997447, -0.5001592421600474 
0.38999999999997337, -0.49972412263689103 
0.39999999999997227, -0.4992706617174315 
0.40999999999997117, -0.4988389214341029 
0.41999999999997006, -0.49846078355205775 
0.42999999999996896, -0.49814963134860424 
0.43999999999996786, -0.49789703618181297 
0.44999999999996676, -0.49767752635120444 
0.45999999999996566, -0.49745872132392205 
0.46999999999996456, -0.49721189555960726 
0.47999999999996346, -0.4969185402049142 
0.48999999999996235, -0.4965716351066109 
0.49999999999996125, -0.4961736398796807 
0.5099999999999602, -0.49573433819086316 
0.519999999999959, -0.4952709196939226 
0.529999999999958, -0.4948117349418631 
0.5399999999999568, -0.4944049984081788 
0.5499999999999557, -0.494134249057031 
0.5599999999999546, -0.49414271169302487 
0.5699999999999535, -0.4946664926205913 
0.5799999999999524, -0.49606563672900855 
0.5899999999999513, -0.4988098542828473 
0.5999999999999502, -0.5033141995465905 
0.6099999999999491, -0.5094978180656378 
0.619999999999948, -0.516224454861836 
0.6299999999999469, -0.5214718821954551 
0.6399999999999458, -0.5238199450519299 
0.6499999999999447, -0.5236675877473342 
0.6599999999999436, -0.522473097341717 
0.6699999999999425, -0.5213582032597222 
0.6799999999999414, -0.5207084108985509 
0.6899999999999403, -0.5204778155020623 
0.6999999999999392, -0.5205036309963951 
0.7099999999999381, -0.5206443610188871 
0.719999999999937, -0.5208081280667305 
0.7299999999999359, -0.5209428204612658 
0.7399999999999348, -0.5210203904238313 
0.7499999999999337, -0.5210247038024043 
0.7599999999999326, -0.5209441199032764 
0.7699999999999315, -0.5207682010753725 
0.7799999999999304, -0.5204881326532526 
0.7899999999999293, -0.5201005609105522 
0.7999999999999282, -0.5196135643247811 
0.8099999999999271, -0.5190513546618459 
0.819999999999926, -0.5184530720403008 
0.8299999999999249, -0.5178635772882662 
0.8399999999999238, -0.5173198270904789 
0.8499999999999227, -0.5168399844743562 
0.8599999999999216, -0.5164204645156524 
0.8699999999999205, -0.5160412121144684 
0.8799999999999194, -0.5156756336531892 
0.8899999999999183, -0.5153002894480138 
0.8999999999999172, -0.5149007929048465 
0.9099999999999161, -0.514473394192871 
0.919999999999915, -0.5140243020458939 
0.9299999999999139, -0.5135694998379988 
0.9399999999999128, -0.5131372061290722 
0.9499999999999117, -0.5127745384316797 
0.9599999999999106, -0.5125600407262987 
0.9699999999999095, -0.5126244075251969 
0.9799999999999084, -0.5131822445241332 
0.9899999999999073, -0.5145760985647116 
0.9999999999999062, -0.5173250558040131 
1.0099999999999052, -0.5221424741762124 
1.019999999999904, -0.5298276496371421 
1.029999999999903, -0.5408758356866283 
1.039999999999902, -0.5547846021803887 
1.0499999999999008, -0.569621181602313 
1.0599999999998997, -0.5828088381731102 
1.0699999999998986, -0.5927600134794974 
1.0799999999998975, -0.5994940866346566 
1.0899999999998964, -0.6038623377300453 
1.0999999999998953, -0.6067057238416507 
1.1099999999998942, -0.6085858495296157 
1.119999999999893, -0.6098347366687057 
1.129999999999892, -0.610648489432284 
1.1399999999998909, -0.6111468497643789 
1.1499999999998898, -0.611403146741524 
1.1599999999998887, -0.611458571478999 
1.1699999999998876, -0.6113289013611144 
1.1799999999998865, -0.6110075908988206 
1.1899999999998854, -0.6104678808832131 
1.1999999999998843, -0.6096672155193432 
1.2099999999998832, -0.6085584102991832 
1.219999999999882, -0.6071108085095094 
1.229999999999881, -0.6053372787477276 
1.2399999999998799, -0.603311221129999 
1.2499999999998788, -0.6011558544866993 
1.2599999999998777, -0.5990071565585977 
1.2699999999998766, -0.5969745045105438 
1.2799999999998755, -0.5951218503240485 
1.2899999999998744, -0.5934720104900671 
1.2999999999998733, -0.5920224636222198 
1.3099999999998722, -0.5907612352244858 
1.319999999999871, -0.5896777025955071 
1.32999999999987, -0.5887680553515692 
1.3399999999998689, -0.5880371021479001 
1.3499999999998678, -0.5874981822552565 
1.3599999999998666, -0.5871723658210568 
1.3699999999998655, -0.5870876127120902 
1.3799999999998644, -0.587278288339004 
1.3899999999998633, -0.5877852970067582 
1.3999999999998622, -0.5886568928233055 
1.4099999999998611, -0.5899497662452837 
1.41999999999986, -0.5917290778360148 
1.429999999999859, -0.5940645350738979 
1.4399999999998578, -0.5970174947750593 
1.4499999999998567, -0.6006127693398142 
1.4599999999998556, -0.604792625682455 
1.4699999999998545, -0.6093665037806479 
1.4799999999998534, -0.6139972430800291 
1.4899999999998523, -0.6182714727830042 
1.4999999999998512, -0.6218428200485344 
1.5099999999998501, -0.6245503845178446 
1.519999999999849, -0.6264262068089163 
1.529999999999848, -0.6276138448272137 
1.5399999999998468, -0.6282789252489177 
1.5499999999998457, -0.6285575880639274 
1.5599999999998446, -0.6285401080381142 
1.5699999999998435, -0.6282709404878332 
1.5799999999998424, -0.6277509034451649 
1.5899999999998413, -0.6269339199966643 
1.5999999999998402, -0.6257138542152348 
1.6099999999998391, -0.6238975678047568 
1.619999999999838, -0.6211625406370149 
1.629999999999837, -0.6170109066583152 
1.6399999999998358, -0.6107742622338482 
1.6499999999998347, -0.6017942136920967 
1.6599999999998336, -0.5898842912222328 
1.6699999999998325, -0.5758417276801742 
1.6799999999998314, -0.5613743911137354 
1.6899999999998303, -0.5482658253588081 
1.6999999999998292, -0.537569372539388 
1.709999999999828, -0.52948087886293 
1.719999999999827, -0.5236744798966628 
1.729999999999826, -0.5196540019986665 
1.7399999999998248, -0.5169477282938002 
1.7499999999998237, -0.515175870883371 
1.7599999999998226, -0.514055560671878 
1.7699999999998215, -0.5133845396099506 
1.7799999999998204, -0.5130216991482428 
1.7899999999998193, -0.5128705023024505 
1.7999999999998182, -0.5128664674280691 
1.809999999999817, -0.5129683681226934 
1.819999999999816, -0.5131525037666775 
1.8299999999998149, -0.5134093623415105 
1.8399999999998138, -0.5137417994164407 
1.8499999999998127, -0.5141633601883295 
1.8599999999998116, -0.5146948057310241 
1.8699999999998105, -0.5153569026975813 
1.8799999999998094, -0.5161588192830439 
1.8899999999998083, -0.5170843815238153 
1.8999999999998072, -0.5180824679445373 
1.909999999999806, -0.5190702281530859 
1.919999999999805, -0.5199532295800108 
1.9299999999998039, -0.5206540185558095 
1.9399999999998028, -0.5211316303068778 
1.9499999999998017, -0.5213816566446632 
1.9599999999998006, -0.5214219096030858 
1.9699999999997995, -0.5212753928488012 
1.9799999999997984, -0.5209577193922256 
1.9899999999997973, -0.5204693634430149 
1.9999999999997962, -0.5197896789630767 
2.0099999999998173, -0.5188686492564678 
2.0199999999998384, -0.5176113326992511 
2.0299999999998595, -0.5158472594411424 
2.0399999999998806, -0.5132731087512801 
2.0499999999999017, -0.5093608216848559 
2.059999999999923, -0.5032698037507808 
2.069999999999944, -0.49394955296767284 
2.079999999999965, -0.4807623725349175 
2.089999999999986, -0.46449982518361177 
2.100000000000007, -0.44755704794759427 
2.1100000000000283, -0.43252844152691405 
2.1200000000000494, -0.42076593981382693 
2.1300000000000705, -0.41228789747162536 
2.1400000000000916, -0.40646054216564087 
2.1500000000001127, -0.4025540900879482 
2.160000000000134, -0.3999714300843113 
2.170000000000155, -0.39828450123412373 
2.180000000000176, -0.3972042984634507 
2.190000000000197, -0.39654146420478675 
2.2000000000002182, -0.396174565591595 
2.2100000000002393, -0.3960281773345222 
2.2200000000002604, -0.396058914285799 
2.2300000000002815, -0.39624722156980363 
2.2400000000003026, -0.39659321876489373 
2.2500000000003237, -0.39711527427436055 
2.260000000000345, -0.39784994092041204 
2.270000000000366, -0.3988512833185872 
2.280000000000387, -0.40018643987015234 
2.290000000000408, -0.40192270977642847 
2.3000000000004293, -0.4041008678771972 
2.3100000000004504, -0.4066940613269824 
2.3200000000004715, -0.4095677278692964 
2.3300000000004926, -0.4124779034659455 
2.3400000000005137, -0.41513869196492026 
2.3500000000005348, -0.4173295837235683 
2.360000000000556, -0.41896247721511226 
2.370000000000577, -0.42006760546754973 
2.380000000000598, -0.4207338604101968 
2.390000000000619, -0.42105530285359327 
2.4000000000006403, -0.42110309491564973 
2.4100000000006614, -0.4209162731790542 
2.4200000000006825, -0.4204999221339282 
2.4300000000007036, -0.4198236217382643 
2.4400000000007247, -0.4188182086073383 
2.450000000000746, -0.41737426771727987 
2.460000000000767, -0.41535324801747703 
2.470000000000788, -0.4126292152381696 
2.480000000000809, -0.4091704194992209 
2.49000000000083, -0.40512487592151336 
2.5000000000008513, -0.4008244379765323 
2.5100000000008724, -0.39666553590826553 
2.5200000000008935, -0.3929529315629558 
2.5300000000009146, -0.389826017284089 
2.5400000000009357, -0.38728479144939804 
2.550000000000957, -0.38525453284496114 
2.560000000000978, -0.38363928700323535 
2.570000000000999, -0.38235140183193184 
2.58000000000102, -0.3813232194270729 
2.5900000000010412, -0.3805095164073758 
2.6000000000010624, -0.3798866155611701 
2.6100000000010835, -0.37945149776910164 
2.6200000000011046, -0.37922272793222234 
2.6300000000011257, -0.37924440028716183 
2.6400000000011468, -0.3795943368025615 
2.650000000001168, -0.38039819722597673 
2.660000000001189, -0.38185159697472476 
2.67000000000121, -0.38425170194179104 
2.680000000001231, -0.3880348731181777 
2.6900000000012523, -0.3937996374674535 
2.7000000000012734, -0.40225050396559947 
2.7100000000012945, -0.4139302357233758 
2.7200000000013156, -0.42863073704563204 
2.7300000000013367, -0.4447830075385945 
2.740000000001358, -0.45977197213845206 
2.750000000001379, -0.4714801386785535 
2.7600000000014, -0.47944268301572157 
2.770000000001421, -0.48443002866184076 
2.780000000001442, -0.4874634188349959 
2.7900000000014633, -0.48931176431593676 
2.8000000000014844, -0.49044570780136576 
2.8100000000015055, -0.4911321542957313 
2.8200000000015266, -0.49151956889538584 
2.8300000000015477, -0.4916893416575932 
2.840000000001569, -0.491682976804323 
2.85000000000159, -0.4915161085928932 
2.860000000001611, -0.491186531925268 
2.870000000001632, -0.4906810150994489 
2.8800000000016532, -0.4899844444248725 
2.8900000000016743, -0.4890929352933395 
2.9000000000016954, -0.4880280930690719 
2.9100000000017165, -0.48684405391035634 
2.9200000000017377, -0.485618994170501 
2.9300000000017588, -0.4844328704818393 
2.94000000000178, -0.4833444598021823 
2.950000000001801, -0.48238027577995835 
2.960000000001822, -0.4815375957967663 
2.970000000001843, -0.4807957206885212 
2.9800000000018643, -0.48012848546188847 
2.9900000000018854, -0.47951368521634546 
3.0000000000019065, -0.4789382031224155 
3.0100000000019276, -0.4783999624301537 
3.0200000000019487, -0.4779088803189543 
3.03000000000197, -0.4774889300714995 
3.040000000001991, -0.4771829560029891 
3.050000000002012, -0.47706170159692923 
3.060000000002033, -0.4772388059089202 
3.070000000002054, -0.4778940452730357 
3.0800000000020753, -0.479306976186525 
3.0900000000020964, -0.48189988145462925 
3.1000000000021175, -0.48627609616850337 
3.1100000000021386, -0.4932048305046951 
3.1200000000021597, -0.5034388807726281 
3.130000000002181, -0.5172194425222104 
3.140000000002202, -0.5335644325726785 
3.150000000002223, -0.5500909725332003 
3.160000000002244, -0.5641672022361663 
3.1700000000022652, -0.5744936151946061 
3.1800000000022863, -0.5813539792738094 
3.1900000000023074, -0.5857130899152534 
3.2000000000023285, -0.5884614267091648 
3.2100000000023496, -0.5902012063889577 
3.2200000000023707, -0.5912968138874766 
3.230000000002392, -0.5919627827202139 
3.240000000002413, -0.5923246872752446 
3.250000000002434, -0.5924532783947243 
3.260000000002455, -0.5923821837764032 
3.2700000000024763, -0.5921166093919229 
3.2800000000024974, -0.5916377479160498 
3.2900000000025185, -0.5909069671617566 
3.3000000000025396, -0.5898746720090753 
3.3100000000025607, -0.5884987454498826 
3.3200000000025818, -0.5867724070001881 
3.330000000002603, -0.5847492877558462 
3.340000000002624, -0.5825447138780563 
3.350000000002645, -0.5803042702706935 
3.360000000002666, -0.5781583246339084 
3.3700000000026873, -0.576191775389214 
3.3800000000027084, -0.574440676685016 
3.3900000000027295, -0.572906683161372 
3.4000000000027506, -0.5715753281872911 
3.4100000000027717, -0.5704300003130034 
3.420000000002793, -0.5694598734177675 
3.430000000002814, -0.5686632261064479 
3.440000000002835, -0.5680482009180159 
3.450000000002856, -0.5676325452552055 
3.460000000002877, -0.5674432155450845 
3.4700000000028983, -0.5675163011668143 
3.4800000000029194, -0.5678975307675456 
3.4900000000029405, -0.5686434835893547 
3.5000000000029616, -0.5698233120915261 
3.5100000000029827, -0.5715200177108472 
3.520000000003004, -0.5738287766044886 
3.530000000003025, -0.5768472351609859 
3.540000000003046, -0.580649682536152 
3.550000000003067, -0.5852371180746881 
3.5600000000030882, -0.5904675272827855 
3.5700000000031094, -0.5960038229723534 
3.5800000000031305, -0.6013500100888419 
3.5900000000031516, -0.6060096078356816 
3.6000000000031727, -0.6096759892039365 
3.6100000000031938, -0.6123055175549734 
3.620000000003215, -0.6140425737203645 
3.630000000003236, -0.6150955402705034 
3.640000000003257, -0.615651838174532 
3.650000000003278, -0.6158459536606834 
3.6600000000032993, -0.6157572767266042 
3.6700000000033204, -0.615415955284121 
3.6800000000033415, -0.6148053755784807 
3.6900000000033626, -0.6138562532566911 
3.7000000000033837, -0.6124296164524347 
3.710000000003405, -0.6102882047268874 
3.720000000003426, -0.6070650305501509 
3.730000000003447, -0.60226500007252 
3.740000000003468, -0.5953800006936432 
3.750000000003489, -0.5861922754562717 
3.7600000000035103, -0.5751462119707245 
3.7700000000035314, -0.5633901700938755 
3.7800000000035525, -0.5522812836547865 
3.7900000000035736, -0.5427775952124968 
3.8000000000035947, -0.5352250150026553 
3.810000000003616, -0.5295198558682854 
3.820000000003637, -0.5253571300126298 
3.830000000003658, -0.5223982173014848 
3.840000000003679, -0.5203457345808734 
3.8500000000037002, -0.5189634023442419 
3.8600000000037213, -0.5180725271998903 
3.8700000000037424, -0.5175416440237877 
3.8800000000037635, -0.5172760132864422 
3.8900000000037847, -0.5172090314418483 
3.9000000000038058, -0.517295853351528 
3.910000000003827, -0.5175090108697299 
3.920000000003848, -0.5178356834914386 
3.930000000003869, -0.5182761009867979 
3.94000000000389, -0.5188421239344162 
3.9500000000039113, -0.519554388834229 
3.9600000000039324, -0.5204359174247656 
3.9700000000039535, -0.5215005398443023 
3.9800000000039746, -0.5227368091658708 
3.9900000000039957, -0.5240928677257113 
4.000000000004016, -0.5254731416697691 
4.010000000003993, -0.5267568098422746 
4.02000000000397, -0.5278340089647722 
4.030000000003946, -0.5286382489931728 
4.040000000003923, -0.5291547522512289 
4.0500000000039, -0.5294051699999853 
4.0600000000038765, -0.5294243131875854 
4.070000000003853, -0.529241687052684 
4.08000000000383, -0.5288705841864819 
4.090000000003807, -0.5283013265507146 
4.100000000003783, -0.5274937490247599 
4.11000000000376, -0.5263638038659817 
4.120000000003737, -0.5247579620193127 
4.130000000003713, -0.522407184399179 
4.14000000000369, -0.5188559448465617 
4.150000000003667, -0.5133938260614264 
4.1600000000036434, -0.5051174517291289 
4.17000000000362, -0.493369635906426 
4.180000000003597, -0.4785605728621922 
4.1900000000035735, -0.46254322866644015 
4.20000000000355, -0.4476971854143752 
4.210000000003527, -0.43557679696320956 
4.220000000003504, -0.42651544008534065 
4.23000000000348, -0.4200922153296963 
4.240000000003457, -0.41566992082850085 
4.250000000003434, -0.4126735032446688 
4.26000000000341, -0.41066730022198356 
4.270000000003387, -0.4093459760941173 
4.280000000003364, -0.4085035576648002 
4.2900000000033405, -0.4080043603750313 
4.300000000003317, -0.4077614204788578 
4.310000000003294, -0.40772207639685043 
4.320000000003271, -0.4078590808896779 
4.330000000003247, -0.408165762523666 
4.340000000003224, -0.4086540663119062 
4.350000000003201, -0.409354338964517 
4.360000000003177, -0.41031527132862883 
4.370000000003154, -0.41160134847161045 
4.380000000003131, -0.41328353422952213 
4.390000000003107, -0.41541751281188477 
4.400000000003084, -0.41800577708634223 
4.410000000003061, -0.42095173522068496 
4.4200000000030375, -0.42403740261504186 
4.430000000003014, -0.42696641180222406 
4.440000000002991, -0.42947009581298057 
4.450000000002968, -0.4314033344174363 
4.460000000002944, -0.43276028280858575 
4.470000000002921, -0.43362147325168204 
4.480000000002898, -0.4340902950688702 
4.490000000002874, -0.43425366996329345 
4.500000000002851, -0.43416695453408183 
4.510000000002828, -0.43385078627105955 
4.520000000002804, -0.43329021125372824 
4.530000000002781, -0.43243187780990633 
4.540000000002758, -0.4311800970757417 
4.5500000000027345, -0.42939901605721936 
4.560000000002711, -0.42693705567524953 
4.570000000002688, -0.4236926223423473 
4.580000000002665, -0.41971318228446364 
4.590000000002641, -0.41525772544114864 
4.600000000002618, -0.410734734467357 
4.610000000002595, -0.40653656508923514 
4.620000000002571, -0.402904299567625 
4.630000000002548, -0.39990669391336225 
4.640000000002525, -0.3974974096120906 
4.6500000000025015, -0.39558197093500763 
4.660000000002478, -0.39406176857374586 
4.670000000002455, -0.3928545919506211 
4.6800000000024315, -0.3919009634197309 
4.690000000002408, -0.39116421103633325 
4.700000000002385, -0.39062899915939997 
4.710000000002362, -0.3903007762094118 
4.720000000002338, -0.3902074610892746 
4.730000000002315, -0.3904043407225707 
4.740000000002292, -0.3909832879172972 
4.750000000002268, -0.3920877308033865 
4.760000000002245, -0.39393474256203687 
4.770000000002222, -0.39684362855583066 
4.7800000000021985, -0.4012624141521798 
4.790000000002175, -0.4077612377282406 
4.800000000002152, -0.416916717655631 
4.810000000002129, -0.4289737399681748 
4.820000000002105, -0.44329552716749693 
4.830000000002082, -0.4580767452095905 
4.840000000002059, -0.4710477161246519 
4.850000000002035, -0.480813782352128 
4.860000000002012, -0.4873697697008743 
4.870000000001989, -0.4914929071900846 
4.880000000001965, -0.4940205987730664 
4.890000000001942, -0.4955591968151361 
