t, s[1].omega / s[0].omega 
0, -0.23999781299138978 
0.009999999999999995, -0.2398577887715919 
0.019999999999999934, -0.23985962137291716 
0.029999999999999874, -0.2399646026418155 
0.04000000000000012, -0.24011796937140856 
0.050000000000000405, -0.24026204604334866 
0.06000000000000069, -0.24034889078588617 
0.07000000000000098, -0.24034661764871887 
0.08000000000000126, -0.24023755215745707 
0.09000000000000155, -0.24001093508598284 
0.10000000000000184, -0.23965383190770556 
0.11000000000000212, -0.23914188224215974 
0.12000000000000241, -0.23842930369683168 
0.130000000000002, -0.23743690403129536 
0.1400000000000009, -0.23603907757993162 
0.1499999999999998, -0.23405858064357252 
0.1599999999999987, -0.23129331850458007 
0.1699999999999976, -0.22760921797838907 
0.1799999999999965, -0.2230907123035022 
0.1899999999999954, -0.21812610235523583 
0.1999999999999943, -0.2132792365336999 
0.2099999999999932, -0.20901982396023522 
0.2199999999999921, -0.20555936766566124 
0.229999999999991, -0.20288143739043285 
0.2399999999999899, -0.20085529782251815 
0.2499999999999888, -0.19932623934408172 
0.2599999999999877, -0.19815881607487165 
0.2699999999999866, -0.1972491844263736 
0.2799999999999855, -0.19652400377932364 
0.2899999999999844, -0.19593543229211394 
0.2999999999999833, -0.1954562327913543 
0.3099999999999822, -0.19507651647086813 
0.3199999999999811, -0.19480269490328694 
0.32999999999998, -0.19465871874289392 
0.3399999999999789, -0.19468879141767523 
0.3499999999999778, -0.1949577580213752 
0.35999999999997667, -0.19553591864709116 
0.36999999999997557, -0.19643006431513815 
0.37999999999997447, -0.197377776047975 
0.38999999999997337, -0.19743158674922 
0.39999999999997227, -0.19464388953901185 
0.40999999999997117, -0.1870213431343008 
0.41999999999997006, -0.1749906722767077 
0.42999999999996896, -0.16183835024674767 
0.43999999999996786, -0.15068501653427127 
0.44999999999996676, -0.14255006704002007 
0.45999999999996566, -0.13702792500710792 
0.46999999999996456, -0.13336476074866183 
0.47999999999996346, -0.13093079387061152 
0.48999999999996235, -0.1292983580485461 
0.49999999999996125, -0.12820015965883663 
0.5099999999999602, -0.12747741828451048 
0.519999999999959, -0.12704317752675942 
0.529999999999958, -0.12686125984334093 
0.5399999999999568, -0.12693745692441083 
0.5499999999999557, -0.12732095442106792 
0.5599999999999546, -0.12811634684677503 
0.5699999999999535, -0.12950886233950804 
0.5799999999999524, -0.1318060848802863 
0.5899999999999513, -0.13549207662979884 
0.5999999999999502, -0.1412529251863361 
0.6099999999999491, -0.14982172586195552 
0.619999999999948, -0.16132762285976399 
0.6299999999999469, -0.1741283440507489 
0.6399999999999458, -0.18469410939545006 
0.6499999999999447, -0.190331434830402 
0.6599999999999436, -0.19155625043881785 
0.6699999999999425, -0.19059353275705743 
0.6799999999999414, -0.18912380769493067 
0.6899999999999403, -0.1878435896355141 
0.6999999999999392, -0.18690048471749626 
0.7099999999999381, -0.1862538251608864 
0.719999999999937, -0.18582995320216722 
0.7299999999999359, -0.1855689707242945 
0.7399999999999348, -0.18543279250588607 
0.7499999999999337, -0.18540328226168576 
0.7599999999999326, -0.1854798552100669 
0.7699999999999315, -0.18567908456279125 
0.7799999999999304, -0.18603679621731023 
0.7899999999999293, -0.186612517267185 
0.7999999999999282, -0.18749561789702468 
0.8099999999999271, -0.1888111019714615 
0.819999999999926, -0.1907192372220814 
0.8299999999999249, -0.1933952200948817 
0.8399999999999238, -0.19696553350801357 
0.8499999999999227, -0.20138722166739598 
0.8599999999999216, -0.2063244465783373 
0.8699999999999205, -0.21117553487861293 
0.8799999999999194, -0.21533517049550568 
0.8899999999999183, -0.2184871434021521 
0.8999999999999172, -0.22065535507284634 
0.9099999999999161, -0.22204672778338802 
0.919999999999915, -0.22289046339713234 
0.9299999999999139, -0.2233651630510589 
0.9399999999999128, -0.223589561452536 
0.9499999999999117, -0.22363600717247167 
0.9599999999999106, -0.22354613397605214 
0.9699999999999095, -0.22334342498661636 
0.9799999999999084, -0.22304319254767976 
0.9899999999999073, -0.22266137253381438 
0.9999999999999062, -0.22222225825980507 
1.0099999999999052, -0.2217632983028917 
1.019999999999904, -0.2213341682778618 
1.029999999999903, -0.22098921909163988 
1.039999999999902, -0.22077603657190856 
1.0499999999999008, -0.22072446119472638 
1.0599999999998997, -0.22083872452226178 
1.0699999999998986, -0.2210937584231011 
1.0799999999998975, -0.22143766077625004 
1.0899999999998964, -0.22180258228966557 
1.0999999999998953, -0.22212183868462926 
1.1099999999998942, -0.2223450775885582 
1.119999999999893, -0.22244374304261352 
1.129999999999892, -0.2224061835264012 
1.1399999999998909, -0.22222747510006582 
1.1499999999998898, -0.2218988848956577 
1.1599999999998887, -0.22139873589167514 
1.1699999999998876, -0.22068424646083368 
1.1799999999998865, -0.21968433974169382 
1.1899999999998854, -0.21829707513152904 
1.1999999999998843, -0.2164025002752759 
1.2099999999998832, -0.21390747421367262 
1.219999999999882, -0.2108252426694369 
1.229999999999881, -0.2073431029644536 
1.2399999999998799, -0.20379434456988377 
1.2499999999998788, -0.20052186873123481 
1.2599999999998777, -0.19774356224884693 
1.2699999999998766, -0.1955182649785893 
1.2799999999998755, -0.19379463363479627 
1.2899999999998744, -0.19247492660647797 
1.2999999999998733, -0.19145707511747392 
1.3099999999998722, -0.1906536546045734 
1.319999999999871, -0.18999721565724623 
1.32999999999987, -0.1894394147438288 
1.3399999999998689, -0.18894782384768602 
1.3499999999998678, -0.18850223163200586 
1.3599999999998666, -0.18809116685689115 
1.3699999999998655, -0.18770845475697023 
1.3799999999998644, -0.1873482110530328 
1.3899999999998633, -0.18699369509828645 
1.3999999999998622, -0.1865886248207679 
1.4099999999998611, -0.18596624973064907 
1.41999999999986, -0.1846993757206176 
1.429999999999859, -0.18188578944241499 
1.4399999999998578, -0.1761579281355686 
1.4499999999998567, -0.1665664030568891 
1.4599999999998556, -0.1540852935299991 
1.4699999999998545, -0.14145973807002346 
1.4799999999998534, -0.1309992189809261 
1.4899999999998523, -0.12335681950831165 
1.4999999999998512, -0.11810471632916744 
1.5099999999998501, -0.1145602557001301 
1.519999999999849, -0.11215562107016622 
1.529999999999848, -0.11050053632839998 
1.5399999999998468, -0.10934712476352285 
1.5499999999998457, -0.10854532811683892 
1.5599999999998446, -0.10801067978276302 
1.5699999999998435, -0.10770542064291004 
1.5799999999998424, -0.10763034457477032 
1.5899999999998413, -0.1078257694288198 
1.5999999999998402, -0.10838184118188765 
1.6099999999998391, -0.10945963420262635 
1.619999999999838, -0.11132241832074585 
1.629999999999837, -0.1143608118056156 
1.6399999999998358, -0.11903690686882726 
1.6499999999998347, -0.1255298765894755 
1.6599999999998336, -0.13279259400831062 
1.6699999999998325, -0.1376423006682412 
1.6799999999998314, -0.13653486429261896 
1.6899999999998303, -0.12974302660681086 
1.6999999999998292, -0.12108207222330516 
1.709999999999828, -0.11362926313247565 
1.719999999999827, -0.10824148399263737 
1.729999999999826, -0.10461445721966764 
1.7399999999998248, -0.10222371837322727 
1.7499999999998237, -0.10064983531540753 
1.7599999999998226, -0.09961613542778666 
1.7699999999998215, -0.09895519747920714 
1.7799999999998204, -0.0985740789597205 
1.7899999999998193, -0.09843187381404704 
1.7999999999998182, -0.09852914274984022 
1.809999999999817, -0.09890745486051797 
1.819999999999816, -0.09965898090778685 
1.8299999999998149, -0.10094825164639476 
1.8399999999998138, -0.103049428669833 
1.8499999999998127, -0.10639801632208659 
1.8599999999998116, -0.11162958456057218 
1.8699999999998105, -0.11949207921783012 
1.8799999999998094, -0.13036576024527233 
1.8899999999998083, -0.14324560120380014 
1.8999999999998072, -0.15523577717468345 
1.909999999999806, -0.16340528374216906 
1.919999999999805, -0.1672855485310521 
1.9299999999998039, -0.1683990493488426 
1.9399999999998028, -0.1683194609202089 
1.9499999999998017, -0.1679088289783359 
1.9599999999998006, -0.16749832137394022 
1.9699999999997995, -0.1671772851062679 
1.9799999999997984, -0.1669523655822842 
1.9899999999997973, -0.1668111459564515 
1.9999999999997962, -0.1667434468665478 
2.0099999999998173, -0.1667477326916667 
2.0199999999998384, -0.16683356206360433 
2.0299999999998595, -0.16702398623291834 
2.0399999999998806, -0.16735916456601466 
2.0499999999999017, -0.16790139659105036 
2.059999999999923, -0.16874094911866927 
2.069999999999944, -0.1700004471238144 
2.079999999999965, -0.17183160567806036 
2.089999999999986, -0.1743903008971215 
2.100000000000007, -0.17776906189854505 
2.1100000000000283, -0.1818828602341701 
2.1200000000000494, -0.18637550687275434 
2.1300000000000705, -0.19068599646011802 
2.1400000000000916, -0.19430527562393815 
2.1500000000001127, -0.1970058953116898 
2.160000000000134, -0.19884455435013426 
2.170000000000155, -0.20001350832364673 
2.180000000000176, -0.20071094454067712 
2.190000000000197, -0.20108767288950177 
2.2000000000002182, -0.20124308956082887 
2.2100000000002393, -0.20123760933203744 
2.2200000000002604, -0.20110628914141868 
2.2300000000002815, -0.20087006182077446 
2.2400000000003026, -0.20054516424476918 
2.2500000000003237, -0.20015157276021558 
2.260000000000345, -0.19971974853231494 
2.270000000000366, -0.1992933436647771 
2.280000000000387, -0.1989256912989503 
2.290000000000408, -0.19867067560692736 
2.3000000000004293, -0.19857149912259325 
2.3100000000004504, -0.1986507579468075 
2.3200000000004715, -0.19890315780679507 
2.3300000000004926, -0.19929217607193878 
2.3400000000005137, -0.19975419965007055 
2.3500000000005348, -0.2002127580179247 
2.360000000000556, -0.20059842513334697 
2.370000000000577, -0.20086374024666406 
2.380000000000598, -0.20098575746510616 
2.390000000000619, -0.2009580452627216 
2.4000000000006403, -0.20077889618696684 
2.4100000000006614, -0.20044070252798418 
2.4200000000006825, -0.19992177587930052 
2.4300000000007036, -0.19918030798227174 
2.4400000000007247, -0.19815158353988496 
2.450000000000746, -0.19675364329168146 
2.460000000000767, -0.19491118188413234 
2.470000000000788, -0.19260408958340566 
2.480000000000809, -0.1899230346913196 
2.49000000000083, -0.18708131046579934 
2.5000000000008513, -0.18434656290889861 
2.5100000000008724, -0.1819345301084861 
2.5200000000008935, -0.1799476129665373 
2.5300000000009146, -0.1783844676349667 
2.5400000000009357, -0.17718378600711254 
2.550000000000957, -0.17626374877621892 
2.560000000000978, -0.17554499416530076 
2.570000000000999, -0.1749606196434373 
2.58000000000102, -0.17445886670644697 
2.5900000000010412, -0.174001944138 
2.6000000000010624, -0.1735627644372534 
2.6100000000010835, -0.17312053166585467 
2.6200000000011046, -0.1726553003696438 
2.6300000000011257, -0.1721402935994502 
2.6400000000011468, -0.17152847221279618 
2.650000000001168, -0.1707258701621392 
2.660000000001189, -0.16953886574205052 
2.67000000000121, -0.1675845273374093 
2.680000000001231, -0.1641994071142236 
2.6900000000012523, -0.15853439738499334 
2.7000000000012734, -0.15014525742977905 
2.7100000000012945, -0.1398309492578344 
2.7200000000013156, -0.12948458173354818 
2.7300000000013367, -0.12075354170306396 
2.740000000001358, -0.11419554002565946 
2.750000000001379, -0.1095622145860838 
2.7600000000014, -0.10635656410355887 
2.770000000001421, -0.10413103932161047 
2.780000000001442, -0.1025614090970181 
2.7900000000014633, -0.10143304461499596 
2.8000000000014844, -0.10061073530461506 
2.8100000000015055, -0.1000139604727485 
2.8200000000015266, -0.09960096489468173 
2.8300000000015477, -0.09936045069951308 
2.840000000001569, -0.09930948816212926 
2.85000000000159, -0.09949671530370212 
2.860000000001611, -0.10000918692142395 
2.870000000001632, -0.10097591159989731 
2.8800000000016532, -0.10254158432720646 
2.8900000000016743, -0.1047306385761011 
2.9000000000016954, -0.10703997232682334 
2.9100000000017165, -0.10773923408618705 
2.9200000000017377, -0.10391882192836474 
2.9300000000017588, -0.09414594027119243 
2.94000000000178, -0.08113392570295441 
2.950000000001801, -0.06913270055370777 
2.960000000001822, -0.06017322751671801 
2.970000000001843, -0.05412446818593362 
2.9800000000018643, -0.050172188908392236 
2.9900000000018854, -0.047585070819050085 
3.0000000000019065, -0.04586684323784207 
3.0100000000019276, -0.04471245347009619 
3.0200000000019487, -0.043943729131387874 
3.03000000000197, -0.04346402342898638 
3.040000000001991, -0.04323263367980779 
3.050000000002012, -0.043254128968687626 
3.060000000002033, -0.04357966307316994 
3.070000000002054, -0.0443201484639449 
3.0800000000020753, -0.04567268164092912 
3.0900000000020964, -0.04795701263575726 
3.1000000000021175, -0.05163008261425461 
3.1100000000021386, -0.05714478814679711 
3.1200000000021597, -0.06431209777116041 
3.130000000002181, -0.07097912588297203 
3.140000000002202, -0.07284720960023958 
3.150000000002223, -0.06756352562814691 
3.160000000002244, -0.058143441802537124 
3.1700000000022652, -0.049050498744756185 
3.1800000000022863, -0.04223241362996806 
3.1900000000023074, -0.03762792177903593 
3.2000000000023285, -0.034615837585702164 
3.2100000000023496, -0.032645724378737265 
3.2200000000023707, -0.03134854902988624 
3.230000000002392, -0.030501021051600095 
3.240000000002413, -0.029977823052337454 
3.250000000002434, -0.02971955612719469 
3.260000000002455, -0.029716829963257918 
3.2700000000024763, -0.030007729839279112 
3.2800000000024974, -0.030688201115365542 
3.2900000000025185, -0.03193800438815227 
3.3000000000025396, -0.034066343301576624 
3.3100000000025607, -0.03757220281425825 
3.3200000000025818, -0.04316194502592209 
3.330000000002603, -0.05149341071818263 
3.340000000002624, -0.0621608129064022 
3.350000000002645, -0.07211620799612314 
3.360000000002666, -0.07665002690919834 
3.3700000000026873, -0.07446493784654314 
3.3800000000027084, -0.06888491399730605 
3.3900000000027295, -0.06332931912064046 
3.4000000000027506, -0.05909141146416062 
3.4100000000027717, -0.056168600543619385 
3.420000000002793, -0.0542186462173506 
3.430000000002814, -0.052929007349551326 
3.440000000002835, -0.052086146371969996 
3.450000000002856, -0.05156124625366739 
3.460000000002877, -0.05128684030617736 
3.4700000000028983, -0.0512415021924625 
3.4800000000029194, -0.05144454969261293 
3.4900000000029405, -0.05196080885266907 
3.5000000000029616, -0.0529171139689491 
3.5100000000029827, -0.054534529663176776 
3.520000000003004, -0.05718037467701228 
3.530000000003025, -0.06143121274908753 
3.540000000003046, -0.0680774380852601 
3.550000000003067, -0.07783261642388326 
3.5600000000030882, -0.09036437075423798 
3.5700000000031094, -0.10307987166398343 
3.5800000000031305, -0.11214239512996949 
3.5900000000031516, -0.11602841210751476 
3.6000000000031727, -0.11634247706126455 
3.6100000000031938, -0.11525748871378219 
3.620000000003215, -0.11398988006540715 
3.630000000003236, -0.11294807549591161 
3.640000000003257, -0.11218792313054977 
3.650000000003278, -0.11166491006649282 
3.6600000000032993, -0.11132603598973716 
3.6700000000033204, -0.11113454119756797 
3.6800000000033415, -0.11107380278025383 
3.6900000000033626, -0.11114727201814752 
3.7000000000033837, -0.11137986756483646 
3.710000000003405, -0.11182268962887765 
3.720000000003426, -0.1125621098725216 
3.730000000003447, -0.11373400095254338 
3.740000000003468, -0.11554220031395716 
3.750000000003489, -0.11827325743745129 
3.7600000000035103, -0.12227925090972966 
3.7700000000035314, -0.12786355314301454 
3.7800000000035525, -0.13499827226027616 
3.7900000000035736, -0.1429828279926133 
3.8000000000035947, -0.1505152075909796 
3.810000000003616, -0.1564402810623098 
3.820000000003637, -0.16042436205849717 
3.830000000003658, -0.16282702814642958 
3.840000000003679, -0.16419123317645373 
3.8500000000037002, -0.16494374197791584 
3.8600000000037213, -0.16534878880730097 
3.8700000000037424, -0.16555438028831346 
3.8800000000037635, -0.16564134647504003 
3.8900000000037847, -0.16565537061898553 
3.9000000000038058, -0.1656255085909583 
3.910000000003827, -0.1655752117174115 
3.920000000003848, -0.16552974003675594 
3.930000000003869, -0.16552165250971632 
3.94000000000389, -0.1655944989169644 
3.9500000000039113, -0.16580401598040756 
3.9600000000039324, -0.16621590763181437 
3.9700000000039535, -0.16689887063918765 
3.9800000000039746, -0.1679101941560454 
3.9900000000039957, -0.1692709423731729 
4.000000000004016, -0.1709343275395224 
4.010000000003993, -0.17276717294436325 
4.02000000000397, -0.17457365029050548 
4.030000000003946, -0.17616343449273036 
4.040000000003923, -0.17741862766186672 
4.0500000000039, -0.1783117707379517 
4.0600000000038765, -0.1788773948720557 
4.070000000003853, -0.17917221648861043 
4.08000000000383, -0.17924817201827897 
4.090000000003807, -0.1791412079856875 
4.100000000003783, -0.17886991886633619 
4.11000000000376, -0.1784391468227176 
4.120000000003737, -0.17784694055979552 
4.130000000003713, -0.177095055275573 
4.14000000000369, -0.17620200148059775 
4.150000000003667, -0.17521357736723986 
4.1600000000036434, -0.17420264143836242 
4.17000000000362, -0.17325409471047412 
4.180000000003597, -0.1724421141780839 
4.1900000000035735, -0.17181267577683088 
4.20000000000355, -0.17137808063229423 
4.210000000003527, -0.1711206045516717 
4.220000000003504, -0.17100001852530014 
4.23000000000348, -0.17096289478569102 
4.240000000003457, -0.17095326364186347 
4.250000000003434, -0.17092241599114452 
4.26000000000341, -0.1708342630518254 
4.270000000003387, -0.1706645073221193 
4.280000000003364, -0.17039496488616918 
4.2900000000033405, -0.17000551834411678 
4.300000000003317, -0.16946509073504884 
4.310000000003294, -0.1687215669785386 
4.320000000003271, -0.16769062571727744 
4.330000000003247, -0.16624691451919565 
4.340000000003224, -0.1642302601276632 
4.350000000003201, -0.16149205021417584 
4.360000000003177, -0.1579993684246078 
4.370000000003154, -0.15394842190642066 
4.380000000003131, -0.14975776625628626 
4.390000000003107, -0.1458869089619073 
4.400000000003084, -0.14263263504633183 
4.410000000003061, -0.14007156572130247 
4.4200000000030375, -0.13813111244452445 
4.430000000003014, -0.13668141683598722 
4.440000000002991, -0.13559210511282252 
4.450000000002968, -0.13475468797746534 
4.460000000002944, -0.13408669292110806 
4.470000000002921, -0.1335287556147774 
4.480000000002898, -0.13303964839774032 
4.490000000002874, -0.13259096131774592 
4.500000000002851, -0.1321617390860778 
4.510000000002828, -0.13173232440782515 
4.520000000002804, -0.13127499575165102 
4.530000000002781, -0.13073570265137627 
4.540000000002758, -0.1299950745079635 
4.5500000000027345, -0.12878968872227997 
4.560000000002711, -0.1265866049976459 
4.570000000002688, -0.12250606196085931 
4.580000000002665, -0.11562959788541527 
4.590000000002641, -0.10595730501236467 
4.600000000002618, -0.09507797452944788 
4.610000000002595, -0.08516397393529097 
4.620000000002571, -0.07743159062688565 
4.630000000002548, -0.07192165815119182 
4.640000000002525, -0.06814161959905031 
4.6500000000025015, -0.06555972776955918 
4.660000000002478, -0.06377134540894783 
4.670000000002455, -0.06250505242687558 
4.6800000000024315, -0.061588558384252076 
4.690000000002408, -0.06091658635008736 
4.700000000002385, -0.06042888331999763 
4.710000000002362, -0.06009716973021049 
4.720000000002338, -0.05991857569862171 
4.730000000002315, -0.05991331320745343 
4.740000000002292, -0.06012331172366854 
4.750000000002268, -0.06060309175156046 
4.760000000002245, -0.06137681634202691 
4.770000000002222, -0.06229445396054608 
4.7800000000021985, -0.06267746738201976 
4.790000000002175, -0.06083523341516901 
4.800000000002152, -0.0544375192342285 
4.810000000002129, -0.042990054057662 
4.820000000002105, -0.029564734143389663 
