t, s[1].omega / s[0].omega 
0, -0.9001691755652477 
0.009999999999999995, -0.9165026889962992 
0.019999999999999934, -0.9302514043939126 
0.029999999999999874, -0.9403894290637744 
0.04000000000000012, -0.947149608573806 
0.050000000000000405, -0.9513447066488357 
0.06000000000000069, -0.953807339892155 
0.07000000000000098, -0.955164190219071 
0.08000000000000126, -0.955820893935466 
0.09000000000000155, -0.9560152473725797 
0.10000000000000184, -0.9558706783364693 
0.11000000000000212, -0.9554320153412229 
0.12000000000000241, -0.9546849840379716 
0.130000000000002, -0.9535671982040332 
0.1400000000000009, -0.9519844275017576 
0.1499999999999998, -0.9498586095206338 
0.1599999999999987, -0.9472519572856386 
0.1699999999999976, -0.9446057978061747 
0.1799999999999965, -0.9430239016078232 
0.1899999999999954, -0.944264549981739 
0.1999999999999943, -0.9499646997902282 
0.2099999999999932, -0.9602680055881132 
0.2199999999999921, -0.9732050233489309 
0.229999999999991, -0.9858409700984424 
0.2399999999999899, -0.9960691883537598 
0.2499999999999888, -1.0032964131634814 
0.2599999999999877, -1.007945648060638 
0.2699999999999866, -1.0107427250513747 
0.2799999999999855, -1.0123220515204228 
0.2899999999999844, -1.013123253649458 
0.2999999999999833, -1.0134138654804408 
0.3099999999999822, -1.013336734917507 
0.3199999999999811, -1.0129463465198953 
0.32999999999998, -1.0122285594660034 
0.3399999999999789, -1.0111091230158626 
0.3499999999999778, -1.0094644622860087 
0.35999999999997667, -1.007164998186245 
0.36999999999997557, -1.0042097338029496 
0.37999999999997447, -1.0010188994866969 
0.38999999999997337, -0.9988237368463786 
0.39999999999997227, -0.9997168950037116 
0.40999999999997117, -1.0056830211580245 
0.41999999999997006, -1.0168344219662628 
0.42999999999996896, -1.0307199195643517 
0.43999999999996786, -1.043928762779014 
0.44999999999996676, -1.0542584088510267 
0.45999999999996566, -1.0612960544110723 
0.46999999999996456, -1.0656640055945037 
0.47999999999996346, -1.0681970627089972 
0.48999999999996235, -1.0695628144555278 
0.49999999999996125, -1.0701976639593844 
0.5099999999999602, -1.0703546387407408 
0.519999999999959, -1.0701617558101026 
0.529999999999958, -1.0696636447125762 
0.5399999999999568, -1.0688494941487419 
0.5499999999999557, -1.0676842423622062 
0.5599999999999546, -1.066176271741393 
0.5699999999999535, -1.0645348133615276 
0.5799999999999524, -1.063450788085065 
0.5899999999999513, -1.0643636408434403 
0.5999999999999502, -1.0692374725034561 
0.6099999999999491, -1.0793950374588186 
0.619999999999948, -1.0940619532191818 
0.6299999999999469, -1.1103262975665729 
0.6399999999999458, -1.1249225090689516 
0.6499999999999447, -1.1360069885993562 
0.6599999999999436, -1.1434315089741767 
0.6699999999999425, -1.1479691597010162 
0.6799999999999414, -1.1505470058757385 
0.6899999999999403, -1.1518924593532796 
0.6999999999999392, -1.1524794073918858 
0.7099999999999381, -1.1525857576420149 
0.719999999999937, -1.152363996462913 
0.7299999999999359, -1.151899850095074 
0.7399999999999348, -1.1512674340199562 
0.7499999999999337, -1.1505988299479681 
0.7599999999999326, -1.150171413956647 
0.7699999999999315, -1.1504592843904764 
0.7799999999999304, -1.1520279594927207 
0.7899999999999293, -1.1552306723860961 
0.7999999999999282, -1.1599315149868699 
0.8099999999999271, -1.165542241750224 
0.819999999999926, -1.1713185397561243 
0.8299999999999249, -1.176633657490065 
0.8399999999999238, -1.181092225941222 
0.8499999999999227, -1.1845284747129852 
0.8599999999999216, -1.1869579917427957 
0.8699999999999205, -1.1885131845041852 
0.8799999999999194, -1.1893761790775415 
0.8899999999999183, -1.1897254501748242 
0.8999999999999172, -1.1897080994405207 
0.9099999999999161, -1.189437739494197 
0.919999999999915, -1.1890103667080987 
0.9299999999999139, -1.1885285556357412 
0.9399999999999128, -1.18811993212395 
0.9499999999999117, -1.187929334348633 
0.9599999999999106, -1.1880744160223151 
0.9699999999999095, -1.1885921734305342 
0.9799999999999084, -1.1894246345994701 
0.9899999999999073, -1.1904534996746814 
0.9999999999999062, -1.1915480814296684 
1.0099999999999052, -1.1925960637441757 
1.019999999999904, -1.193513873134416 
1.029999999999903, -1.1942452257003005 
1.039999999999902, -1.1947553714470873 
1.0499999999999008, -1.1950255742509805 
1.0599999999998997, -1.1950498939877527 
1.0699999999998986, -1.1948342489706052 
1.0799999999998975, -1.1943965777282277 
1.0899999999998964, -1.193767318864059 
1.0999999999998953, -1.1929905785764239 
1.1099999999998942, -1.192125967696718 
1.119999999999893, -1.191248422956062 
1.129999999999892, -1.1904416865566003 
1.1399999999998909, -1.1897842793078037 
1.1499999999998898, -1.1893317285641858 
1.1599999999998887, -1.1890999641886346 
1.1699999999998876, -1.1890561471037646 
1.1799999999998865, -1.1891255621351062 
1.1899999999998854, -1.1892141195050092 
1.1999999999998843, -1.1892310435778939 
1.2099999999998832, -1.1890980633611972 
1.219999999999882, -1.1887466702508789 
1.229999999999881, -1.1881136261304657 
1.2399999999998799, -1.1871422050582274 
1.2499999999998788, -1.1857897363435217 
1.2599999999998777, -1.1840369558495252 
1.2699999999998766, -1.181894845835228 
1.2799999999998755, -1.1794094502500614 
1.2899999999998744, -1.1766690598486638 
1.2999999999998733, -1.173815812571027 
1.3099999999998722, -1.171054018761384 
1.319999999999871, -1.1686335781631123 
1.32999999999987, -1.1667840564251588 
1.3399999999998689, -1.165612676787346 
1.3499999999998678, -1.1650437832293887 
1.3599999999998666, -1.164866916423377 
1.3699999999998655, -1.1648492461458209 
1.3799999999998644, -1.1648118732651422 
1.3899999999998633, -1.1646349500964457 
1.3999999999998622, -1.1642225322535886 
1.4099999999998611, -1.1634599130220318 
1.41999999999986, -1.1621753260674594 
1.429999999999859, -1.160110668904522 
1.4399999999998578, -1.15691569233719 
1.4499999999998567, -1.152195949486651 
1.4599999999998556, -1.14564500449915 
1.4699999999998545, -1.1372527281671168 
1.4799999999998534, -1.127511040755603 
1.4899999999998523, -1.1174774992702152 
1.4999999999998512, -1.108548563489896 
1.5099999999998501, -1.101917466068425 
1.519999999999849, -1.0980059226850927 
1.529999999999848, -1.0963536860046459 
1.5399999999998468, -1.096062544416407 
1.5499999999998457, -1.0963306040912904 
1.5599999999998446, -1.0966758079022403 
1.5699999999998435, -1.0968824490981999 
1.5799999999998424, -1.0968711047267083 
1.5899999999998413, -1.0965989535110388 
1.5999999999998402, -1.0959989640295462 
1.6099999999998391, -1.0949347342323816 
1.619999999999838, -1.0931496243466068 
1.629999999999837, -1.090201265252815 
1.6399999999998358, -1.0854012168871778 
1.6499999999998347, -1.0778446201689973 
1.6599999999998336, -1.0667035522678265 
1.6699999999998325, -1.051916538307573 
1.6799999999998314, -1.0349628332295933 
1.6899999999998303, -1.0187915338841225 
1.6999999999998292, -1.0063767414150695 
1.709999999999828, -0.9990110931143971 
1.719999999999827, -0.9959728903226337 
1.729999999999826, -0.9955711449800836 
1.7399999999998248, -0.9962839711833459 
1.7499999999998237, -0.997204500336899 
1.7599999999998226, -0.9979446950833213 
1.7699999999998215, -0.9983978180613111 
1.7799999999998204, -0.9985627196754943 
1.7899999999998193, -0.9984522158077864 
1.7999999999998182, -0.9980503828093648 
1.809999999999817, -0.9972862011685301 
1.819999999999816, -0.9960035008932995 
1.8299999999998149, -0.9939166428029402 
1.8399999999998138, -0.9905536082839669 
1.8499999999998127, -0.9852184990359193 
1.8599999999998116, -0.9770673929141142 
1.8699999999998105, -0.9654463620860751 
1.8799999999998094, -0.9505214731288086 
1.8899999999998083, -0.9337974442713414 
1.8999999999998072, -0.917816342265206 
1.909999999999806, -0.9049600815149628 
1.919999999999805, -0.8963298347876367 
1.9299999999998039, -0.8915884175738862 
1.9399999999998028, -0.8896022375302897 
1.9499999999998017, -0.8891720365889156 
1.9599999999998006, -0.8894203046519727 
1.9699999999997995, -0.8898415929545316 
1.9799999999997984, -0.8901971509185458 
1.9899999999997973, -0.8903935902681634 
1.9999999999997962, -0.8903972436984773 
2.0099999999998173, -0.8901843081356418 
2.0199999999998384, -0.8897122512310375 
2.0299999999998595, -0.8889000684943029 
2.0399999999998806, -0.8876118510562817 
2.0499999999999017, -0.8856474474752909 
2.059999999999923, -0.8827561732002034 
2.069999999999944, -0.8786975758446085 
2.079999999999965, -0.8733558247596456 
2.089999999999986, -0.8668587075408121 
2.100000000000007, -0.8596085520154914 
2.1100000000000283, -0.8521821650061698 
2.1200000000000494, -0.8451648643896676 
2.1300000000000705, -0.839017552884876 
2.1400000000000916, -0.8340165793492469 
2.1500000000001127, -0.8302496302361245 
2.160000000000134, -0.8276430255474846 
2.170000000000155, -0.8260085129388649 
2.180000000000176, -0.8251014308709319 
2.190000000000197, -0.8246766023443755 
2.2000000000002182, -0.824527013333649 
2.2100000000002393, -0.8244986979279656 
2.2200000000002604, -0.8244862378215375 
2.2300000000002815, -0.8244186410890038 
2.2400000000003026, -0.8242442738324656 
2.2500000000003237, -0.8239200792109964 
2.260000000000345, -0.8234076885010699 
2.270000000000366, -0.8226771996271202 
2.280000000000387, -0.8217165607380524 
2.290000000000408, -0.8205403561126786 
2.3000000000004293, -0.8191902085968751 
2.3100000000004504, -0.8177243238724856 
2.3200000000004715, -0.8162024560186569 
2.3300000000004926, -0.8146755092989668 
2.3400000000005137, -0.8131837580932932 
2.3500000000005348, -0.8117610789521189 
2.360000000000556, -0.8104402661756769 
2.370000000000577, -0.8092559131937171 
2.380000000000598, -0.808243618066613 
2.390000000000619, -0.8074359323833052 
2.4000000000006403, -0.8068565355820343 
2.4100000000006614, -0.8065147708910703 
2.4200000000006825, -0.8064027057219694 
2.4300000000007036, -0.806496023565707 
2.4400000000007247, -0.8067585399275522 
2.450000000000746, -0.8071487172709068 
2.460000000000767, -0.8076260199634602 
2.470000000000788, -0.808155440671456 
2.480000000000809, -0.808709408832625 
2.49000000000083, -0.8092668630713049 
2.5000000000008513, -0.809809627048514 
2.5100000000008724, -0.8103171541408072 
2.5200000000008935, -0.8107623692893146 
2.5300000000009146, -0.8111121783364448 
2.5400000000009357, -0.8113340869530417 
2.550000000000957, -0.8114057687451306 
2.560000000000978, -0.8113216768021425 
2.570000000000999, -0.8110933942086669 
2.58000000000102, -0.8107457867885713 
2.5900000000010412, -0.8103137357771641 
2.6000000000010624, -0.8098428806508412 
2.6100000000010835, -0.8093948550980933 
2.6200000000011046, -0.8090548818195182 
2.6300000000011257, -0.8089375390978223 
2.6400000000011468, -0.8091853905755224 
2.650000000001168, -0.8099564409104587 
2.660000000001189, -0.8114009294782291 
2.67000000000121, -0.8136334937777019 
2.680000000001231, -0.8167084257175106 
2.6900000000012523, -0.8206015195749028 
2.7000000000012734, -0.8251962480043652 
2.7100000000012945, -0.8302725222808677 
2.7200000000013156, -0.8355070394533957 
2.7300000000013367, -0.8405074133652715 
2.740000000001358, -0.8448954785038991 
2.750000000001379, -0.8484135258821601 
2.7600000000014, -0.8509872491182918 
2.770000000001421, -0.852703418911176 
2.780000000001442, -0.8537308941537306 
2.7900000000014633, -0.854244693306258 
2.8000000000014844, -0.8543848347585161 
2.8100000000015055, -0.8542464175643542 
2.8200000000015266, -0.8538861274714215 
2.8300000000015477, -0.85333557425086 
2.840000000001569, -0.8526204414744682 
2.85000000000159, -0.8517916501863851 
2.860000000001611, -0.8509797990331238 
2.870000000001632, -0.8504830554116266 
2.8800000000016532, -0.8508796840018613 
2.8900000000016743, -0.8531042061929357 
2.9000000000016954, -0.858349105375031 
2.9100000000017165, -0.8676330056914956 
2.9200000000017377, -0.8810666078191579 
2.9300000000017588, -0.8972857799288356 
2.94000000000178, -0.9137586320998927 
2.950000000001801, -0.9280148087316151 
2.960000000001822, -0.9387743531852806 
2.970000000001843, -0.9460749143583712 
2.9800000000018643, -0.9506614675974328 
2.9900000000018854, -0.9533809935801495 
3.0000000000019065, -0.9548995849805303 
3.0100000000019276, -0.955658959290609 
3.0200000000019487, -0.9559229841580391 
3.03000000000197, -0.9558329609306982 
3.040000000001991, -0.9554468850909659 
3.050000000002012, -0.954761925647664 
3.060000000002033, -0.9537272561775298 
3.070000000002054, -0.9522600929719294 
3.0800000000020753, -0.9502891879823838 
3.0900000000020964, -0.947867254211577 
3.1000000000021175, -0.9453935059619086 
3.1100000000021386, -0.9438979626681506 
3.1200000000021597, -0.9450928540289233 
3.130000000002181, -0.9507055694545599 
3.140000000002202, -0.9611179002794421 
3.150000000002223, -0.9745402213317572 
3.160000000002244, -0.9879574450262982 
3.1700000000022652, -0.9990112291658338 
3.1800000000022863, -1.0069125414312763 
3.1900000000023074, -1.0120297336900361 
3.2000000000023285, -1.0151222984106238 
3.2100000000023496, -1.0168801873421418 
3.2200000000023707, -1.01778941963138 
3.230000000002392, -1.0181492441522915 
3.240000000002413, -1.0181232151663804 
3.250000000002434, -1.0177805334442538 
3.260000000002455, -1.017120111703084 
3.2700000000024763, -1.0160827827582273 
3.2800000000024974, -1.01456537917242 
3.2900000000025185, -1.012466270583616 
3.3000000000025396, -1.009818692668022 
3.3100000000025607, -1.0070756286623743 
3.3200000000025818, -1.0054881886991693 
3.330000000002603, -1.007155828982895 
3.340000000002624, -1.0140711365364259 
3.350000000002645, -1.0263367995372397 
3.360000000002666, -1.0414054711836538 
3.3700000000026873, -1.055684803110257 
3.3800000000027084, -1.0668270284675152 
3.3900000000027295, -1.0743947459337653 
3.4000000000027506, -1.0790718842608658 
3.4100000000027717, -1.081772411926863 
3.420000000002793, -1.083224977390749 
3.430000000002814, -1.0839043110095903 
3.440000000002835, -1.0840857528081111 
3.450000000002856, -1.0839111659344574 
3.460000000002877, -1.0834367788926762 
3.4700000000028983, -1.0826673391441084 
3.4800000000029194, -1.081595890073458 
3.4900000000029405, -1.080283662876542 
3.5000000000029616, -1.0790256669327176 
3.5100000000029827, -1.078602424515362 
3.520000000003004, -1.080425051693809 
3.530000000003025, -1.08613262050368 
3.540000000003046, -1.096468609160333 
3.550000000003067, -1.110297190826424 
3.5600000000030882, -1.124981842982891 
3.5700000000031094, -1.1379152679074396 
3.5800000000031305, -1.147723812437636 
3.5900000000031516, -1.1543469635345174 
3.6000000000031727, -1.1584357907475575 
3.6100000000031938, -1.1607723556228375 
3.620000000003215, -1.161985242303238 
3.630000000003236, -1.1624945930169015 
3.640000000003257, -1.1625532447803528 
3.650000000003278, -1.1623058694767896 
3.6600000000032993, -1.1618434478849435 
3.6700000000033204, -1.161258227574803 
3.6800000000033415, -1.1607086591157871 
3.6900000000033626, -1.1604803001322135 
3.7000000000033837, -1.160977870140726 
3.710000000003405, -1.1625745948704198 
3.720000000003426, -1.1653807184603049 
3.730000000003447, -1.1691456988121982 
3.740000000003468, -1.1733909617901532 
3.750000000003489, -1.1776236772550415 
3.7600000000035103, -1.1814673103381623 
3.7700000000035314, -1.184690789833415 
3.7800000000035525, -1.1871914678239697 
3.7900000000035736, -1.188968995984281 
3.8000000000035947, -1.1900962951386178 
3.810000000003616, -1.190686125676422 
3.820000000003637, -1.1908593307160662 
3.830000000003658, -1.190724792242786 
3.840000000003679, -1.190376023938576 
3.8500000000037002, -1.1899018235367145 
3.8600000000037213, -1.1894022786825884 
3.8700000000037424, -1.1889952663653607 
3.8800000000037635, -1.1887981099923812 
3.8900000000037847, -1.18888761722994 
3.9000000000038058, -1.189269070827605 
3.910000000003827, -1.1898806822390255 
3.920000000003848, -1.1906243910987078 
3.930000000003869, -1.1913970702150893 
3.94000000000389, -1.1921094724333732 
3.9500000000039113, -1.192693650919097 
3.9600000000039324, -1.1931028275669442 
3.9700000000039535, -1.1933076849048891 
3.9800000000039746, -1.1932923043174184 
3.9900000000039957, -1.1930514847870128 
4.000000000004016, -1.1925898797532606 
4.010000000003993, -1.1919227074622418 
4.02000000000397, -1.1910776643502996 
4.030000000003946, -1.190097731674443 
4.040000000003923, -1.1890437812850867 
4.0500000000039, -1.1879941417399094 
4.0600000000038765, -1.1870377882551133 
4.070000000003853, -1.1862597792527783 
4.08000000000383, -1.18571982729306 
4.090000000003807, -1.1854291441327385 
4.100000000003783, -1.1853397094472389 
4.11000000000376, -1.1853590211479847 
4.120000000003737, -1.1853812878299113 
4.130000000003713, -1.1853105812488336 
4.14000000000369, -1.1850642453640987 
4.150000000003667, -1.1845644227063532 
4.1600000000036434, -1.1837309672190364 
4.17000000000362, -1.1824839211275493 
4.180000000003597, -1.1807563095216627 
4.1900000000035735, -1.1785116359499037 
4.20000000000355, -1.1757589053911541 
4.210000000003527, -1.172563449420442 
4.220000000003504, -1.1690582819671445 
4.23000000000348, -1.1654578952268622 
4.240000000003457, -1.1620601379109474 
4.250000000003434, -1.159202080241391 
4.26000000000341, -1.1571469748677385 
4.270000000003387, -1.155954090760178 
4.280000000003364, -1.1554503424142828 
4.2900000000033405, -1.1553432723319566 
4.300000000003317, -1.155364827262938 
4.310000000003294, -1.155334243279976 
4.320000000003271, -1.1551394835272544 
4.330000000003247, -1.1546885151593635 
4.340000000003224, -1.1538609959049084 
4.350000000003201, -1.1524648910723523 
4.360000000003177, -1.15019842805538 
4.370000000003154, -1.146633274362148 
4.380000000003131, -1.1412614154366512 
4.390000000003107, -1.1336614687825424 
4.400000000003084, -1.1237939567543465 
4.410000000003061, -1.1123092689222456 
4.4200000000030375, -1.1006202099587261 
4.430000000003014, -1.09050694073926 
4.440000000002991, -1.0833249899636108 
4.450000000002968, -1.0793547655647635 
4.460000000002944, -1.0778629662348287 
4.470000000002921, -1.0777534153695472 
4.480000000002898, -1.0781525330287784 
4.490000000002874, -1.0785779784528913 
4.500000000002851, -1.0788324449314461 
4.510000000002828, -1.0788530123179392 
4.520000000002804, -1.0786090659569743 
4.530000000002781, -1.078044388157593 
4.540000000002758, -1.077035774246928 
4.5500000000027345, -1.0753460315984043 
4.560000000002711, -1.0725612208781248 
4.570000000002688, -1.0680268173692071 
4.580000000002665, -1.0608561984019707 
4.590000000002641, -1.050175312895273 
4.600000000002618, -1.0357607266386197 
4.610000000002595, -1.0188452667105696 
4.620000000002571, -1.0022165332694342 
4.630000000002548, -0.9889424954533071 
4.640000000002525, -0.9806207775450411 
4.6500000000025015, -0.9768200060605823 
4.660000000002478, -0.9759620474441759 
4.670000000002455, -0.9764781246285242 
4.6800000000024315, -0.9773590454668929 
4.690000000002408, -0.9781328540365559 
4.700000000002385, -0.9786459528152636 
4.710000000002362, -0.9788788386261524 
4.720000000002338, -0.9788428295773912 
4.730000000002315, -0.9785308743620467 
4.740000000002292, -0.977890325583809 
4.750000000002268, -0.9767966447639805 
4.760000000002245, -0.9750165735411505 
4.770000000002222, -0.9721595924760831 
4.7800000000021985, -0.9676391372231754 
4.790000000002175, -0.9607121974467917 
4.800000000002152, -0.9507157310706031 
4.810000000002129, -0.9375556968702445 
4.820000000002105, -0.9222020675808451 
4.830000000002082, -0.9066470442205363 
4.840000000002059, -0.8931028614825556 
4.850000000002035, -0.8830074008170167 
4.860000000002012, -0.8766003877247815 
4.870000000001989, -0.8732070498577377 
4.880000000001965, -0.8718121823198832 
4.890000000001942, -0.871506235990171 
4.900000000001919, -0.8716645755743533 
4.9100000000018955, -0.8719327996877275 
4.920000000001872, -0.8721386280615275 
4.930000000001849, -0.8722062469241088 
