t, s[1].omega / s[0].omega 
0, -1.400045698986443 
0.009999999999999995, -1.4038360299309751 
0.019999999999999934, -1.40627212691918 
0.029999999999999874, -1.4076725918125008 
0.04000000000000012, -1.408329539500665 
0.050000000000000405, -1.4084703155366942 
0.06000000000000069, -1.4082591448883688 
0.07000000000000098, -1.4078203098341686 
0.08000000000000126, -1.407268469234801 
0.09000000000000155, -1.4067269165603602 
0.10000000000000184, -1.4063131225267191 
0.11000000000000212, -1.4060994670482925 
0.12000000000000241, -1.4060917168490072 
0.130000000000002, -1.4062412740260941 
0.1400000000000009, -1.4064650733495132 
0.1499999999999998, -1.406662887647713 
0.1599999999999987, -1.406735879229737 
0.1699999999999976, -1.4065961036915557 
0.1799999999999965, -1.40616114543739 
0.1899999999999954, -1.4053437114784086 
0.1999999999999943, -1.4040472786588685 
0.2099999999999932, -1.4021716063631557 
0.2199999999999921, -1.3996282636006807 
0.229999999999991, -1.3963708377387631 
0.2399999999999899, -1.3924547473525655 
0.2499999999999888, -1.3881395481434429 
0.2599999999999877, -1.383983662309123 
0.2699999999999866, -1.3807400914026189 
0.2799999999999855, -1.3789072054399105 
0.2899999999999844, -1.3783298419259837 
0.2999999999999833, -1.3784115144016489 
0.3099999999999822, -1.3786185323613724 
0.3199999999999811, -1.3786730888753376 
0.32999999999998, -1.3784588199630103 
0.3399999999999789, -1.3778847417320332 
0.3499999999999778, -1.3767852796834281 
0.35999999999997667, -1.37483266904289 
0.36999999999997557, -1.3714570964389148 
0.37999999999997447, -1.3659114636901737 
0.38999999999997337, -1.3579572577168515 
0.39999999999997227, -1.349700256298354 
0.40999999999997117, -1.3467302313114744 
0.41999999999997006, -1.3536158577607313 
0.42999999999996896, -1.3674570767737644 
0.43999999999996786, -1.381211922050018 
0.44999999999996676, -1.3909955327345254 
0.45999999999996566, -1.3967889408318326 
0.46999999999996456, -1.3998689645377647 
0.47999999999996346, -1.4013525430059321 
0.48999999999996235, -1.4019289634151904 
0.49999999999996125, -1.4019705152084982 
0.5099999999999602, -1.4016721821336424 
0.519999999999959, -1.4011616499736674 
0.529999999999958, -1.400597971330323 
0.5399999999999568, -1.4002505428973921 
0.5499999999999557, -1.4004657159985836 
0.5599999999999546, -1.4014522306474748 
0.5699999999999535, -1.403090284587703 
0.5799999999999524, -1.405027300913508 
0.5899999999999513, -1.4069186893607024 
0.5999999999999502, -1.408548328313639 
0.6099999999999491, -1.40981660660296 
0.619999999999948, -1.4106934436755378 
0.6299999999999469, -1.4111835679972222 
0.6399999999999458, -1.4113081036166764 
0.6499999999999447, -1.411096298954435 
0.6599999999999436, -1.4105826699974064 
0.6699999999999425, -1.409808166109578 
0.6799999999999414, -1.4088256366731908 
0.6899999999999403, -1.4077079372215962 
0.6999999999999392, -1.4065541652729114 
0.7099999999999381, -1.4054895158467628 
0.719999999999937, -1.4046483902849 
0.7299999999999359, -1.4041220073599836 
0.7399999999999348, -1.4038919289189322 
0.7499999999999337, -1.4038278607748604 
0.7599999999999326, -1.4037613632464327 
0.7699999999999315, -1.403545081292565 
0.7799999999999304, -1.4030455381637204 
0.7899999999999293, -1.4020927185142051 
0.7999999999999282, -1.4004147901116044 
0.8099999999999271, -1.3975704760507996 
0.819999999999926, -1.392906876366386 
0.8299999999999249, -1.3856312219225035 
0.8399999999999238, -1.375178401632593 
0.8499999999999227, -1.3620426044289278 
0.8599999999999216, -1.348666289242472 
0.8699999999999205, -1.3387747512699162 
0.8799999999999194, -1.3344211650342932 
0.8899999999999183, -1.3342920823957949 
0.8999999999999172, -1.3357736205414559 
0.9099999999999161, -1.3372256977009125 
0.919999999999915, -1.3381516019328934 
0.9299999999999139, -1.3385577617445392 
0.9399999999999128, -1.3385437070502122 
0.9499999999999117, -1.3381632968815123 
0.9599999999999106, -1.3373985243037867 
0.9699999999999095, -1.3361789877522259 
0.9799999999999084, -1.334482396424929 
0.9899999999999073, -1.33264109380744 
0.9999999999999062, -1.3318899623649039 
1.0099999999999052, -1.3344725211040507 
1.019999999999904, -1.3420328858908044 
1.029999999999903, -1.3534512144907667 
1.039999999999902, -1.3655331941367215 
1.0499999999999008, -1.3756553716862219 
1.0599999999998997, -1.382907342650452 
1.0699999999998986, -1.3875595691026956 
1.0799999999998975, -1.3902830163885889 
1.0899999999998964, -1.3917156797546784 
1.0999999999998953, -1.3923254967069743 
1.1099999999998942, -1.392415462921298 
1.119999999999893, -1.3921753156266303 
1.129999999999892, -1.3917408859821574 
1.1399999999998909, -1.3912466644586776 
1.1499999999998898, -1.3908502103176255 
1.1599999999998887, -1.3906988590199214 
1.1699999999998876, -1.3908567705870312 
1.1799999999998865, -1.3912751678444475 
1.1899999999998854, -1.3918375811255645 
1.1999999999998843, -1.3924180698760886 
1.2099999999998832, -1.3929090352631086 
1.219999999999882, -1.3932276440869538 
1.229999999999881, -1.3933132819494358 
1.2399999999998799, -1.393120651507201 
1.2499999999998788, -1.3926134186205448 
1.2599999999998777, -1.3917615929177756 
1.2699999999998766, -1.390542707799962 
1.2799999999998755, -1.38894688088983 
1.2899999999998744, -1.3869884628091442 
1.2999999999998733, -1.3847292391576116 
1.3099999999998722, -1.382315493095285 
1.319999999999871, -1.3800107079318786 
1.32999999999987, -1.3781580993011728 
1.3399999999998689, -1.3770093748829741 
1.3499999999998678, -1.376535820807271 
1.3599999999998666, -1.376461787237492 
1.3699999999998655, -1.3764789635565056 
1.3799999999998644, -1.3763777029924906 
1.3899999999998633, -1.3760250987031608 
1.3999999999998622, -1.3752814708657435 
1.4099999999998611, -1.3739073245424887 
1.41999999999986, -1.3714517859018882 
1.429999999999859, -1.3671151978389482 
1.4399999999998578, -1.359681906017501 
1.4499999999998567, -1.3479149076740193 
1.4599999999998556, -1.3320971254425162 
1.4699999999998545, -1.3162032598212208 
1.4799999999998534, -1.3066728122573505 
1.4899999999998523, -1.3061199333099702 
1.4999999999998512, -1.3109221532899058 
1.5099999999998501, -1.3163539842480163 
1.519999999999849, -1.3203018881230248 
1.529999999999848, -1.3226458230414653 
1.5399999999998468, -1.323846697370524 
1.5499999999998457, -1.324318674201666 
1.5599999999998446, -1.324313284025102 
1.5699999999998435, -1.3239533048578995 
1.5799999999998424, -1.3232901866080748 
1.5899999999998413, -1.3223833753697722 
1.5999999999998402, -1.3214451653522592 
1.6099999999998391, -1.3210471520545106 
1.619999999999838, -1.3221459967035696 
1.629999999999837, -1.3255307923558965 
1.6399999999998358, -1.3310194366509673 
1.6499999999998347, -1.337485095736898 
1.6599999999998336, -1.3436893082799317 
1.6699999999998325, -1.348873484509651 
1.6799999999998314, -1.352786561321518 
1.6899999999998303, -1.3554893130080574 
1.6999999999998292, -1.3571813964874482 
1.709999999999828, -1.3580954399802265 
1.719999999999827, -1.3584411672732777 
1.729999999999826, -1.3583845691307175 
1.7399999999998248, -1.358052422915715 
1.7499999999998237, -1.3575525757373774 
1.7599999999998226, -1.356996685875139 
1.7699999999998215, -1.3565054916984103 
1.7799999999998204, -1.3561829130617857 
1.7899999999998193, -1.3560785937291422 
1.7999999999998182, -1.3561768568759436 
1.809999999999817, -1.35641423680779 
1.819999999999816, -1.3567010984368202 
1.8299999999998149, -1.3569402644264679 
1.8399999999998138, -1.357042601415309 
1.8499999999998127, -1.3569325677189914 
1.8599999999998116, -1.356543736775024 
1.8699999999998105, -1.355813104059769 
1.8799999999998094, -1.354680681121597 
1.8899999999998083, -1.3530947484568103 
1.8999999999998072, -1.3510213484776168 
1.909999999999806, -1.3484603153088472 
1.919999999999805, -1.3454753119170748 
1.9299999999998039, -1.3422431937639583 
1.9399999999998028, -1.339100926827788 
1.9499999999998017, -1.3365068770373798 
1.9599999999998006, -1.3348284755242743 
1.9699999999997995, -1.3340830500896126 
1.9799999999997984, -1.3339455802219242 
1.9899999999997973, -1.3340188430356104 
1.9999999999997962, -1.3340313942594206 
2.0099999999998173, -1.3338369611218237 
2.0199999999998384, -1.3333270783499174 
2.0299999999998595, -1.332341155125207 
2.0399999999998806, -1.330575128801048 
2.0499999999999017, -1.3274667732684677 
2.059999999999923, -1.322079932682022 
2.069999999999944, -1.3131784945313536 
2.079999999999965, -1.3000105581711732 
2.089999999999986, -1.2842073985683677 
2.100000000000007, -1.2709862267268637 
2.1100000000000283, -1.265698383411086 
2.1200000000000494, -1.2682800634868197 
2.1300000000000705, -1.2741834113204973 
2.1400000000000916, -1.279586214602342 
2.1500000000001127, -1.283248408637037 
2.160000000000134, -1.2853639951037523 
2.170000000000155, -1.2864274781833533 
2.180000000000176, -1.2868219773493332 
2.190000000000197, -1.2867698921968405 
2.2000000000002182, -1.2863752625021387 
2.2100000000002393, -1.2856768654669306 
2.2200000000002604, -1.2847215526434543 
2.2300000000002815, -1.2837045693216174 
2.2400000000003026, -1.283188478133837 
2.2500000000003237, -1.2841924754351237 
2.260000000000345, -1.287712086362679 
2.270000000000366, -1.2938008162687828 
2.280000000000387, -1.301334531002851 
2.290000000000408, -1.3088213105841087 
2.3000000000004293, -1.315215160270167 
2.3100000000004504, -1.320100384869387 
2.3200000000004715, -1.323503543293231 
2.3300000000004926, -1.325666050571214 
2.3400000000005137, -1.3268865881852492 
2.3500000000005348, -1.3274347854464204 
2.360000000000556, -1.3275188316423052 
2.370000000000577, -1.327289141318436 
2.380000000000598, -1.3268623523204148 
2.390000000000619, -1.3263519135333404 
2.4000000000006403, -1.325886852238693 
2.4100000000006614, -1.3255962249296127 
2.4200000000006825, -1.3255612696940506 
2.4300000000007036, -1.3257808460877993 
2.4400000000007247, -1.326184884892626 
2.450000000000746, -1.326672429472564 
2.460000000000767, -1.3271406545477267 
2.470000000000788, -1.3275001632470358 
2.480000000000809, -1.3276808668565774 
2.49000000000083, -1.3276303571497141 
2.5000000000008513, -1.3273091669125447 
2.5100000000008724, -1.3266876351586079 
2.5200000000008935, -1.3257456499656155 
2.5300000000009146, -1.3244746316294382 
2.5400000000009357, -1.3228822731574135 
2.550000000000957, -1.3210023481432605 
2.560000000000978, -1.318911844897788 
2.570000000000999, -1.3167534203873201 
2.58000000000102, -1.314746726523706 
2.5900000000010412, -1.3131480281593568 
2.6000000000010624, -1.3121311454927014 
2.6100000000010835, -1.3116688586745804 
2.6200000000011046, -1.31155410941408 
2.6300000000011257, -1.3115401923919188 
2.6400000000011468, -1.3114408344756392 
2.650000000001168, -1.3111275829119964 
2.660000000001189, -1.3104730434274985 
2.67000000000121, -1.3092818194363278 
2.680000000001231, -1.307213665193014 
2.6900000000012523, -1.3036989511987933 
2.7000000000012734, -1.2978897231597148 
2.7100000000012945, -1.2887937512682024 
2.7200000000013156, -1.2758543777510725 
2.7300000000013367, -1.2600565233963588 
2.740000000001358, -1.24466351249179 
2.750000000001379, -1.2337741158935092 
2.7600000000014, -1.2291115113833448 
2.770000000001421, -1.2290071104176237 
2.780000000001442, -1.2307098266242864 
2.7900000000014633, -1.2324681558143067 
2.8000000000014844, -1.233691071594791 
2.8100000000015055, -1.2343499931977269 
2.8200000000015266, -1.2345548775089275 
2.8300000000015477, -1.2343905172056349 
2.840000000001569, -1.2338743465485253 
2.85000000000159, -1.232949711586114 
2.860000000001611, -1.2314966467616315 
2.870000000001632, -1.2294026943686036 
2.8800000000016532, -1.226814702494787 
2.8900000000016743, -1.2246998362263892 
2.9000000000016954, -1.2253847759760208 
2.9100000000017165, -1.231745043767449 
2.9200000000017377, -1.2444563100487223 
2.9300000000017588, -1.2604585918965419 
2.94000000000178, -1.2753664455079514 
2.950000000001801, -1.2866160439003154 
2.960000000001822, -1.293963079932026 
2.970000000001843, -1.2983052086007547 
2.9800000000018643, -1.3006705295910226 
2.9900000000018854, -1.301827785990708 
3.0000000000019065, -1.302258573092348 
3.0100000000019276, -1.302239481389041 
3.0200000000019487, -1.3019297147085163 
3.03000000000197, -1.3014461786695444 
3.040000000001991, -1.3009327738330678 
3.050000000002012, -1.3006108087314394 
3.060000000002033, -1.3007535095323166 
3.070000000002054, -1.3015485681312537 
3.0800000000020753, -1.3029600587796113 
3.0900000000020964, -1.3047526622023213 
3.1000000000021175, -1.3066404589244591 
3.1100000000021386, -1.3084003713814087 
3.1200000000021597, -1.3098972407588891 
3.130000000002181, -1.3110637305615909 
3.140000000002202, -1.3118753037098618 
3.150000000002223, -1.3123333927471745 
3.160000000002244, -1.3124563928185098 
3.1700000000022652, -1.3122749092796997 
3.1800000000022863, -1.3118289914877495 
3.1900000000023074, -1.3111677542639746 
3.2000000000023285, -1.3103523347313235 
3.2100000000023496, -1.3094596956309146 
3.2200000000023707, -1.308580987430711 
3.230000000002392, -1.3078107816912536 
3.240000000002413, -1.307229478861449 
3.250000000002434, -1.3068800850317148 
3.260000000002455, -1.306744277307864 
3.2700000000024763, -1.3067397670292409 
3.2800000000024974, -1.3067505952284573 
3.2900000000025185, -1.306662750758513 
3.3000000000025396, -1.306374324093066 
3.3100000000025607, -1.3057816503561122 
3.3200000000025818, -1.3047602439261279 
3.330000000002603, -1.30315583117179 
3.340000000002624, -1.3007940326674983 
3.350000000002645, -1.2975121446042421 
3.360000000002666, -1.2932132013770574 
3.3700000000026873, -1.2879449440344632 
3.3800000000027084, -1.2820059686249414 
3.3900000000027295, -1.2760381651794994 
3.4000000000027506, -1.270954162869548 
3.4100000000027717, -1.2675355445709515 
3.420000000002793, -1.2659212718131916 
3.430000000002814, -1.2655749263132174 
3.440000000002835, -1.265778154036283 
3.450000000002856, -1.266038403502711 
3.460000000002877, -1.2661296388877523 
3.4700000000028983, -1.2659631246048766 
3.4800000000029194, -1.2654693014226936 
3.4900000000029405, -1.2645184401989118 
3.5000000000029616, -1.2628494453465497 
3.5100000000029827, -1.2599837430937917 
3.520000000003004, -1.2551533109802802 
3.530000000003025, -1.2474204718458062 
3.540000000003046, -1.2364156509083943 
3.550000000003067, -1.2239118946598484 
3.5600000000030882, -1.2145839921522634 
3.5700000000031094, -1.2128817774868463 
3.5800000000031305, -1.2183783382648672 
3.5900000000031516, -1.2266091010837257 
3.6000000000031727, -1.2337736914176063 
3.6100000000031938, -1.2386440772736178 
3.620000000003215, -1.241524049809926 
3.630000000003236, -1.2430560280128482 
3.640000000003257, -1.2437464026682254 
3.650000000003278, -1.2439024310588198 
3.6600000000032993, -1.2436823924603837 
3.6700000000033204, -1.243152851988604 
3.6800000000033415, -1.2423450062766659 
3.6900000000033626, -1.2413426871265627 
3.7000000000033837, -1.2404446634139688 
3.710000000003405, -1.2403632546991454 
3.720000000003426, -1.2421801212833328 
3.730000000003447, -1.2467189673328223 
3.740000000003468, -1.2537377568905337 
3.750000000003489, -1.2619519583630505 
3.7600000000035103, -1.2698801380256675 
3.7700000000035314, -1.2765367944073311 
3.7800000000035525, -1.2815570247947377 
3.7900000000035736, -1.2850105375199297 
3.8000000000035947, -1.2871778653335244 
3.810000000003616, -1.2883874005541631 
3.820000000003637, -1.2889256696620697 
3.830000000003658, -1.2890072806820634 
3.840000000003679, -1.288783250299081 
3.8500000000037002, -1.288369024928827 
3.8600000000037213, -1.2878786283198318 
3.8700000000037424, -1.2874479138744443 
3.8800000000037635, -1.287222176913956 
3.8900000000037847, -1.2873023401702521 
3.9000000000038058, -1.2876950912393272 
3.910000000003827, -1.2883190225670202 
3.920000000003848, -1.2890530684952515 
3.930000000003869, -1.2897792436382278 
3.94000000000389, -1.2904021446532328 
3.9500000000039113, -1.290852960477391 
3.9600000000039324, -1.2910861241059037 
3.9700000000039535, -1.2910735667144424 
3.9800000000039746, -1.2907999413404785 
3.9900000000039957, -1.290260072523373 
4.000000000004016, -1.2894585862727106 
4.010000000003993, -1.288411803446759 
4.02000000000397, -1.2871523573954453 
4.030000000003946, -1.2857364202341597 
4.040000000003923, -1.2842516045334151 
4.0500000000039, -1.2828207190008052 
4.0600000000038765, -1.2815909176905065 
4.070000000003853, -1.280692849822491 
4.08000000000383, -1.2801748550191026 
4.090000000003807, -1.279965599887524 
4.100000000003783, -1.2799121191413605 
4.11000000000376, -1.279854006033782 
4.120000000003737, -1.279661401988855 
4.130000000003713, -1.2792216087879282 
4.14000000000369, -1.2784011998143345 
4.150000000003667, -1.2770058870737115 
4.1600000000036434, -1.2747504015448694 
4.17000000000362, -1.2712563775702699 
4.180000000003597, -1.2661102496244232 
4.1900000000035735, -1.2590174107108247 
4.20000000000355, -1.2500641886161579 
4.210000000003527, -1.240017113840637 
4.220000000003504, -1.2304088086018496 
4.23000000000348, -1.2230212140152257 
4.240000000003457, -1.2188265400919767 
4.250000000003434, -1.217398197965295 
4.26000000000341, -1.2175100562116725 
4.270000000003387, -1.2180952680365382 
4.280000000003364, -1.2186026010747262 
4.2900000000033405, -1.2188486809810715 
4.300000000003317, -1.2187968504831201 
4.310000000003294, -1.2184241397818585 
4.320000000003271, -1.2176543276099576 
4.330000000003247, -1.2163097413710102 
4.340000000003224, -1.2140581948898772 
4.350000000003201, -1.2103758479329416 
4.360000000003177, -1.2046497260555538 
4.370000000003154, -1.1967146808198692 
4.380000000003131, -1.188017094436279 
4.390000000003107, -1.182352021797056 
4.400000000003084, -1.183713034162602 
4.410000000003061, -1.1921239088647075 
4.4200000000030375, -1.2033665649266883 
4.430000000003014, -1.2132126375823737 
4.440000000002991, -1.2200522888663352 
4.450000000002968, -1.224194805752857 
4.460000000002944, -1.2264826780424005 
4.470000000002921, -1.2276225671320147 
4.480000000002898, -1.2280629373215188 
4.490000000002874, -1.228051013530118 
4.500000000002851, -1.2277071746012083 
4.510000000002828, -1.2270859165463324 
4.520000000002804, -1.2262425568476016 
4.530000000002781, -1.22534273229458 
4.540000000002758, -1.224826507286361 
4.5500000000027345, -1.2255023856197798 
4.560000000002711, -1.2282741349993516 
4.570000000002688, -1.2334670918876776 
4.580000000002665, -1.2404256359874006 
4.590000000002641, -1.2479076565446376 
4.600000000002618, -1.2547860691738189 
4.610000000002595, -1.2604098396969252 
4.620000000002571, -1.264587330631187 
4.630000000002548, -1.267426937348248 
4.640000000002525, -1.2691786461536496 
4.6500000000025015, -1.2701188506391081 
4.660000000002478, -1.2704855842995602 
4.670000000002455, -1.2704580221030253 
4.6800000000024315, -1.2701664035245246 
4.690000000002408, -1.2697183894166642 
4.700000000002385, -1.269229085368791 
4.710000000002362, -1.26883595252739 
4.720000000002338, -1.2686761170990382 
4.730000000002315, -1.2688308361886398 
4.740000000002292, -1.2692870337518365 
4.750000000002268, -1.2699541429331505 
4.760000000002245, -1.270711821726017 
4.770000000002222, -1.2714470294838476 
4.7800000000021985, -1.2720700317227165 
4.790000000002175, -1.27251707684599 
4.800000000002152, -1.2727466830408551 
4.810000000002129, -1.2727341247090505 
4.820000000002105, -1.272467071266636 
4.830000000002082, -1.2719433388724979 
4.840000000002059, -1.2711707011875228 
4.850000000002035, -1.2701688222432703 
4.860000000002012, -1.2689735508267677 
4.870000000001989, -1.2676430600113322 
4.880000000001965, -1.2662634769066714 
4.890000000001942, -1.2649494478177215 
4.900000000001919, -1.2638317051560697 
4.9100000000018955, -1.2630211521438022 
4.920000000001872, -1.2625550671229697 
4.930000000001849, -1.262367554475171 
4.940000000001826, -1.2623210864458856 
