t, s[1].omega / s[0].omega 
0, -0.6899976957906397 
0.009999999999999995, -0.6897577759298053 
0.019999999999999934, -0.6894944650318247 
0.029999999999999874, -0.689196702403019 
0.04000000000000012, -0.6888531161866347 
0.050000000000000405, -0.6884580175203344 
0.06000000000000069, -0.6880146426627582 
0.07000000000000098, -0.6875358170065551 
0.08000000000000126, -0.6870440140244086 
0.09000000000000155, -0.6865726705979522 
0.10000000000000184, -0.6861694689681196 
0.11000000000000212, -0.6859011418390113 
0.12000000000000241, -0.6858585442636351 
0.130000000000002, -0.6861602346301466 
0.1400000000000009, -0.6869526045362908 
0.1499999999999998, -0.6884046104508373 
0.1599999999999987, -0.6906949364875075 
0.1699999999999976, -0.6939882513139063 
0.1799999999999965, -0.6983953021496526 
0.1899999999999954, -0.7039123437200431 
0.1999999999999943, -0.7103473409278618 
0.2099999999999932, -0.7172710130899257 
0.2199999999999921, -0.7240618038219068 
0.229999999999991, -0.7300828712702235 
0.2399999999999899, -0.7349080860590776 
0.2499999999999888, -0.7384334161024707 
0.2599999999999877, -0.7408108453101392 
0.2699999999999866, -0.742299688366461 
0.2799999999999855, -0.7431499715234806 
0.2899999999999844, -0.7435519973558027 
0.2999999999999833, -0.7436300361764719 
0.3099999999999822, -0.7434520508568256 
0.3199999999999811, -0.743039608987973 
0.32999999999998, -0.7423718865048344 
0.3399999999999789, -0.7413817515832883 
0.3499999999999778, -0.7399428219141733 
0.35999999999997667, -0.7378468805205849 
0.36999999999997557, -0.7347746031563412 
0.37999999999997447, -0.7302760947982985 
0.38999999999997337, -0.7238112923455258 
0.39999999999997227, -0.7149436846867734 
0.40999999999997117, -0.7037372446422556 
0.41999999999997006, -0.6911285862461256 
0.42999999999996896, -0.6787704525762506 
0.43999999999996786, -0.6682525597909119 
0.44999999999996676, -0.6603877105409734 
0.45999999999996566, -0.6551325722484072 
0.46999999999996456, -0.6519552791235042 
0.47999999999996346, -0.6502156484865953 
0.48999999999996235, -0.6493705357025414 
0.49999999999996125, -0.649030747870779 
0.5099999999999602, -0.6489447538710862 
0.519999999999959, -0.6489608648559491 
0.529999999999958, -0.6489912973902991 
0.5399999999999568, -0.6489851281671287 
0.5499999999999557, -0.6489102606147144 
0.5599999999999546, -0.6487426742913038 
0.5699999999999535, -0.6484615068578131 
0.5799999999999524, -0.6480492588331381 
0.5899999999999513, -0.6474963998960594 
0.5999999999999502, -0.6468080801601738 
0.6099999999999491, -0.6460082672339034 
0.619999999999948, -0.6451365357296918 
0.6299999999999469, -0.6442372895682222 
0.6399999999999458, -0.6433472169985162 
0.6499999999999447, -0.642488048752152 
0.6599999999999436, -0.6416672574258083 
0.6699999999999425, -0.6408841928790001 
0.6799999999999414, -0.6401373353401533 
0.6899999999999403, -0.6394297354888572 
0.6999999999999392, -0.6387720538558002 
0.7099999999999381, -0.6381840709766406 
0.719999999999937, -0.6376956892881052 
0.7299999999999359, -0.6373478899429474 
0.7399999999999348, -0.6371935529882401 
0.7499999999999337, -0.6372978188430669 
0.7599999999999326, -0.637737727179184 
0.7699999999999315, -0.6386009795846319 
0.7799999999999304, -0.6399834810010518 
0.7899999999999293, -0.6419844329454827 
0.7999999999999282, -0.6446959617351377 
0.8099999999999271, -0.6481820494456304 
0.819999999999926, -0.652441245919806 
0.8299999999999249, -0.6573548820543625 
0.8399999999999238, -0.662643437454911 
0.8499999999999227, -0.6678796069802135 
0.8599999999999216, -0.672596244576146 
0.8699999999999205, -0.6764485565870589 
0.8799999999999194, -0.6793163051485532 
0.8899999999999183, -0.6812795704415501 
0.8999999999999172, -0.6825178853889609 
0.9099999999999161, -0.6832184307133621 
0.919999999999915, -0.683529546227358 
0.9299999999999139, -0.6835495889331149 
0.9399999999999128, -0.6833307164331133 
0.9499999999999117, -0.6828841320213201 
0.9599999999999106, -0.6821805725373976 
0.9699999999999095, -0.6811431264795526 
0.9799999999999084, -0.679630221846039 
0.9899999999999073, -0.6774075989383093 
0.9999999999999062, -0.6741143836203907 
1.0099999999999052, -0.6692500689210008 
1.019999999999904, -0.6622540802189107 
1.029999999999903, -0.6527771983096605 
1.039999999999902, -0.6411105128547787 
1.0499999999999008, -0.6284018232366794 
1.0599999999998997, -0.6162544615353456 
1.0699999999998986, -0.605961908170009 
1.0799999999998975, -0.5980685986923351 
1.0899999999998964, -0.5924692627127326 
1.0999999999998953, -0.5887337934928373 
1.1099999999998942, -0.586368598703635 
1.119999999999893, -0.5849452523361532 
1.129999999999892, -0.5841370726824999 
1.1399999999998909, -0.5837126554777896 
1.1499999999998898, -0.5835155863348263 
1.1599999999998887, -0.5834433406915102 
1.1699999999998876, -0.5834298801735832 
1.1799999999998865, -0.5834328722051476 
1.1899999999998854, -0.5834252452548181 
1.1999999999998843, -0.5833905093245019 
1.2099999999998832, -0.5833211211994598 
1.219999999999882, -0.5832186846860733 
1.229999999999881, -0.5830939589490169 
1.2399999999998799, -0.5829643142575289 
1.2499999999998788, -0.5828475546463487 
1.2599999999998777, -0.5827538055701433 
1.2699999999998766, -0.582679432508439 
1.2799999999998755, -0.5826066495535617 
1.2899999999998744, -0.5825094796513499 
1.2999999999998733, -0.5823629276636078 
1.3099999999998722, -0.5821504675203693 
1.319999999999871, -0.5818668030901661 
1.32999999999987, -0.5815165646333644 
1.3399999999998689, -0.5811118807949046 
1.3499999999998678, -0.5806716120123891 
1.3599999999998666, -0.5802238910766373 
1.3699999999998655, -0.5798129516071 
1.3799999999998644, -0.5795113217290397 
1.3899999999998633, -0.5794388082691136 
1.3999999999998622, -0.5797893341038225 
1.4099999999998611, -0.5808637750998649 
1.41999999999986, -0.5830977247705751 
1.429999999999859, -0.5870518692876032 
1.4399999999998578, -0.5932992809405193 
1.4499999999998567, -0.6021338853625544 
1.4599999999998556, -0.6131459303619448 
1.4699999999998545, -0.625021305458885 
1.4799999999998534, -0.6360198110582637 
1.4899999999998523, -0.6448959451603689 
1.4999999999998512, -0.6513575235450203 
1.5099999999998501, -0.6557757303199622 
1.519999999999849, -0.6587017282911902 
1.529999999999848, -0.6606048203650566 
1.5399999999998468, -0.6618169075485538 
1.5499999999998457, -0.6625559506532533 
1.5599999999998446, -0.6629595669165271 
1.5699999999998435, -0.6631099835017525 
1.5799999999998424, -0.6630493034775605 
1.5899999999998413, -0.6627874001952645 
1.5999999999998402, -0.662304706859652 
1.6099999999998391, -0.6615523637725514 
1.619999999999838, -0.6604538011273705 
1.629999999999837, -0.6589148596880514 
1.6399999999998358, -0.6568510871282041 
1.6499999999998347, -0.6542334298933989 
1.6599999999998336, -0.6511326298462237 
1.6699999999998325, -0.6477256056463169 
1.6799999999998314, -0.6442466172682975 
1.6899999999998303, -0.6409135583775738 
1.6999999999998292, -0.6378777082086808 
1.709999999999828, -0.6352154824913087 
1.719999999999827, -0.632947286844901 
1.729999999999826, -0.6310618485706561 
1.7399999999998248, -0.629534319825766 
1.7499999999998237, -0.6283361499391023 
1.7599999999998226, -0.6274390104333356 
1.7699999999998215, -0.6268156467366535 
1.7799999999998204, -0.626439757405026 
1.7899999999998193, -0.6262860556706705 
1.7999999999998182, -0.6263309272019325 
1.809999999999817, -0.6265536223369035 
1.819999999999816, -0.6269376739169534 
1.8299999999998149, -0.6274721142730203 
1.8399999999998138, -0.6281519238600002 
1.8499999999998127, -0.6289768604944158 
1.8599999999998116, -0.629947502199521 
1.8699999999998105, -0.6310575247350293 
1.8799999999998094, -0.6322828056700247 
1.8899999999998083, -0.633571360007497 
1.8999999999998072, -0.6348417683644304 
1.909999999999806, -0.635996866773386 
1.919999999999805, -0.6369500110839434 
1.9299999999998039, -0.6376492524316261 
1.9399999999998028, -0.6380845600221243 
1.9499999999998017, -0.6382769694452322 
1.9599999999998006, -0.6382605234721728 
1.9699999999997995, -0.6380675351829922 
1.9799999999997984, -0.6377207764760819 
1.9899999999997973, -0.6372313111761445 
1.9999999999997962, -0.6365998058095188 
2.0099999999998173, -0.6358203025650886 
2.0199999999998384, -0.6348868001571104 
2.0299999999998595, -0.6338034045929744 
2.0399999999998806, -0.6325965386862856 
2.0499999999999017, -0.6313194887128414 
2.059999999999923, -0.6300242705237445 
2.069999999999944, -0.6286720741442843 
2.079999999999965, -0.6270226230796941 
2.089999999999986, -0.6247011208848383 
2.100000000000007, -0.6215917463034125 
2.1100000000000283, -0.6181652714838138 
2.1200000000000494, -0.6151906997842653 
2.1300000000000705, -0.6131559458227069 
2.1400000000000916, -0.6120767864067471 
2.1500000000001127, -0.6116957839309924 
2.160000000000134, -0.6117165161046312 
2.170000000000155, -0.611913965338632 
2.180000000000176, -0.6121491710784651 
2.190000000000197, -0.612347185420939 
2.2000000000002182, -0.612471056128375 
2.2100000000002393, -0.6125022251785956 
2.2200000000002604, -0.612428057520513 
2.2300000000002815, -0.6122348341632351 
2.2400000000003026, -0.6119049994305857 
2.2500000000003237, -0.6114185873500126 
2.260000000000345, -0.610759302544066 
2.270000000000366, -0.6099244499350435 
2.280000000000387, -0.6089344394436014 
2.290000000000408, -0.6078347464827889 
2.3000000000004293, -0.6066860731013287 
2.3100000000004504, -0.6055470421755941 
2.3200000000004715, -0.6044596324962328 
2.3300000000004926, -0.6034444478756916 
2.3400000000005137, -0.6025052742550231 
2.3500000000005348, -0.6016378068138412 
2.360000000000556, -0.6008377554025363 
2.370000000000577, -0.6001061847250397 
2.380000000000598, -0.5994522915302235 
2.390000000000619, -0.5988948030925766 
2.4000000000006403, -0.5984630352932307 
2.4100000000006614, -0.5981980950401307 
2.4200000000006825, -0.5981542742465552 
2.4300000000007036, -0.598400498244138 
2.4400000000007247, -0.599021636454433 
2.450000000000746, -0.600119294713952 
2.460000000000767, -0.6018110159143515 
2.470000000000788, -0.6042251751777371 
2.480000000000809, -0.60748602038072 
2.49000000000083, -0.611680235605461 
2.5000000000008513, -0.6167976436068413 
2.5100000000008724, -0.6226544270458524 
2.5200000000008935, -0.6288446683619779 
2.5300000000009146, -0.6347966908335871 
2.5400000000009357, -0.6399595733302675 
2.550000000000957, -0.6440089520069617 
2.560000000000978, -0.6469138298046759 
2.570000000000999, -0.6488448365982238 
2.58000000000102, -0.650037189714473 
2.5900000000010412, -0.6507004854814015 
2.6000000000010624, -0.6509866577763063 
2.6100000000010835, -0.650989932376587 
2.6200000000011046, -0.650755625588927 
2.6300000000011257, -0.650286366502126 
2.6400000000011468, -0.6495414630744333 
2.650000000001168, -0.6484277446161589 
2.660000000001189, -0.6467816213844004 
2.67000000000121, -0.6443466743667157 
2.680000000001231, -0.6407651876352246 
2.6900000000012523, -0.6356289892979319 
2.7000000000012734, -0.6286496877094905 
2.7100000000012945, -0.6199321077211629 
2.7200000000013156, -0.6101446333518027 
2.7300000000013367, -0.6003346554448384 
2.740000000001358, -0.5914756250608735 
2.750000000001379, -0.584130190573297 
2.7600000000014, -0.5784233993666414 
2.770000000001421, -0.5742008994388319 
2.780000000001442, -0.571195203303937 
2.7900000000014633, -0.5691288002649475 
2.8000000000014844, -0.5677597710815896 
2.8100000000015055, -0.5668942879362036 
2.8200000000015266, -0.5663843924426409 
2.8300000000015477, -0.5661207779560133 
2.840000000001569, -0.5660248228326401 
2.85000000000159, -0.566041495916733 
2.860000000001611, -0.5661336969939601 
2.870000000001632, -0.5662781942594266 
2.8800000000016532, -0.5664630658635399 
2.8900000000016743, -0.5666861596450511 
2.9000000000016954, -0.5669534898535925 
2.9100000000017165, -0.5672760042028986 
2.9200000000017377, -0.567663468372869 
2.9300000000017588, -0.5681158605138523 
2.94000000000178, -0.5686152487935816 
2.950000000001801, -0.5691230574912615 
2.960000000001822, -0.5695865915931717 
2.970000000001843, -0.5699534543883991 
2.9800000000018643, -0.5701862416095932 
2.9900000000018854, -0.5702692274090273 
3.0000000000019065, -0.5702051243888507 
3.0100000000019276, -0.5700065763314888 
3.0200000000019487, -0.5696881170708779 
3.03000000000197, -0.5692614931769453 
3.040000000001991, -0.5687346134694563 
3.050000000002012, -0.568113560404804 
3.060000000002033, -0.5674074334931847 
3.070000000002054, -0.5666360900548664 
3.0800000000020753, -0.5658395949582237 
3.0900000000020964, -0.565082711682941 
3.1000000000021175, -0.564434476231036 
3.1100000000021386, -0.5638859673001486 
3.1200000000021597, -0.563190089109255 
3.130000000002181, -0.5617551804017594 
3.140000000002202, -0.5589243080104557 
3.150000000002223, -0.5546634417438187 
3.160000000002244, -0.5498389766628458 
3.1700000000022652, -0.5455640514938379 
3.1800000000022863, -0.5424495091830079 
3.1900000000023074, -0.5405084301163507 
3.2000000000023285, -0.5394564489208429 
3.2100000000023496, -0.5389725760222148 
3.2200000000023707, -0.5388075215030599 
3.230000000002392, -0.5387971231612421 
3.240000000002413, -0.538842595436153 
3.250000000002434, -0.5388872061312046 
3.260000000002455, -0.5388983644722152 
3.2700000000024763, -0.5388559771101743 
3.2800000000024974, -0.5387459128349168 
3.2900000000025185, -0.5385575265904947 
3.3000000000025396, -0.538284591614627 
3.3100000000025607, -0.5379287444783076 
3.3200000000025818, -0.5375033364260081 
3.330000000002603, -0.5370342754950486 
3.340000000002624, -0.5365551078928112 
3.350000000002645, -0.5360971650130385 
3.360000000002666, -0.535679506944457 
3.3700000000026873, -0.5353039062235085 
3.3800000000027084, -0.5349569796341724 
3.3900000000027295, -0.5346176224350198 
3.4000000000027506, -0.534265617055447 
3.4100000000027717, -0.5338876645756818 
3.420000000002793, -0.5334795634267678 
3.430000000002814, -0.5330458590978048 
3.440000000002835, -0.5325993387141073 
3.450000000002856, -0.532162360366011 
3.460000000002877, -0.5317713271309153 
3.4700000000028983, -0.5314853902589303 
3.4800000000029194, -0.5314006879466524 
3.4900000000029405, -0.5316715585951746 
3.5000000000029616, -0.5325390136702228 
3.5100000000029827, -0.5343615798269103 
3.520000000003004, -0.5376289242579257 
3.530000000003025, -0.5429082322931441 
3.540000000003046, -0.5506387893708515 
3.550000000003067, -0.5607315304294944 
3.5600000000030882, -0.5721896750983099 
3.5700000000031094, -0.5832922170802524 
3.5800000000031305, -0.5925066294507669 
3.5900000000031516, -0.599269888505326 
3.6000000000031727, -0.6038817536220693 
3.6100000000031938, -0.6069359786161381 
3.620000000003215, -0.6089476761393405 
3.630000000003236, -0.6102682637979553 
3.640000000003257, -0.6111194655064002 
3.650000000003278, -0.611639127248757 
3.6600000000032993, -0.6119119804365958 
3.6700000000033204, -0.6119869711699784 
3.6800000000033415, -0.6118863409776756 
3.6900000000033626, -0.6116100519039872 
3.7000000000033837, -0.6111380901464221 
3.710000000003405, -0.6104334297332181 
3.720000000003426, -0.6094495176032233 
3.730000000003447, -0.60814628607608 
3.740000000003468, -0.6065144866220055 
3.750000000003489, -0.604598121043031 
3.7600000000035103, -0.6024971800459273 
3.7700000000035314, -0.6003422134909522 
3.7800000000035525, -0.5982550920196552 
3.7900000000035736, -0.596320723847723 
3.8000000000035947, -0.5945813664610562 
3.810000000003616, -0.593047359917243 
3.820000000003637, -0.5917124733196691 
3.830000000003658, -0.590566247342857 
3.840000000003679, -0.5896012459742429 
3.8500000000037002, -0.5888161546543705 
3.8600000000037213, -0.5882163957858304 
3.8700000000037424, -0.5878136097692391 
3.8800000000037635, -0.5876248448218753 
3.8900000000037847, -0.5876719446471621 
3.9000000000038058, -0.5879814114674069 
3.910000000003827, -0.5885848202487927 
3.920000000003848, -0.5895195226190032 
3.930000000003869, -0.5908287688653048 
3.94000000000389, -0.592559379815248 
3.9500000000039113, -0.5947537822808905 
3.9600000000039324, -0.5974323320346573 
3.9700000000039535, -0.6005637347534836 
3.9800000000039746, -0.6040300918649051 
3.9900000000039957, -0.6076094463912786 
4.000000000004016, -0.6110080000012463 
4.010000000003993, -0.6139479742193761 
4.02000000000397, -0.6162611939658541 
4.030000000003946, -0.6179217964652678 
4.040000000003923, -0.6190075816591762 
4.0500000000039, -0.6196357308835753 
4.0600000000038765, -0.6199151528313459 
4.070000000003853, -0.6199250203412819 
4.08000000000383, -0.6197098096249143 
4.090000000003807, -0.6192795499973249 
4.100000000003783, -0.6186081652134938 
4.11000000000376, -0.6176258537540069 
4.120000000003737, -0.6162025964174416 
4.130000000003713, -0.6141211836595086 
4.14000000000369, -0.6110447881602898 
4.150000000003667, -0.6065062187330249 
4.1600000000036434, -0.5999896135122192 
4.17000000000362, -0.5911944651598915 
4.180000000003597, -0.5804264993043893 
4.1900000000035735, -0.5687512691689648 
4.20000000000355, -0.5575843740392987 
4.210000000003527, -0.5480226714836175 
4.220000000003504, -0.5405139586659268 
4.23000000000348, -0.5349758857369101 
4.240000000003457, -0.5310703274061049 
4.250000000003434, -0.5284089312793732 
4.26000000000341, -0.5266503693027796 
4.270000000003387, -0.5255276421672629 
4.280000000003364, -0.5248441757763995 
4.2900000000033405, -0.5244602996770676 
4.300000000003317, -0.5242791978747884 
4.310000000003294, -0.5242352783927663 
4.320000000003271, -0.5242854885879318 
4.330000000003247, -0.5244033397093288 
4.340000000003224, -0.5245752016633131 
4.350000000003201, -0.5247982525926649 
4.360000000003177, -0.5250790814912005 
4.370000000003154, -0.5254314203691296 
4.380000000003131, -0.5258713038378475 
4.390000000003107, -0.5264087973057723 
4.400000000003084, -0.5270376036041555 
4.410000000003061, -0.5277267753150021 
4.4200000000030375, -0.5284205860518896 
4.430000000003014, -0.5290502679305411 
4.440000000002991, -0.5295536492363443 
4.450000000002968, -0.5298915970771396 
4.460000000002944, -0.5300521948015209 
4.470000000002921, -0.5300432421760656 
4.480000000002898, -0.5298803668231893 
4.490000000002874, -0.5295769916721083 
4.500000000002851, -0.5291379875542168 
4.510000000002828, -0.5285557831934634 
4.520000000002804, -0.5278066850095178 
4.530000000002781, -0.5268447431045302 
4.540000000002758, -0.5255892204794657 
4.5500000000027345, -0.523898673673952 
4.560000000002711, -0.5215212294960347 
4.570000000002688, -0.5180185311782902 
4.580000000002665, -0.5127165183151365 
4.590000000002641, -0.5048689158919473 
4.600000000002618, -0.4942408748344091 
4.610000000002595, -0.4817750482825754 
4.620000000002571, -0.46937755631423095 
4.630000000002548, -0.458771511249729 
4.640000000002525, -0.45068972602134405 
4.6500000000025015, -0.44499674570047076 
4.660000000002478, -0.4411807750140845 
4.670000000002455, -0.4387027424147617 
4.6800000000024315, -0.4371312262626388 
4.690000000002408, -0.4361590908933004 
4.700000000002385, -0.4355798966984614 
4.710000000002362, -0.4352591688881656 
4.720000000002338, -0.43511127929487303 
4.730000000002315, -0.43508331485365315 
4.740000000002292, -0.4351447010284265 
4.750000000002268, -0.43528106689580043 
4.760000000002245, -0.4354910675252485 
4.770000000002222, -0.43578495966961517 
4.7800000000021985, -0.43618347911934163 
4.790000000002175, -0.43671513856696886 
4.800000000002152, -0.43740989386300094 
4.810000000002129, -0.4382878132128182 
4.820000000002105, -0.43934361619600254 
4.830000000002082, -0.44053230611410665 
4.840000000002059, -0.44176608484491436 
4.850000000002035, -0.44293175385754086 
4.860000000002012, -0.4439246415218583 
4.870000000001989, -0.44467903060901454 
4.880000000001965, -0.4451765121519585 
4.890000000001942, -0.4454326558952043 
4.900000000001919, -0.4454760231462469 
4.9100000000018955, -0.44533102962710397 
4.920000000001872, -0.4450072567982561 
