t, s[1].omega / s[0].omega 
0, -0.7599976684097625 
0.009999999999999995, -0.7597439913882255 
0.019999999999999934, -0.759445307216549 
0.029999999999999874, -0.7590915453491964 
0.04000000000000012, -0.7586739497559052 
0.050000000000000405, -0.7581917569879935 
0.06000000000000069, -0.7576557904306762 
0.07000000000000098, -0.7570894576445633 
0.08000000000000126, -0.7565292936096107 
0.09000000000000155, -0.7560263750055054 
0.10000000000000184, -0.7556480280799132 
0.11000000000000212, -0.7554778321369306 
0.12000000000000241, -0.7556118232815431 
0.130000000000002, -0.7561502235485107 
0.1400000000000009, -0.7571862981058546 
0.1499999999999998, -0.7587954791286815 
0.1599999999999987, -0.7610271590681755 
0.1699999999999976, -0.7638985628612531 
0.1799999999999965, -0.7673867421056934 
0.1899999999999954, -0.7714138717819514 
0.1999999999999943, -0.775825819049516 
0.2099999999999932, -0.7803762758185961 
0.2199999999999921, -0.7847427218169565 
0.229999999999991, -0.7885950933413688 
0.2399999999999899, -0.7916959389869658 
0.2499999999999888, -0.7939666297878033 
0.2599999999999877, -0.7954740472461945 
0.2699999999999866, -0.7963615197930292 
0.2799999999999855, -0.7967800452111138 
0.2899999999999844, -0.7968501971670033 
0.2999999999999833, -0.7966520548965286 
0.3099999999999822, -0.7962298572500047 
0.3199999999999811, -0.7956027318367942 
0.32999999999998, -0.7947807010337996 
0.3399999999999789, -0.7937923106341236 
0.3499999999999778, -0.7927367931468501 
0.35999999999997667, -0.7918772670946035 
0.36999999999997557, -0.7917805501908739 
0.37999999999997447, -0.7934586255265412 
0.38999999999997337, -0.7983547571216489 
0.39999999999997227, -0.8079045175942445 
0.40999999999997117, -0.8225548141499358 
0.41999999999997006, -0.8408243494077083 
0.42999999999996896, -0.8595958686029505 
0.43999999999996786, -0.8758210653515686 
0.44999999999996676, -0.8880118439161262 
0.45999999999996566, -0.8962813940640701 
0.46999999999996456, -0.9015172803917327 
0.47999999999996346, -0.9046782050605365 
0.48999999999996235, -0.9065033687576026 
0.49999999999996125, -0.9074814945620556 
0.5099999999999602, -0.9079066807156767 
0.519999999999959, -0.9079383162080827 
0.529999999999958, -0.9076410676686789 
0.5399999999999568, -0.9070026125888125 
0.5499999999999557, -0.9059306956409584 
0.5599999999999546, -0.9042295244052916 
0.5699999999999535, -0.9015550563053673 
0.5799999999999524, -0.8973568157325928 
0.5899999999999513, -0.8908444587423514 
0.5999999999999502, -0.8810854481245917 
0.6099999999999491, -0.8674115263695013 
0.619999999999948, -0.8501908162932637 
0.6299999999999469, -0.8314571144198035 
0.6399999999999458, -0.8143916457670668 
0.6499999999999447, -0.8016029130362604 
0.6599999999999436, -0.7938148874971064 
0.6699999999999425, -0.790101325325298 
0.6799999999999414, -0.7889528586066945 
0.6899999999999403, -0.7890812174712967 
0.6999999999999392, -0.7896694625239928 
0.7099999999999381, -0.7902979296279391 
0.719999999999937, -0.7907903936658192 
0.7299999999999359, -0.7910902912394705 
0.7399999999999348, -0.7911855813605394 
0.7499999999999337, -0.7910687115510963 
0.7599999999999326, -0.7907153765794839 
0.7699999999999315, -0.7900714447529948 
0.7799999999999304, -0.7890442332728846 
0.7899999999999293, -0.7875016706047211 
0.7999999999999282, -0.7852904587789411 
0.8099999999999271, -0.7822855609158764 
0.819999999999926, -0.7784647262859186 
0.8299999999999249, -0.7739650642606354 
0.8399999999999238, -0.7690679950622864 
0.8499999999999227, -0.7641121461245249 
0.8599999999999216, -0.7593965789986219 
0.8699999999999205, -0.7551304316411842 
0.8799999999999194, -0.7514324300071984 
0.8899999999999183, -0.7483529044812995 
0.8999999999999172, -0.7458953092252988 
0.9099999999999161, -0.7440294911336549 
0.919999999999915, -0.7426988590016121 
0.9299999999999139, -0.7418262647293445 
0.9399999999999128, -0.7413217226016531 
0.9499999999999117, -0.7410919943848453 
0.9599999999999106, -0.7410498249541491 
0.9699999999999095, -0.7411204027352291 
0.9799999999999084, -0.7412440924034656 
0.9899999999999073, -0.7413762898889488 
0.9999999999999062, -0.7414861670578489 
1.0099999999999052, -0.7415556605164124 
1.019999999999904, -0.7415786052201554 
1.029999999999903, -0.7415584334377356 
1.039999999999902, -0.7415029193926236 
1.0499999999999008, -0.7414167781700428 
1.0599999999998997, -0.7412957777650656 
1.0699999999998986, -0.7411263071742348 
1.0799999999998975, -0.7408910809586026 
1.0899999999998964, -0.7405774731545719 
1.0999999999998953, -0.7401837415900591 
1.1099999999998942, -0.7397211576593661 
1.119999999999893, -0.7392137405759402 
1.129999999999892, -0.7386985685083889 
1.1399999999998909, -0.7382283210345715 
1.1499999999998898, -0.7378755676305 
1.1599999999998887, -0.7377366379256405 
1.1699999999998876, -0.737932175408265 
1.1799999999998865, -0.7386020319749814 
1.1899999999998854, -0.7398940479113104 
1.1999999999998843, -0.7419484587579122 
1.2099999999998832, -0.7448802115704589 
1.219999999999882, -0.7487591069362336 
1.229999999999881, -0.7535838313144085 
1.2399999999998799, -0.7592454693250619 
1.2499999999998788, -0.7654862397525057 
1.2599999999998777, -0.7718831410129103 
1.2699999999998766, -0.7779054539854571 
1.2799999999998755, -0.7830631246477452 
1.2899999999998744, -0.7870710998562072 
1.2999999999998733, -0.7899094459276501 
1.3099999999998722, -0.7917492064223104 
1.319999999999871, -0.7928276603927678 
1.32999999999987, -0.7933584706578085 
1.3399999999998689, -0.7934963932812692 
1.3499999999998678, -0.7933358408938418 
1.3599999999998666, -0.7929209997924966 
1.3699999999998655, -0.7922564732358751 
1.3799999999998644, -0.7913167147914608 
1.3899999999998633, -0.7900587412478057 
1.3999999999998622, -0.7884485211470359 
1.4099999999998611, -0.7865175188156049 
1.41999999999986, -0.7844645943247364 
1.429999999999859, -0.7827867573601274 
1.4399999999998578, -0.7823320679612891 
1.4499999999998567, -0.7840691882249783 
1.4599999999998556, -0.788504836253751 
1.4699999999998545, -0.7951919010460784 
1.4799999999998534, -0.8029343781808128 
1.4899999999998523, -0.8104760727178639 
1.4999999999998512, -0.8169670380829277 
1.5099999999998501, -0.8220463490134495 
1.519999999999849, -0.8257321020393638 
1.529999999999848, -0.8282486041252437 
1.5399999999998468, -0.8298745142580095 
1.5499999999998457, -0.8308549082101233 
1.5599999999998446, -0.831369962121672 
1.5699999999998435, -0.8315334764790275 
1.5799999999998424, -0.8313997289239772 
1.5899999999998413, -0.8309669436600642 
1.5999999999998402, -0.830171688434576 
1.6099999999998391, -0.8288712181561634 
1.619999999999838, -0.8268140742395118 
1.629999999999837, -0.8236098905646893 
1.6399999999998358, -0.8187357148817332 
1.6499999999998347, -0.8116516181109257 
1.6599999999998336, -0.8020819972197739 
1.6699999999998325, -0.7903576456825385 
1.6799999999998314, -0.7775079061414296 
1.6899999999998303, -0.7649126345544938 
1.6999999999998292, -0.7537633145877234 
1.709999999999828, -0.7447345731161413 
1.719999999999827, -0.7379755123879044 
1.729999999999826, -0.7332734701502447 
1.7399999999998248, -0.7302365836369955 
1.7499999999998237, -0.7284302756956333 
1.7599999999998226, -0.7274598025128369 
1.7699999999998215, -0.7270087793018121 
1.7799999999998204, -0.7268464428471971 
1.7899999999998193, -0.7268162346560743 
1.7999999999998182, -0.7268165886803631 
1.809999999999817, -0.726781610924798 
1.819999999999816, -0.7266659074462127 
1.8299999999998149, -0.726435417113741 
1.8399999999998138, -0.7260648063851918 
1.8499999999998127, -0.725540674911529 
1.8599999999998116, -0.7248673850646352 
1.8699999999998105, -0.7240697475962785 
1.8799999999998094, -0.7231876690110864 
1.8899999999998083, -0.722263839110341 
1.8999999999998072, -0.7213316029349103 
1.909999999999806, -0.72040988941547 
1.919999999999805, -0.7195063631805396 
1.9299999999998039, -0.7186249703482099 
1.9399999999998028, -0.7177732529144147 
1.9499999999998017, -0.7169670242888742 
1.9599999999998006, -0.7162323628610797 
1.9699999999997995, -0.7156057289873864 
1.9799999999997984, -0.7151326228320246 
1.9899999999997973, -0.714864711103258 
1.9999999999997962, -0.7148554875489037 
2.0099999999998173, -0.7151552123923658 
2.0199999999998384, -0.7158064793436716 
2.0299999999998595, -0.7168416533328728 
2.0399999999998806, -0.7182824208614147 
2.0499999999999017, -0.7201401373142936 
2.059999999999923, -0.7224141365403229 
2.069999999999944, -0.725084398383491 
2.079999999999965, -0.7280961518616754 
2.089999999999986, -0.7313391432302987 
2.100000000000007, -0.7346343419477777 
2.1100000000000283, -0.7377493644053159 
2.1200000000000494, -0.7404539580994511 
2.1300000000000705, -0.7425919886142451 
2.1400000000000916, -0.7441210351874011 
2.1500000000001127, -0.7450953374914856 
2.160000000000134, -0.7456156738856508 
2.170000000000155, -0.7457837747897738 
2.180000000000176, -0.7456781944881042 
2.190000000000197, -0.7453482961383375 
2.2000000000002182, -0.7448179052723469 
2.2100000000002393, -0.7440940095777859 
2.2200000000002604, -0.7431815418526074 
2.2300000000002815, -0.7421107568132427 
2.2400000000003026, -0.7409885973366125 
2.2500000000003237, -0.7400859220329389 
2.260000000000345, -0.739955372443952 
2.270000000000366, -0.7415154654726499 
2.280000000000387, -0.7459286176849308 
2.290000000000408, -0.7540620718468497 
2.3000000000004293, -0.7656586141967728 
2.3100000000004504, -0.7790224858736458 
2.3200000000004715, -0.7918761282200467 
2.3300000000004926, -0.8026064564909143 
2.3400000000005137, -0.8106958147221788 
2.3500000000005348, -0.8163767800556654 
2.360000000000556, -0.820169241898629 
2.370000000000577, -0.8225999587104574 
2.380000000000598, -0.8240910399955119 
2.390000000000619, -0.8249409159977624 
2.4000000000006403, -0.8253415342763704 
2.4100000000006614, -0.8254017005375335 
2.4200000000006825, -0.8251637558097485 
2.4300000000007036, -0.8246090228790022 
2.4400000000007247, -0.8236499778042241 
2.450000000000746, -0.8221076755520216 
2.460000000000767, -0.819676280878109 
2.470000000000788, -0.8158906604730249 
2.480000000000809, -0.8101471728879972 
2.49000000000083, -0.8018679051088347 
2.5000000000008513, -0.790857636610363 
2.5100000000008724, -0.7776783219340558 
2.5200000000008935, -0.7636509935813125 
2.5300000000009146, -0.7503474542226283 
2.5400000000009357, -0.7389712792353043 
2.550000000000957, -0.7300748708227003 
2.560000000000978, -0.7236425572932256 
2.570000000000999, -0.7193206542355226 
2.58000000000102, -0.7166263791484375 
2.5900000000010412, -0.7150834670819577 
2.6000000000010624, -0.7142910835023089 
2.6100000000010835, -0.7139460529612942 
2.6200000000011046, -0.713837019884525 
2.6300000000011257, -0.7138252425199808 
2.6400000000011468, -0.7138223138231068 
2.650000000001168, -0.7137707798370165 
2.660000000001189, -0.7136303483084684 
2.67000000000121, -0.7133705930830095 
2.680000000001231, -0.7129701457462201 
2.6900000000012523, -0.7124209818343753 
2.7000000000012734, -0.7117338315980409 
2.7100000000012945, -0.710938795037676 
2.7200000000013156, -0.7100775751864485 
2.7300000000013367, -0.7091903786736165 
2.740000000001358, -0.7083052440553853 
2.750000000001379, -0.7074354139563861 
2.7600000000014, -0.7065842995376699 
2.770000000001421, -0.7057535623892385 
2.780000000001442, -0.7049500398154789 
2.7900000000014633, -0.7041898066644983 
2.8000000000014844, -0.7034998346037629 
2.8100000000015055, -0.7029182079229003 
2.8200000000015266, -0.7024932356831446 
2.8300000000015477, -0.702281215371821 
2.840000000001569, -0.7023426972187227 
2.85000000000159, -0.702737766728334 
2.860000000001611, -0.7035215159505134 
2.870000000001632, -0.7047408614694494 
2.8800000000016532, -0.7064328964893298 
2.8900000000016743, -0.7086232621844855 
2.9000000000016954, -0.7113212066312347 
2.9100000000017165, -0.7145070875029963 
2.9200000000017377, -0.7181100159973945 
2.9300000000017588, -0.7219811424938133 
2.94000000000178, -0.7258821432760592 
2.950000000001801, -0.7295169417724832 
2.960000000001822, -0.7326133648575903 
2.970000000001843, -0.7350115714565314 
2.9800000000018643, -0.7366961746724965 
2.9900000000018854, -0.737757695759443 
3.0000000000019065, -0.7383261054949858 
3.0100000000019276, -0.7385205329750084 
3.0200000000019487, -0.7384269969155293 
3.03000000000197, -0.7380949733866004 
3.040000000001991, -0.7375416740646676 
3.050000000002012, -0.7367584956801464 
3.060000000002033, -0.7357197467599537 
3.070000000002054, -0.734398401596944 
3.0800000000020753, -0.7327976638653447 
3.0900000000020964, -0.7310076691400823 
3.1000000000021175, -0.7292824719333613 
3.1100000000021386, -0.7280845558966886 
3.1200000000021597, -0.7279733507917354 
3.130000000002181, -0.7292584766359115 
3.140000000002202, -0.7316849308478385 
3.150000000002223, -0.7346521282410777 
3.160000000002244, -0.737757685947116 
3.1700000000022652, -0.7408739022625291 
3.1800000000022863, -0.7438620340125873 
3.1900000000023074, -0.746510398590797 
3.2000000000023285, -0.7486618572518616 
3.2100000000023496, -0.750277660757455 
3.2200000000023707, -0.751406897657956 
3.230000000002392, -0.7521322679668119 
3.240000000002413, -0.7525320671309053 
3.250000000002434, -0.7526617192803287 
3.260000000002455, -0.7525462882800671 
3.2700000000024763, -0.7521761420039492 
3.2800000000024974, -0.7515014917551771 
3.2900000000025185, -0.7504254667333939 
3.3000000000025396, -0.7488009853140027 
3.3100000000025607, -0.7464449738078566 
3.3200000000025818, -0.74318889375752 
3.330000000002603, -0.7389693175476658 
3.340000000002624, -0.7339152182446786 
3.350000000002645, -0.7283537527986959 
3.360000000002666, -0.7227077606348454 
3.3700000000026873, -0.7173582066526264 
3.3800000000027084, -0.7125628614638165 
3.3900000000027295, -0.7084509577047216 
3.4000000000027506, -0.7050573655196527 
3.4100000000027717, -0.7023595360905592 
3.420000000002793, -0.7003024416068124 
3.430000000002814, -0.698812161513879 
3.440000000002835, -0.6978035174766315 
3.450000000002856, -0.6971861362895589 
3.460000000002877, -0.6968706638865385 
3.4700000000028983, -0.6967747135580997 
3.4800000000029194, -0.6968273465193245 
3.4900000000029405, -0.6969713449389917 
3.5000000000029616, -0.6971635219713608 
3.5100000000029827, -0.6973740010113445 
3.520000000003004, -0.6975852862462049 
3.530000000003025, -0.6977910233302544 
3.540000000003046, -0.6979932292207259 
3.550000000003067, -0.698196673252373 
3.5600000000030882, -0.6984009133058964 
3.5700000000031094, -0.6985933372433174 
3.5800000000031305, -0.6987478084801595 
3.5900000000031516, -0.6988310764171133 
3.6000000000031727, -0.6988139442932886 
3.6100000000031938, -0.6986806672355826 
3.620000000003215, -0.6984320029779015 
3.630000000003236, -0.6980828541386505 
3.640000000003257, -0.6976590376532755 
3.650000000003278, -0.697197299843258 
3.6600000000032993, -0.6967505094518519 
3.6700000000033204, -0.6963982502939442 
3.6800000000033415, -0.6962619611317599 
3.6900000000033626, -0.6965224872160796 
3.7000000000033837, -0.6974358911520805 
3.710000000003405, -0.6993407571918971 
3.720000000003426, -0.7026472429515659 
3.730000000003447, -0.7077942686204255 
3.740000000003468, -0.7151562904242226 
3.750000000003489, -0.7248818525489708 
3.7600000000035103, -0.7366772637886587 
3.7700000000035314, -0.7496422486620166 
3.7800000000035525, -0.7623719864429822 
3.7900000000035736, -0.7734436641426188 
3.8000000000035947, -0.7820079623558227 
3.810000000003616, -0.787998724925304 
3.820000000003637, -0.791873029668161 
3.830000000003658, -0.794227336118797 
3.840000000003679, -0.7955661358259591 
3.8500000000037002, -0.7962394721142262 
3.8600000000037213, -0.796461770160677 
3.8700000000037424, -0.7963471348768085 
3.8800000000037635, -0.7959354752941318 
3.8900000000037847, -0.7952037129938299 
3.9000000000038058, -0.794061736163241 
3.910000000003827, -0.7923323979243269 
3.920000000003848, -0.7897138828213668 
3.930000000003869, -0.7857258964128845 
3.94000000000389, -0.7796583839634659 
3.9500000000039113, -0.7705934137719612 
3.9600000000039324, -0.7576668049305335 
3.9700000000039535, -0.7407472114030889 
3.9800000000039746, -0.7212595163303229 
3.9900000000039957, -0.7021067919179292 
4.000000000004016, -0.6861762767761347 
4.010000000003993, -0.6748255985269982 
4.02000000000397, -0.6677630070346329 
4.030000000003946, -0.6638823552908751 
4.040000000003923, -0.6620229783684238 
4.0500000000039, -0.6613009143242596 
4.0600000000038765, -0.6611453519533335 
4.070000000003853, -0.6612245304715947 
4.08000000000383, -0.6613594867488348 
4.090000000003807, -0.6614579142534188 
4.100000000003783, -0.6614710483465527 
4.11000000000376, -0.661367980532604 
4.120000000003737, -0.6611216827656867 
4.130000000003713, -0.6607034157484132 
4.14000000000369, -0.6600846159593219 
4.150000000003667, -0.6592460656598961 
4.1600000000036434, -0.6581914739561369 
4.17000000000362, -0.6569573670966894 
4.180000000003597, -0.6556096343085073 
4.1900000000035735, -0.6542252950777981 
4.20000000000355, -0.6528701721055097 
4.210000000003527, -0.6515856810349514 
4.220000000003504, -0.6503891640726581 
4.23000000000348, -0.6492830425055288 
4.240000000003457, -0.6482656879096995 
4.250000000003434, -0.6473395514656934 
4.26000000000341, -0.6465155375870724 
4.270000000003387, -0.6458145540835833 
4.280000000003364, -0.6452674443653076 
4.2900000000033405, -0.6449139999378053 
4.300000000003317, -0.6448013267834328 
4.310000000003294, -0.6449818096186213 
4.320000000003271, -0.6455111197240527 
4.330000000003247, -0.646446786920668 
4.340000000003224, -0.6478474792301283 
4.350000000003201, -0.6497721221506372 
4.360000000003177, -0.6522763280941624 
4.370000000003154, -0.6554015866688092 
4.380000000003131, -0.6591515401168184 
4.390000000003107, -0.6634529690177602 
4.400000000003084, -0.6681126226773793 
4.410000000003061, -0.6728044733713816 
4.4200000000030375, -0.6771304238657182 
4.430000000003014, -0.6807503172635182 
4.440000000002991, -0.68349786818732 
4.450000000002968, -0.6853969423823287 
4.460000000002944, -0.6865877673474916 
4.470000000002921, -0.6872378190765375 
4.480000000002898, -0.6874870999566908 
4.490000000002874, -0.6874293622915191 
4.500000000002851, -0.6871115679090759 
4.510000000002828, -0.6865369025130992 
4.520000000002804, -0.6856635936814331 
4.530000000002781, -0.684395392045292 
4.540000000002758, -0.6825597142285228 
4.5500000000027345, -0.6798674924650566 
4.560000000002711, -0.6758479021361804 
4.570000000002688, -0.669764682704895 
4.580000000002665, -0.6605896535148912 
4.590000000002641, -0.6472745228402995 
4.600000000002618, -0.6296112125305684 
4.610000000002595, -0.6092469909041138 
4.620000000002571, -0.5893814430781954 
4.630000000002548, -0.5728788622894794 
4.640000000002525, -0.5608570265405277 
4.6500000000025015, -0.5529096789087361 
4.660000000002478, -0.5480139235447774 
4.670000000002455, -0.5451626465291296 
4.6800000000024315, -0.5435895671267125 
4.690000000002408, -0.5427770950379374 
4.700000000002385, -0.5423971840137984 
4.710000000002362, -0.5422493867376075 
4.720000000002338, -0.5422136550916569 
4.730000000002315, -0.542218474926547 
4.740000000002292, -0.5422208369652882 
4.750000000002268, -0.5421946803940718 
4.760000000002245, -0.5421254520829983 
4.770000000002222, -0.5420090378138406 
4.7800000000021985, -0.5418530201718494 
4.790000000002175, -0.541677240625264 
4.800000000002152, -0.5415103780154377 
4.810000000002129, -0.5413812989942002 
4.820000000002105, -0.5413077439319084 
4.830000000002082, -0.5412875832807906 
4.840000000002059, -0.5412973600718589 
4.850000000002035, -0.5412995046596173 
4.860000000002012, -0.5412549627467271 
4.870000000001989, -0.5411347175767588 
4.880000000001965, -0.5409249387398796 
4.890000000001942, -0.5406255028315148 
4.900000000001919, -0.5402456711932033 
4.9100000000018955, -0.5398010823086566 
4.920000000001872, -0.5393145806342289 
