t, s[1].omega / s[0].omega 
0, -0.7299976805636577 
0.009999999999999995, -0.7297510006708646 
0.019999999999999934, -0.7294702790600137 
0.029999999999999874, -0.7291440227081493 
0.04000000000000012, -0.7287611878124503 
0.050000000000000405, -0.7283179902958239 
0.06000000000000069, -0.7278215734260345 
0.07000000000000098, -0.7272909031876893 
0.08000000000000126, -0.726757153631666 
0.09000000000000155, -0.726265350789882 
0.10000000000000184, -0.7258773535671839 
0.11000000000000212, -0.7256747276988003 
0.12000000000000241, -0.7257593512183911 
0.130000000000002, -0.7262499229210365 
0.1400000000000009, -0.7272738779352486 
0.1499999999999998, -0.7289558082474584 
0.1599999999999987, -0.7314039489764166 
0.1699999999999976, -0.7346945933012525 
0.1799999999999965, -0.7388511378545163 
0.1899999999999954, -0.7438130871119395 
0.1999999999999943, -0.7493965047569392 
0.2099999999999932, -0.7552659600530349 
0.2199999999999921, -0.7609601352684251 
0.229999999999991, -0.7660026868798819 
0.2399999999999899, -0.7700585572333549 
0.2499999999999888, -0.7730283979854528 
0.2599999999999877, -0.7750178322255117 
0.2699999999999866, -0.7762306435120289 
0.2799999999999855, -0.7768725563859619 
0.2899999999999844, -0.777103318034859 
0.2999999999999833, -0.7770266521523884 
0.3099999999999822, -0.776696494009627 
0.3199999999999811, -0.7761258978658957 
0.32999999999998, -0.7752940359028575 
0.3399999999999789, -0.7741524602075183 
0.3499999999999778, -0.77263602511237 
0.35999999999997667, -0.7706880985716844 
0.36999999999997557, -0.7683114360488077 
0.37999999999997447, -0.765644406919633 
0.38999999999997337, -0.7630204289430378 
0.39999999999997227, -0.7609133352846252 
0.40999999999997117, -0.7597217682097762 
0.41999999999997006, -0.7595821603321115 
0.42999999999996896, -0.7604405272803245 
0.43999999999996786, -0.7621731151862554 
0.44999999999996676, -0.7645149234267876 
0.45999999999996566, -0.7670484051000269 
0.46999999999996456, -0.769378873402134 
0.47999999999996346, -0.7712789853250146 
0.48999999999996235, -0.7726914015594828 
0.49999999999996125, -0.7736583917280522 
0.5099999999999602, -0.7742551492790709 
0.519999999999959, -0.7745506422230795 
0.529999999999958, -0.7745900372172125 
0.5399999999999568, -0.7743873368734877 
0.5499999999999557, -0.7739200955258204 
0.5599999999999546, -0.7731222157843929 
0.5699999999999535, -0.7718751063972027 
0.5799999999999524, -0.7700039775989128 
0.5899999999999513, -0.7672957748658678 
0.5999999999999502, -0.7635607200148457 
0.6099999999999491, -0.7587390384005104 
0.619999999999948, -0.7529980679499934 
0.6299999999999469, -0.7467298715260907 
0.6399999999999458, -0.7404269978320247 
0.6499999999999447, -0.7345259586657974 
0.6599999999999436, -0.7293182494991758 
0.6699999999999425, -0.7249453050551177 
0.6799999999999414, -0.7214355137090283 
0.6899999999999403, -0.7187444792114503 
0.6999999999999392, -0.7167840978916276 
0.7099999999999381, -0.7154416596271825 
0.719999999999937, -0.7145939179056074 
0.7299999999999359, -0.7141189710991934 
0.7399999999999348, -0.7139059430823149 
0.7499999999999337, -0.7138612370213974 
0.7599999999999326, -0.7139107417125908 
0.7699999999999315, -0.7139987349959811 
0.7799999999999304, -0.7140852168765203 
0.7899999999999293, -0.71414347812199 
0.7999999999999282, -0.714158848688042 
0.8099999999999271, -0.7141280549348493 
0.819999999999926, -0.7140572535051815 
0.8299999999999249, -0.713956997972668 
0.8399999999999238, -0.7138348008818822 
0.8499999999999227, -0.713688875554719 
0.8599999999999216, -0.7135070813159329 
0.8699999999999205, -0.7132720618353794 
0.8799999999999194, -0.7129694409169267 
0.8899999999999183, -0.7125943902638145 
0.8999999999999172, -0.7121542018906304 
0.9099999999999161, -0.7116681257657587 
0.919999999999915, -0.7111673815123338 
0.9299999999999139, -0.7106973988504832 
0.9399999999999128, -0.710322533188047 
0.9499999999999117, -0.710131951029094 
0.9599999999999106, -0.7102443782488689 
0.9699999999999095, -0.710809053876005 
0.9799999999999084, -0.7120007280662806 
0.9899999999999073, -0.7140076557625488 
0.9999999999999062, -0.7170121243726866 
1.0099999999999052, -0.7211616840182267 
1.019999999999904, -0.7265262658828908 
1.029999999999903, -0.7330366389420726 
1.039999999999902, -0.7404135874817832 
1.0499999999999008, -0.7481319524898822 
1.0599999999998997, -0.7554938871089685 
1.0699999999998986, -0.7618390176434511 
1.0799999999998975, -0.7667799418317792 
1.0899999999998964, -0.7702860563430167 
1.0999999999998953, -0.7725781217084179 
1.1099999999998942, -0.7739589578536535 
1.119999999999893, -0.77469760845159 
1.129999999999892, -0.7749876436132361 
1.1399999999998909, -0.7749480934130002 
1.1499999999998898, -0.7746368019851863 
1.1599999999998887, -0.7740614008210687 
1.1699999999998876, -0.773183376059394 
1.1799999999998865, -0.7719150056372471 
1.1899999999998854, -0.7701107637191982 
1.1999999999998843, -0.767556718824642 
1.2099999999998832, -0.7639645137195202 
1.219999999999882, -0.758980854475438 
1.229999999999881, -0.7522338701170251 
1.2399999999998799, -0.743471973096033 
1.2499999999998788, -0.7328834776511142 
1.2599999999998777, -0.7214919870958795 
1.2699999999998766, -0.7110511820560307 
1.2799999999998755, -0.703118233627669 
1.2899999999998744, -0.6981877476246864 
1.2999999999998733, -0.6957558395841522 
1.3099999999998722, -0.6949430437510142 
1.319999999999871, -0.6949767563709456 
1.32999999999987, -0.6953473817141904 
1.3399999999998689, -0.6957753673979703 
1.3499999999998678, -0.6961290707136022 
1.3599999999998666, -0.6963551572654165 
1.3699999999998655, -0.6964335992571284 
1.3799999999998644, -0.6963518975444554 
1.3899999999998633, -0.6960910295995941 
1.3999999999998622, -0.6956183505567279 
1.4099999999998611, -0.6948863723811609 
1.41999999999986, -0.6938396727667075 
1.429999999999859, -0.6924330347770191 
1.4399999999998578, -0.690658593385456 
1.4499999999998567, -0.6885682894552739 
1.4599999999998556, -0.6862722386503189 
1.4699999999998545, -0.6839081278291045 
1.4799999999998534, -0.6816010121876328 
1.4899999999998523, -0.6794383038706886 
1.4999999999998512, -0.6774676729248115 
1.5099999999998501, -0.6757090390837702 
1.519999999999849, -0.6741689092913625 
1.529999999999848, -0.6728505355070369 
1.5399999999998468, -0.6717586205763968 
1.5499999999998457, -0.6708998590882785 
1.5599999999998446, -0.6702811621504351 
1.5699999999998435, -0.6699071830422257 
1.5799999999998424, -0.6697783623456087 
1.5899999999998413, -0.6698902657782593 
1.5999999999998402, -0.6702344704786837 
1.6099999999998391, -0.6708007130551586 
1.619999999999838, -0.6715795446546482 
1.629999999999837, -0.6725643723487031 
1.6399999999998358, -0.6737514339405354 
1.6499999999998347, -0.6751359970886119 
1.6599999999998336, -0.6767034052665658 
1.6699999999998325, -0.6784156157303701 
1.6799999999998314, -0.6801984554161684 
1.6899999999998303, -0.6819401303626939 
1.6999999999998292, -0.6835106881956975 
1.709999999999828, -0.6847985987215961 
1.719999999999827, -0.6857430688109983 
1.729999999999826, -0.6863411580016207 
1.7399999999998248, -0.6866299114806437 
1.7499999999998237, -0.6866605505834888 
1.7599999999998226, -0.686479416589746 
1.7699999999998215, -0.68611958789746 
1.7799999999998204, -0.6856007940564656 
1.7899999999998193, -0.6849351806845785 
1.7999999999998182, -0.6841393168112447 
1.809999999999817, -0.6832562521824679 
1.819999999999816, -0.6823941189698743 
1.8299999999998149, -0.6817865858302432 
1.8399999999998138, -0.6818665480542044 
1.8499999999998127, -0.6833021419642049 
1.8599999999998116, -0.6868720741756875 
1.8699999999998105, -0.6930458390185924 
1.8799999999998094, -0.7014124383422693 
1.8899999999998083, -0.7106030930069804 
1.8999999999998072, -0.7190980517605076 
1.909999999999806, -0.7260807849751203 
1.919999999999805, -0.7314617537352295 
1.9299999999998039, -0.7354589767861506 
1.9399999999998028, -0.7383375195840848 
1.9499999999998017, -0.7403416243915389 
1.9599999999998006, -0.7416815792258948 
1.9699999999997995, -0.7425260654751781 
1.9799999999997984, -0.7429989409361697 
1.9899999999997973, -0.7431810070287432 
1.9999999999997962, -0.743113439765039 
2.0099999999998173, -0.7427994107854643 
2.0199999999998384, -0.7422019282940131 
2.0299999999998595, -0.7412380490961299 
2.0399999999998806, -0.7397734475209197 
2.0499999999999017, -0.7376284615188425 
2.059999999999923, -0.734614721183431 
2.069999999999944, -0.7306162088304891 
2.079999999999965, -0.7256904398707075 
2.089999999999986, -0.7201139948397591 
2.100000000000007, -0.7143120418656409 
2.1100000000000283, -0.7087132782437818 
2.1200000000000494, -0.7036348762901118 
2.1300000000000705, -0.6992504732116671 
2.1400000000000916, -0.695617324348924 
2.1500000000001127, -0.6927185220027654 
2.160000000000134, -0.6904958896682218 
2.170000000000155, -0.6888695763918512 
2.180000000000176, -0.6877489165619594 
2.190000000000197, -0.6870395706587088 
2.2000000000002182, -0.6866495972555586 
2.2100000000002393, -0.6864948327378066 
2.2200000000002604, -0.686502871087894 
2.2300000000002815, -0.6866150604279101 
2.2400000000003026, -0.6867866761344041 
2.2500000000003237, -0.6869860682731456 
2.260000000000345, -0.6871936158833423 
2.270000000000366, -0.6874006220565523 
2.280000000000387, -0.6876072119612991 
2.290000000000408, -0.6878178165802621 
2.3000000000004293, -0.6880339932889037 
2.3100000000004504, -0.6882469518848277 
2.3200000000004715, -0.6884341457702957 
2.3300000000004926, -0.6885631989771344 
2.3400000000005137, -0.6886019823684266 
2.3500000000005348, -0.6885291195503869 
2.360000000000556, -0.6883391731186983 
2.370000000000577, -0.6880415280598429 
2.380000000000598, -0.6876566427584463 
2.390000000000619, -0.6872141836237983 
2.4000000000006403, -0.6867557444025773 
2.4100000000006614, -0.6863430388591856 
2.4200000000006825, -0.6860715154557877 
2.4300000000007036, -0.6860885683983173 
2.4400000000007247, -0.686613985599059 
2.450000000000746, -0.6879574848093031 
2.460000000000767, -0.690523960557523 
2.470000000000788, -0.69479102271362 
2.480000000000809, -0.7012354141704871 
2.49000000000083, -0.7101800540250196 
2.5000000000008513, -0.7215544783753061 
2.5100000000008724, -0.7346504973194029 
2.5200000000008935, -0.7481000316182801 
2.5300000000009146, -0.7602940414620634 
2.5400000000009357, -0.7700699367081241 
2.550000000000957, -0.7771084462984772 
2.560000000000978, -0.7817686809314948 
2.570000000000999, -0.7846672535836886 
2.58000000000102, -0.7863728564974404 
2.5900000000010412, -0.7872987452509228 
2.6000000000010624, -0.7877080795243037 
2.6100000000010835, -0.7877507492866647 
2.6200000000011046, -0.787495192485859 
2.6300000000011257, -0.7869456307431861 
2.6400000000011468, -0.786043829135488 
2.650000000001168, -0.7846549066920983 
2.660000000001189, -0.7825351413155971 
2.67000000000121, -0.7792808359628592 
2.680000000001231, -0.7742702249731009 
2.6900000000012523, -0.7666539320067128 
2.7000000000012734, -0.7555352516309746 
2.7100000000012945, -0.7405152606463398 
2.7200000000013156, -0.7224602674801731 
2.7300000000013367, -0.7036892022091623 
2.740000000001358, -0.6869446028385626 
2.750000000001379, -0.6739804433098595 
2.7600000000014, -0.6650861405406105 
2.770000000001421, -0.65957783367599 
2.780000000001442, -0.6564728606338032 
2.7900000000014633, -0.6548934973683448 
2.8000000000014844, -0.6541974325048426 
2.8100000000015055, -0.6539657278952495 
2.8200000000015266, -0.6539453265122112 
2.8300000000015477, -0.6539910976666289 
2.840000000001569, -0.6540214948737011 
2.85000000000159, -0.6539887394607804 
2.860000000001611, -0.6538605697715091 
2.870000000001632, -0.6536106696897133 
2.8800000000016532, -0.653216156181606 
2.8900000000016743, -0.6526612627577764 
2.9000000000016954, -0.6519452380353542 
2.9100000000017165, -0.6510894482585641 
2.9200000000017377, -0.6501368957280058 
2.9300000000017588, -0.6491412787547431 
2.94000000000178, -0.6481509010248186 
2.950000000001801, -0.6471969275404149 
2.960000000001822, -0.6462914411012203 
2.970000000001843, -0.6454336886635051 
2.9800000000018643, -0.6446192507576818 
2.9900000000018854, -0.6438476934049411 
3.0000000000019065, -0.643127106460269 
3.0100000000019276, -0.6424762250443032 
3.0200000000019487, -0.6419254912616378 
3.03000000000197, -0.6415178785485234 
3.040000000001991, -0.6413095350234166 
3.050000000002012, -0.6413699118729287 
3.060000000002033, -0.6417811138449232 
3.070000000002054, -0.6426364955959621 
3.0800000000020753, -0.6440386040710144 
3.0900000000020964, -0.6460959328911604 
3.1000000000021175, -0.6489161953596445 
3.1100000000021386, -0.6525909445800994 
3.1200000000021597, -0.657163700644059 
3.130000000002181, -0.6625759172073094 
3.140000000002202, -0.6686012898583479 
3.150000000002223, -0.6748134329486632 
3.160000000002244, -0.6806549738002602 
3.1700000000022652, -0.6856203131664798 
3.1800000000022863, -0.6894394238650898 
3.1900000000023074, -0.6921215266813846 
3.2000000000023285, -0.6938552824135062 
3.2100000000023496, -0.694876996341555 
3.2200000000023707, -0.6953885519161486 
3.230000000002392, -0.6955304540651012 
3.240000000002413, -0.695383298944408 
3.250000000002434, -0.6949756046051204 
3.260000000002455, -0.6942871233292395 
3.2700000000024763, -0.6932428190457713 
3.2800000000024974, -0.6916938514008855 
3.2900000000025185, -0.6893809459344009 
3.3000000000025396, -0.6858769240917204 
3.3100000000025607, -0.6805209652065782 
3.3200000000025818, -0.6724144897552733 
3.330000000002603, -0.6606594351370705 
3.340000000002624, -0.6450235994012702 
3.350000000002645, -0.6267186582428913 
3.360000000002666, -0.6082803868884873 
3.3700000000026873, -0.5922382183354723 
3.3800000000027084, -0.5798921287859631 
3.3900000000027295, -0.5712340938493711 
3.4000000000027506, -0.5655631778572233 
3.4100000000027717, -0.5620405400481424 
3.420000000002793, -0.5599538896254117 
3.430000000002814, -0.5587802826617874 
3.440000000002835, -0.5581640588505739 
3.450000000002856, -0.5578739679258967 
3.460000000002877, -0.5577638037623485 
3.4700000000028983, -0.5577425934808906 
3.4800000000029194, -0.5577540188760998 
3.4900000000029405, -0.5577632647741718 
3.5000000000029616, -0.5577496104431302 
3.5100000000029827, -0.5577034018898386 
3.520000000003004, -0.5576258844372156 
3.530000000003025, -0.5575295913794722 
3.540000000003046, -0.5574363332970613 
3.550000000003067, -0.5573707598799047 
3.5600000000030882, -0.5573504303266775 
3.5700000000031094, -0.5573764992124427 
3.5800000000031305, -0.5574300062629618 
3.5900000000031516, -0.5574765184449622 
3.6000000000031727, -0.5574774019343411 
3.6100000000031938, -0.5574018517749285 
3.620000000003215, -0.5572336233970211 
3.630000000003236, -0.5569708006590445 
3.640000000003257, -0.5566216519496618 
3.650000000003278, -0.5562008996460666 
3.6600000000032993, -0.5557293045966372 
3.6700000000033204, -0.555238034327183 
3.6800000000033415, -0.5547791702972198 
3.6900000000033626, -0.5544446922137317 
3.7000000000033837, -0.5543974277444137 
3.710000000003405, -0.5549168157009513 
3.720000000003426, -0.5564547381575773 
3.730000000003447, -0.559670223262498 
3.740000000003468, -0.5653508442928705 
3.750000000003489, -0.574058311495649 
3.7600000000035103, -0.5854481494335625 
3.7700000000035314, -0.5977999833971362 
3.7800000000035525, -0.6087511388539837 
3.7900000000035736, -0.6169052942656159 
3.8000000000035947, -0.6223960653628294 
3.810000000003616, -0.626046670265336 
3.820000000003637, -0.6285597480017129 
3.830000000003658, -0.6303404721790008 
3.840000000003679, -0.6316041117864534 
3.8500000000037002, -0.6324781650212279 
3.8600000000037213, -0.6330487474759395 
3.8700000000037424, -0.6333758708598796 
3.8800000000037635, -0.6334977188421999 
3.8900000000037847, -0.6334317570333894 
3.9000000000038058, -0.633174824463356 
3.910000000003827, -0.632703223295615 
3.920000000003848, -0.6319748722490101 
3.930000000003869, -0.6309374586442689 
3.94000000000389, -0.6295469502372695 
3.9500000000039113, -0.6277956516478295 
3.9600000000039324, -0.625736877988075 
3.9700000000039535, -0.6234853194176846 
3.9800000000039746, -0.6211853658206175 
3.9900000000039957, -0.6189667480642104 
4.000000000004016, -0.6169157549602569 
4.010000000003993, -0.6150724065589713 
4.02000000000397, -0.6134443812710463 
4.030000000003946, -0.6120242759021711 
4.040000000003923, -0.610802532511529 
4.0500000000039, -0.609774443190388 
4.0600000000038765, -0.608942607919192 
4.070000000003853, -0.6083167611179698 
4.08000000000383, -0.6079124308538206 
4.090000000003807, -0.6077493597754247 
4.100000000003783, -0.6078502863729132 
4.11000000000376, -0.608240486649984 
4.120000000003737, -0.608948241449885 
4.130000000003713, -0.610005986610908 
4.14000000000369, -0.6114512176434016 
4.150000000003667, -0.6133251647697705 
4.1600000000036434, -0.615665871931488 
4.17000000000362, -0.6184912843563206 
4.180000000003597, -0.6217695607126562 
4.1900000000035735, -0.6253823602431284 
4.20000000000355, -0.6291040329491083 
4.210000000003527, -0.6326314352778082 
4.220000000003504, -0.6356742344984352 
4.23000000000348, -0.6380552175646147 
4.240000000003457, -0.639747542448992 
4.250000000003434, -0.6408344505198896 
4.26000000000341, -0.6414401665377387 
4.270000000003387, -0.6416785519455556 
4.280000000003364, -0.6416301417487824 
4.2900000000033405, -0.6413367960191438 
4.300000000003317, -0.6408014502807926 
4.310000000003294, -0.639984953114944 
4.320000000003271, -0.6387948741718098 
4.330000000003247, -0.6370611468844668 
4.340000000003224, -0.6344919521633575 
4.350000000003201, -0.6306057889383027 
4.360000000003177, -0.6246603343706368 
4.370000000003154, -0.6156829759980103 
4.380000000003131, -0.6028405549562671 
4.390000000003107, -0.5862725034174685 
4.400000000003084, -0.5677442230487502 
4.410000000003061, -0.5500125568629182 
4.4200000000030375, -0.5352561235392099 
4.430000000003014, -0.5242276327813368 
4.440000000002991, -0.5165788987235919 
4.450000000002968, -0.5115344746804278 
4.460000000002944, -0.5083258739535641 
4.470000000002921, -0.5063479484601334 
4.480000000002898, -0.505170781754327 
4.490000000002874, -0.5045044593562016 
4.500000000002851, -0.5041589998246704 
4.510000000002828, -0.5040121224461304 
4.520000000002804, -0.5039863101140633 
4.530000000002781, -0.5040335504962281 
4.540000000002758, -0.5041258607730096 
4.5500000000027345, -0.504250063595568 
4.560000000002711, -0.5044054629626947 
4.570000000002688, -0.5046027892711423 
4.580000000002665, -0.5048622350041652 
4.590000000002641, -0.5052083200411023 
4.600000000002618, -0.5056605235411975 
4.610000000002595, -0.5062211535221977 
4.620000000002571, -0.5068649708057813 
4.630000000002548, -0.5075371468919738 
4.640000000002525, -0.5081643753429591 
4.6500000000025015, -0.5086761723942739 
4.660000000002478, -0.5090245932356259 
4.670000000002455, -0.5091911038089606 
4.6800000000024315, -0.5091797487958796 
4.690000000002408, -0.5090043084214184 
4.700000000002385, -0.5086768224163851 
4.710000000002362, -0.5081999326386073 
4.720000000002338, -0.5075617166305523 
4.730000000002315, -0.5067301351710741 
4.740000000002292, -0.5056431187237864 
4.750000000002268, -0.504187447682512 
4.760000000002245, -0.5021529611970393 
4.770000000002222, -0.4991397600663999 
4.7800000000021985, -0.49440726995825124 
4.790000000002175, -0.486766931206263 
4.800000000002152, -0.47491389584164817 
4.810000000002129, -0.4586175974243667 
4.820000000002105, -0.43987935509598336 
4.830000000002082, -0.4220611574443211 
4.840000000002059, -0.40760645926458655 
4.850000000002035, -0.39709557547383834 
4.860000000002012, -0.3899281204791447 
4.870000000001989, -0.3851998811078085 
4.880000000001965, -0.38213044798388623 
4.890000000001942, -0.38015807913485083 
4.900000000001919, -0.37890852419950377 
4.9100000000018955, -0.3781411038230188 
4.920000000001872, -0.37770414518779927 
