t, s[1].omega / s[0].omega 
0, -0.4200297304685897 
0.009999999999999995, -0.42318584355960676 
0.019999999999999934, -0.4265336347327084 
0.029999999999999874, -0.4297538511375807 
0.04000000000000012, -0.4325411686358522 
0.050000000000000405, -0.43471830182979804 
0.06000000000000069, -0.4362654298981016 
0.07000000000000098, -0.4372664619150156 
0.08000000000000126, -0.4378367723854266 
0.09000000000000155, -0.4380766160269335 
0.10000000000000184, -0.43805306128545796 
0.11000000000000212, -0.4377967988079183 
0.12000000000000241, -0.4373024651789736 
0.130000000000002, -0.4365272806992496 
0.1400000000000009, -0.43538802643399765 
0.1499999999999998, -0.4337622007625875 
0.1599999999999987, -0.4315071916294507 
0.1699999999999976, -0.42851557047186767 
0.1799999999999965, -0.4248051680946765 
0.1899999999999954, -0.4205883896576161 
0.1999999999999943, -0.4162356613815275 
0.2099999999999932, -0.4121305407241045 
0.2199999999999921, -0.40853069271915476 
0.229999999999991, -0.4055290754358859 
0.2399999999999899, -0.4030985431755128 
0.2499999999999888, -0.4011557903786246 
0.2599999999999877, -0.39960721542326244 
0.2699999999999866, -0.3983720325044997 
0.2799999999999855, -0.39739041954013 
0.2899999999999844, -0.3966245400604459 
0.2999999999999833, -0.396057413607184 
0.3099999999999822, -0.3956923241949698 
0.3199999999999811, -0.3955542107454027 
0.32999999999998, -0.3956940316120414 
0.3399999999999789, -0.39619715639582254 
0.3499999999999778, -0.3971971318228856 
0.35999999999997667, -0.3988962039361879 
0.36999999999997557, -0.4015924692459675 
0.37999999999997447, -0.4057070655894819 
0.38999999999997337, -0.41178598855838705 
0.39999999999997227, -0.4204110658979815 
0.40999999999997117, -0.4319114745877738 
0.41999999999997006, -0.44584552115311044 
0.42999999999996896, -0.46062088235887816 
0.43999999999996786, -0.4739889445850653 
0.44999999999996676, -0.484339380783783 
0.45999999999996566, -0.49143064456905367 
0.46999999999996456, -0.4959417757554993 
0.47999999999996346, -0.4987201105542519 
0.48999999999996235, -0.5004137966338844 
0.49999999999996125, -0.5014339229739261 
0.5099999999999602, -0.5020217949247032 
0.519999999999959, -0.5023139867789989 
0.529999999999958, -0.5023839316068527 
0.5399999999999568, -0.5022650573639674 
0.5499999999999557, -0.5019632109820913 
0.5599999999999546, -0.5014644382236566 
0.5699999999999535, -0.5007431263946336 
0.5799999999999524, -0.49977478982576684 
0.5899999999999513, -0.4985548722638378 
0.5999999999999502, -0.49711771616990974 
0.6099999999999491, -0.49554232656101027 
0.619999999999948, -0.4939351012738822 
0.6299999999999469, -0.4923971385683184 
0.6399999999999458, -0.49099680996285394 
0.6499999999999447, -0.489761406299166 
0.6599999999999436, -0.4886856156195658 
0.6699999999999425, -0.48774674500900295 
0.6799999999999414, -0.4869185645358251 
0.6899999999999403, -0.4861804419195262 
0.6999999999999392, -0.48552196534714176 
0.7099999999999381, -0.48494493430798274 
0.719999999999937, -0.4844648771512099 
0.7299999999999359, -0.4841138113865715 
0.7399999999999348, -0.48394547262012033 
0.7499999999999337, -0.48404406312475307 
0.7599999999999326, -0.48453769780450295 
0.7699999999999315, -0.48561781721290054 
0.7799999999999304, -0.48756502346933506 
0.7899999999999293, -0.49077787865753786 
0.7999999999999282, -0.495789243678736 
0.8099999999999271, -0.5032269552529225 
0.819999999999926, -0.5136331370588288 
0.8299999999999249, -0.5270562650530038 
0.8399999999999238, -0.5425361221779369 
0.8499999999999227, -0.558042791810119 
0.8599999999999216, -0.5713778671835105 
0.8699999999999205, -0.5813721482719385 
0.8799999999999194, -0.5881456351547243 
0.8899999999999183, -0.5924740083081832 
0.8999999999999172, -0.595162691217545 
0.9099999999999161, -0.5968046636119418 
0.919999999999915, -0.5977787065338476 
0.9299999999999139, -0.5983116157194466 
0.9399999999999128, -0.5985327718573219 
0.9499999999999117, -0.5985086418189723 
0.9599999999999106, -0.5982613978933727 
0.9699999999999095, -0.5977774281592735 
0.9799999999999084, -0.5970108217103778 
0.9899999999999073, -0.5958877529505401 
0.9999999999999062, -0.5943202071747831 
1.0099999999999052, -0.5922378456685768 
1.019999999999904, -0.5896364182375701 
1.029999999999903, -0.5866173322294838 
1.039999999999902, -0.5833798076460852 
1.0499999999999008, -0.5801577378937882 
1.0599999999998997, -0.5771442062433131 
1.0699999999998986, -0.5744523463484513 
1.0799999999998975, -0.5721207126880785 
1.0899999999998964, -0.5701405098046213 
1.0999999999998953, -0.5684825895505085 
1.1099999999998942, -0.5671152048322238 
1.119999999999893, -0.5660126805875876 
1.129999999999892, -0.5651581666742584 
1.1399999999998909, -0.5645434450483073 
1.1499999999998898, -0.5641677420781683 
1.1599999999998887, -0.5640366244940307 
1.1699999999998876, -0.5641615181877129 
1.1799999999998865, -0.5645600715479634 
1.1899999999998854, -0.5652573232263285 
1.1999999999998843, -0.5662872677855163 
1.2099999999998832, -0.5676937654167622 
1.219999999999882, -0.5695286288933732 
1.229999999999881, -0.5718431380619606 
1.2399999999998799, -0.574667975316095 
1.2499999999998788, -0.577978452461565 
1.2599999999998777, -0.5816521919287083 
1.2699999999998766, -0.5854468412699696 
1.2799999999998755, -0.5890375193447122 
1.2899999999998744, -0.5921204875262223 
1.2999999999998733, -0.5945200473799337 
1.3099999999998722, -0.596219904688883 
1.319999999999871, -0.5973132696162005 
1.32999999999987, -0.5979294145857873 
1.3399999999998689, -0.5981831029474305 
1.3499999999998678, -0.5981536417619915 
1.3599999999998666, -0.5978806355989776 
1.3699999999998655, -0.5973635953535126 
1.3799999999998644, -0.5965575442098956 
1.3899999999998633, -0.5953596895997959 
1.3999999999998622, -0.5935831003175156 
1.4099999999998611, -0.5909159956148222 
1.41999999999986, -0.5868794559870839 
1.429999999999859, -0.5808390914125562 
1.4399999999998578, -0.5721922564160793 
1.4499999999998567, -0.5608179761745863 
1.4599999999998556, -0.5475352502269284 
1.4699999999998545, -0.5339706377178978 
1.4799999999998534, -0.5217474532031168 
1.4899999999998523, -0.5117778614980147 
1.4999999999998512, -0.5041982457489507 
1.5099999999998501, -0.4986951127761271 
1.519999999999849, -0.49481877736891294 
1.529999999999848, -0.4921495315264977 
1.5399999999998468, -0.4903520308282916 
1.5499999999998457, -0.48917697218841016 
1.5599999999998446, -0.48844572751305115 
1.5699999999998435, -0.4880331387342366 
1.5799999999998424, -0.48785330770514906 
1.5899999999998413, -0.48784915507598425 
1.5999999999998402, -0.4879852974417195 
1.6099999999998391, -0.4882435804533073 
1.619999999999838, -0.48862058768032124 
1.629999999999837, -0.4891262480722435 
1.6399999999998358, -0.48978215675081965 
1.6499999999998347, -0.4906175498121904 
1.6599999999998336, -0.4916605400350923 
1.6699999999998325, -0.4929231017367789 
1.6799999999998314, -0.49438161409225795 
1.6899999999998303, -0.4959612425520771 
1.6999999999998292, -0.49753848390956257 
1.709999999999828, -0.49897117808666697 
1.719999999999827, -0.5001440096737554 
1.729999999999826, -0.5009999720313378 
1.7399999999998248, -0.5015396007692263 
1.7499999999998237, -0.5017971377401432 
1.7599999999998226, -0.5018138573388323 
1.7699999999998215, -0.5016198076532505 
1.7799999999998204, -0.5012236646270254 
1.7899999999998193, -0.5006054556319848 
1.7999999999998182, -0.4997064624404485 
1.809999999999817, -0.49841087805497103 
1.819999999999816, -0.4965139745383814 
1.8299999999998149, -0.4936757024694461 
1.8399999999998138, -0.48937997274672507 
1.8499999999998127, -0.4829786630585818 
1.8599999999998116, -0.47396721726286206 
1.8699999999998105, -0.4625146015655604 
1.8799999999998094, -0.4497931990847053 
1.8899999999998083, -0.43751419298408606 
1.8999999999998072, -0.4270034066590642 
1.909999999999806, -0.41875100238055 
1.919999999999805, -0.41260958005581105 
1.9299999999998039, -0.4081704700721508 
1.9399999999998028, -0.40500845428514287 
1.9499999999998017, -0.402776023786555 
1.9599999999998006, -0.4012172342391599 
1.9699999999997995, -0.40015333726215807 
1.9799999999997984, -0.3994638692272558 
1.9899999999997973, -0.39907100464761486 
1.9999999999997962, -0.39892863477244 
2.0099999999998173, -0.3990157019821011 
2.0199999999998384, -0.39933300997043175 
2.0299999999998595, -0.3999028398161701 
2.0399999999998806, -0.40077071074024334 
2.0499999999999017, -0.4020081769099574 
2.059999999999923, -0.4037142052234988 
2.069999999999944, -0.40600983715638367 
2.079999999999965, -0.40901632519024195 
2.089999999999986, -0.4128037033056892 
2.100000000000007, -0.41730643263961553 
2.1100000000000283, -0.4222429648997766 
2.1200000000000494, -0.427129630323494 
2.1300000000000705, -0.43144842185862264 
2.1400000000000916, -0.4348673838583775 
2.1500000000001127, -0.4373281269546273 
2.160000000000134, -0.4389645709760699 
2.170000000000155, -0.4399724643507487 
2.180000000000176, -0.44052541649740207 
2.190000000000197, -0.44074641917109264 
2.2000000000002182, -0.44070812891026795 
2.2100000000002393, -0.4404405991691383 
2.2200000000002604, -0.4399374487478359 
2.2300000000002815, -0.43915923453060346 
2.2400000000003026, -0.43803754396296946 
2.2500000000003237, -0.4364876446569187 
2.260000000000345, -0.43443975097543686 
2.270000000000366, -0.4318903851811058 
2.280000000000387, -0.4289490640467812 
2.290000000000408, -0.4258340347397729 
2.3000000000004293, -0.4228002601309777 
2.3100000000004504, -0.42004855601137514 
2.3200000000004715, -0.4176795772361377 
2.3300000000004926, -0.4157044800261803 
2.3400000000005137, -0.41408169049481575 
2.3500000000005348, -0.41275105075341917 
2.360000000000556, -0.411655220461676 
2.370000000000577, -0.41074984110131585 
2.380000000000598, -0.41000698835913835 
2.390000000000619, -0.4094158396200015 
2.4000000000006403, -0.4089832350829167 
2.4100000000006614, -0.4087358552685861 
2.4200000000006825, -0.40872528844681844 
2.4300000000007036, -0.4090373060414822 
2.4400000000007247, -0.4098070507635237 
2.450000000000746, -0.41124216704653305 
2.460000000000767, -0.4136549832427228 
2.470000000000788, -0.4174993024496264 
2.480000000000809, -0.4233889887331719 
2.49000000000083, -0.4320314259968695 
2.5000000000008513, -0.44394608602083674 
2.5100000000008724, -0.45887685643766646 
2.5200000000008935, -0.47522190601286346 
2.5300000000009146, -0.49038958120155873 
2.5400000000009357, -0.5023035801352078 
2.550000000000957, -0.5104936372971329 
2.560000000000978, -0.5156916842788463 
2.570000000000999, -0.5188915646238829 
2.58000000000102, -0.5208572012897551 
2.5900000000010412, -0.5220666404882953 
2.6000000000010624, -0.5227969274283905 
2.6100000000010835, -0.5232049875721676 
2.6200000000011046, -0.5233777633243928 
2.6300000000011257, -0.5233592884801592 
2.6400000000011468, -0.5231646719679437 
2.650000000001168, -0.5227878284692353 
2.660000000001189, -0.5222078449189993 
2.67000000000121, -0.521398228952519 
2.680000000001231, -0.5203419850835493 
2.6900000000012523, -0.5190507555834826 
2.7000000000012734, -0.5175783425008001 
2.7100000000012945, -0.5160157793798021 
2.7200000000013156, -0.514465907711984 
2.7300000000013367, -0.5130125096693664 
2.740000000001358, -0.5117024629215488 
2.750000000001379, -0.5105464684333152 
2.7600000000014, -0.5095313642290669 
2.770000000001421, -0.5086346402572405 
2.780000000001442, -0.5078355879705773 
2.7900000000014633, -0.5071217558315043 
2.8000000000014844, -0.5064919311026128 
2.8100000000015055, -0.5059577174193114 
2.8200000000015266, -0.5055455315671082 
2.8300000000015477, -0.5053002535265771 
2.840000000001569, -0.5052913518603541 
2.85000000000159, -0.5056221943691731 
2.860000000001611, -0.5064432474328624 
2.870000000001632, -0.5079694629867941 
2.8800000000016532, -0.5105002080318914 
2.8900000000016743, -0.5144340935532876 
2.9000000000016954, -0.5202565841400724 
2.9100000000017165, -0.5284523720594375 
2.9200000000017377, -0.5392743515576909 
2.9300000000017588, -0.5523634322760607 
2.94000000000178, -0.566461686123825 
2.950000000001801, -0.5796987260825981 
2.960000000001822, -0.5905067556530563 
2.970000000001843, -0.5983399757243597 
2.9800000000018643, -0.6035563827629566 
2.9900000000018854, -0.6068562324440634 
3.0000000000019065, -0.6088787284981361 
3.0100000000019276, -0.6100778305846515 
3.0200000000019487, -0.6107403067780031 
3.03000000000197, -0.6110349088160408 
3.040000000001991, -0.6110519813334733 
3.050000000002012, -0.6108272775069958 
3.060000000002033, -0.6103531432448903 
3.070000000002054, -0.6095814264496731 
3.0800000000020753, -0.6084233501421511 
3.0900000000020964, -0.6067550892201109 
3.1000000000021175, -0.6044430369083416 
3.1100000000021386, -0.6014009822467179 
3.1200000000021597, -0.5976669651625781 
3.130000000002181, -0.5934460605419729 
3.140000000002202, -0.5890637642385045 
3.150000000002223, -0.5848496935776358 
3.160000000002244, -0.581037810911522 
3.1700000000022652, -0.5777386147432219 
3.1800000000022863, -0.5749676337608095 
3.1900000000023074, -0.5726889393301754 
3.2000000000023285, -0.57084865689567 
3.2100000000023496, -0.5693934694477905 
3.2200000000023707, -0.5682780475269833 
3.230000000002392, -0.5674664685014077 
3.240000000002413, -0.5669312132928169 
3.250000000002434, -0.5666517419172032 
3.260000000002455, -0.566613575168109 
3.2700000000024763, -0.5668081936081211 
3.2800000000024974, -0.5672337202306009 
3.2900000000025185, -0.5678961071949901 
3.3000000000025396, -0.5688102342720927 
3.3100000000025607, -0.569999779091577 
3.3200000000025818, -0.5714938579051008 
3.330000000002603, -0.573317540046219 
3.340000000002624, -0.5754735299117765 
3.350000000002645, -0.5779159702405765 
3.360000000002666, -0.5805268041484954 
3.3700000000026873, -0.5831165169646345 
3.3800000000027084, -0.5854673683500285 
3.3900000000027295, -0.5874047915201694 
3.4000000000027506, -0.5888493907928118 
3.4100000000027717, -0.5898160535131538 
3.420000000002793, -0.5903740962809566 
3.430000000002814, -0.5906038880223141 
3.440000000002835, -0.5905697994536098 
3.450000000002856, -0.5903087999389627 
3.460000000002877, -0.5898262982041547 
3.4700000000028983, -0.5890916521202072 
3.4800000000029194, -0.5880277836291107 
3.4900000000029405, -0.5864896256006624 
3.5000000000029616, -0.5842253424957498 
3.5100000000029827, -0.580817446879507 
3.520000000003004, -0.5756241917650011 
3.530000000003025, -0.5678146361834255 
3.540000000003046, -0.5566935275831175 
3.550000000003067, -0.5423933884134595 
3.5600000000030882, -0.526382872856946 
3.5700000000031094, -0.5109286830463833 
3.5800000000031305, -0.49783987180529277 
3.5900000000031516, -0.48779242197102757 
3.6000000000031727, -0.48057064486711204 
3.6100000000031938, -0.4755904946666131 
3.620000000003215, -0.472247514817985 
3.630000000003236, -0.4700506780763979 
3.640000000003257, -0.4686405084532468 
3.650000000003278, -0.46776677554160784 
3.6600000000032993, -0.4672598991401847 
3.6700000000033204, -0.46700707342502384 
3.6800000000033415, -0.4669349397418395 
3.6900000000033626, -0.46699790246191375 
3.7000000000033837, -0.4671707664379336 
3.710000000003405, -0.46744454286936643 
3.720000000003426, -0.4678243494755404 
3.730000000003447, -0.4683280735984125 
3.740000000003468, -0.4689839125220412 
3.750000000003489, -0.4698244226420439 
3.7600000000035103, -0.47087496078467844 
3.7700000000035314, -0.4721363028155056 
3.7800000000035525, -0.47356588147130846 
3.7900000000035736, -0.47506893867475625 
3.8000000000035947, -0.4765131581254801 
3.810000000003616, -0.4777675268836692 
3.820000000003637, -0.47874359304418 
3.830000000003658, -0.47941208397607815 
3.840000000003679, -0.479789835616359 
3.8500000000037002, -0.4799136418763867 
3.8600000000037213, -0.4798177392914302 
3.8700000000037424, -0.47951997657167694 
3.8800000000037635, -0.4790133786249465 
3.8900000000037847, -0.4782575393490661 
3.9000000000038058, -0.47716447591024613 
3.910000000003827, -0.47557406803163993 
3.920000000003848, -0.47321696828925763 
3.930000000003869, -0.4696767819786471 
3.94000000000389, -0.4644046612125129 
3.9500000000039113, -0.45690054924983964 
3.9600000000039324, -0.44712859685966927 
3.9700000000039535, -0.43589348917655 
3.9800000000039746, -0.42463174974201345 
3.9900000000039957, -0.41465199746839465 
4.000000000004016, -0.4065898731957004 
4.010000000003993, -0.4004515019067242 
4.02000000000397, -0.39592804145333294 
4.030000000003946, -0.3926463584462413 
4.040000000003923, -0.3902834516855758 
4.0500000000039, -0.38859466841634993 
4.0600000000038765, -0.3874068625407477 
4.070000000003853, -0.3866029784989521 
4.08000000000383, -0.386107988704519 
4.090000000003807, -0.3858787716234179 
4.100000000003783, -0.3858980063741809 
4.11000000000376, -0.38617159396143497 
4.120000000003737, -0.3867291654357475 
4.130000000003713, -0.3876273103719237 
4.14000000000369, -0.38895484564719857 
4.150000000003667, -0.3908381603596941 
4.1600000000036434, -0.39344138571628606 
4.17000000000362, -0.39694957810790776 
4.180000000003597, -0.40151443271442944 
4.1900000000035735, -0.4071436493958648 
4.20000000000355, -0.41355885908326584 
4.210000000003527, -0.42014413448321697 
4.220000000003504, -0.42613283630846677 
4.23000000000348, -0.43095979996445644 
4.240000000003457, -0.43446783481762524 
4.250000000003434, -0.43682333747515545 
4.26000000000341, -0.43831072235479995 
4.270000000003387, -0.4391900969299406 
4.280000000003364, -0.4396491981385139 
4.2900000000033405, -0.4398056794666033 
4.300000000003317, -0.4397226580792527 
4.310000000003294, -0.43942221021682293 
4.320000000003271, -0.43889406949716286 
4.330000000003247, -0.4381020771821734 
4.340000000003224, -0.43699378527208543 
4.350000000003201, -0.4355200549441774 
4.360000000003177, -0.43366765110281225 
4.370000000003154, -0.43149377546054846 
4.380000000003131, -0.4291352179658299 
4.390000000003107, -0.4267726873735964 
4.400000000003084, -0.4245690484106269 
4.410000000003061, -0.42262428450990785 
4.4200000000030375, -0.42096889625124667 
4.430000000003014, -0.4195840996184169 
4.440000000002991, -0.4184277980518506 
4.450000000002968, -0.41745439366539366 
4.460000000002944, -0.4166261632106373 
4.470000000002921, -0.41591827458587227 
4.480000000002898, -0.41532043754384207 
4.490000000002874, -0.4148378157430854 
4.500000000002851, -0.41449317525368656 
4.510000000002828, -0.41433179468365733 
4.520000000002804, -0.414430656574579 
4.530000000002781, -0.41491388592562045 
4.540000000002758, -0.41597701380047913 
4.5500000000027345, -0.4179224159729925 
4.560000000002711, -0.4212040588031825 
4.570000000002688, -0.4264630487281328 
4.580000000002665, -0.4344902231150969 
4.590000000002641, -0.445972803235725 
4.600000000002618, -0.46087317362472346 
4.610000000002595, -0.4776839925334092 
4.620000000002571, -0.4935930598771948 
4.630000000002548, -0.5061373935030044 
4.640000000002525, -0.5146658786397379 
4.6500000000025015, -0.5199907411412176 
4.660000000002478, -0.523241101577246 
4.670000000002455, -0.5252542848228687 
4.6800000000024315, -0.526527245889275 
4.690000000002408, -0.5273346484630852 
4.700000000002385, -0.5278284377802305 
4.710000000002362, -0.5280939051141414 
4.720000000002338, -0.5281774660301565 
4.730000000002315, -0.5281000317126417 
4.740000000002292, -0.5278638403717705 
4.750000000002268, -0.527457280480226 
4.760000000002245, -0.5268611145908567 
4.770000000002222, -0.5260588134967679 
4.7800000000021985, -0.5250511851055892 
4.790000000002175, -0.5238699849037567 
4.800000000002152, -0.5225804492330537 
4.810000000002129, -0.5212666113605777 
4.820000000002105, -0.520006181959179 
4.830000000002082, -0.5188502517392276 
4.840000000002059, -0.5178175424701774 
4.850000000002035, -0.5169015235446413 
4.860000000002012, -0.5160829398173574 
4.870000000001989, -0.5153413270942289 
4.880000000001965, -0.5146625886284911 
4.890000000001942, -0.5140427574264356 
