t, s[1].omega / s[0].omega 
0, -1.1099977580109663 
0.009999999999999995, -1.109655230613251 
0.019999999999999934, -1.1090787771934638 
0.029999999999999874, -1.1082767581151838 
0.04000000000000012, -1.107280826610411 
0.050000000000000405, -1.1061574831670598 
0.06000000000000069, -1.1050074543778856 
0.07000000000000098, -1.1039498528151017 
0.08000000000000126, -1.1030993948257573 
0.09000000000000155, -1.1025447930853982 
0.10000000000000184, -1.1023158346658897 
0.11000000000000212, -1.102347159279982 
0.12000000000000241, -1.1024897882003517 
0.130000000000002, -1.1025721575573892 
0.1400000000000009, -1.1024473842663611 
0.1499999999999998, -1.1020033663835553 
0.1599999999999987, -1.1011655927065964 
0.1699999999999976, -1.0999088409777582 
0.1799999999999965, -1.0982593510830194 
0.1899999999999954, -1.0962735409652486 
0.1999999999999943, -1.094012901639435 
0.2099999999999932, -1.091540767919503 
0.2199999999999921, -1.0889417308793892 
0.229999999999991, -1.0863491442330429 
0.2399999999999899, -1.0839655303196387 
0.2499999999999888, -1.0820445946602915 
0.2599999999999877, -1.0807882286746444 
0.2699999999999866, -1.0801987845661185 
0.2799999999999855, -1.0800542656749752 
0.2899999999999844, -1.080050745576956 
0.2999999999999833, -1.079933208060772 
0.3099999999999822, -1.0795049811588973 
0.3199999999999811, -1.0785761609029667 
0.32999999999998, -1.0769386722427123 
0.3399999999999789, -1.0744107379023362 
0.3499999999999778, -1.0709266942260136 
0.35999999999997667, -1.0665810751587725 
0.36999999999997557, -1.0615765264674788 
0.37999999999997447, -1.0561484312388518 
0.38999999999997337, -1.050556676994614 
0.39999999999997227, -1.045145051598087 
0.40999999999997117, -1.0403874425340756 
0.41999999999997006, -1.0367935760466491 
0.42999999999996896, -1.034630104304323 
0.43999999999996786, -1.0337028731230609 
0.44999999999996676, -1.0334991644364269 
0.45999999999996566, -1.0335200784625123 
0.46999999999996456, -1.0334371640376536 
0.47999999999996346, -1.033037397122131 
0.48999999999996235, -1.0321095056935106 
0.49999999999996125, -1.0303667617785346 
0.5099999999999602, -1.0274557429568016 
0.519999999999959, -1.0230896267036131 
0.529999999999958, -1.017242296059445 
0.5399999999999568, -1.0102087893655607 
0.5499999999999557, -1.0024649421583158 
0.5599999999999546, -0.9945124891284923 
0.5699999999999535, -0.9868580448723924 
0.5799999999999524, -0.9800627853177111 
0.5899999999999513, -0.9747005859743973 
0.5999999999999502, -0.9711350590444658 
0.6099999999999491, -0.9692729306097586 
0.619999999999948, -0.9686017942666814 
0.6299999999999469, -0.9685086507703318 
0.6399999999999458, -0.9685381183352738 
0.6499999999999447, -0.9684205822054887 
0.6599999999999436, -0.967976199871042 
0.6699999999999425, -0.967019974184492 
0.6799999999999414, -0.9653221975661828 
0.6899999999999403, -0.9626550609805554 
0.6999999999999392, -0.9589224713115576 
0.7099999999999381, -0.9542662471133906 
0.719999999999937, -0.949016446126014 
0.7299999999999359, -0.9435349279367721 
0.7399999999999348, -0.9381178299501 
0.7499999999999337, -0.9330069493769335 
0.7599999999999326, -0.9284412865515617 
0.7699999999999315, -0.9246726300258379 
0.7799999999999304, -0.921906419653689 
0.7899999999999293, -0.9201919838275893 
0.7999999999999282, -0.9193619827799984 
0.8099999999999271, -0.9191010392609719 
0.819999999999926, -0.9190846668829957 
0.8299999999999249, -0.9190661349148741 
0.8399999999999238, -0.9188769822413417 
0.8499999999999227, -0.9183913335106443 
0.8599999999999216, -0.9175077779889843 
0.8699999999999205, -0.916169866664123 
0.8799999999999194, -0.9144034361190758 
0.8899999999999183, -0.9123185519085087 
0.8999999999999172, -0.9100576334317001 
0.9099999999999161, -0.9077381394635893 
0.919999999999915, -0.905437307361101 
0.9299999999999139, -0.9032132078776277 
0.9399999999999128, -0.9011311216965338 
0.9499999999999117, -0.8992749699333163 
0.9599999999999106, -0.8977396199526169 
0.9699999999999095, -0.8966072762975961 
0.9799999999999084, -0.8959146207097124 
0.9899999999999073, -0.8956263028961778 
0.9999999999999062, -0.8956367289007897 
1.0099999999999052, -0.8958043531039369 
1.019999999999904, -0.8959939418156835 
1.029999999999903, -0.8961020772862153 
1.039999999999902, -0.896065465957835 
1.0499999999999008, -0.895862794894039 
1.0599999999998997, -0.8955100990526081 
1.0699999999998986, -0.8950422128224413 
1.0799999999998975, -0.8944863785183987 
1.0899999999998964, -0.8938483475863042 
1.0999999999998953, -0.8931218596932369 
1.1099999999998942, -0.8923113029424311 
1.119999999999893, -0.8914501717307008 
1.129999999999892, -0.890607048212908 
1.1399999999998909, -0.8898785932483146 
1.1499999999998898, -0.8893693228543924 
1.1599999999998887, -0.8891625222074053 
1.1699999999998876, -0.8892960096381786 
1.1799999999998865, -0.8897549753354212 
1.1899999999998854, -0.890481726668513 
1.1999999999998843, -0.8913953244382942 
1.2099999999998832, -0.8924143500111391 
1.219999999999882, -0.8934752152772937 
1.229999999999881, -0.8945380934603557 
1.2399999999998799, -0.8955762893816653 
1.2499999999998788, -0.896553244388418 
1.2599999999998777, -0.8974037331668967 
1.2699999999998766, -0.8980413302418017 
1.2799999999998755, -0.8983951781367925 
1.2899999999998744, -0.8984459821338792 
1.2999999999998733, -0.8982319060264521 
1.3099999999998722, -0.8978345799068889 
1.319999999999871, -0.8973744756455982 
1.32999999999987, -0.8970225021161348 
1.3399999999998689, -0.8970025346741888 
1.3499999999998678, -0.8975502271137461 
1.3599999999998666, -0.8988308599142217 
1.3699999999998655, -0.9008766651526953 
1.3799999999998644, -0.903597345073408 
1.3899999999998633, -0.9068435319592629 
1.3999999999998622, -0.9104633576577938 
1.4099999999998611, -0.9143169772050541 
1.41999999999986, -0.918248499453373 
1.429999999999859, -0.9220399211259626 
1.4399999999998578, -0.9254011718988391 
1.4499999999998567, -0.9280510402917819 
1.4599999999998556, -0.9298504545018843 
1.4699999999998545, -0.9308535370195142 
1.4799999999998534, -0.9312306455394735 
1.4899999999998523, -0.9311658015145813 
1.4999999999998512, -0.9308190826705647 
1.5099999999998501, -0.9303632402514525 
1.519999999999849, -0.9300716479815597 
1.529999999999848, -0.9304090681075332 
1.5399999999998468, -0.93201366458397 
1.5499999999998457, -0.9354687190922205 
1.5599999999998446, -0.9409880163851434 
1.5699999999998435, -0.9483169546346157 
1.5799999999998424, -0.9569100356722575 
1.5899999999998413, -0.9661356455181674 
1.5999999999998402, -0.9753278104222209 
1.6099999999998391, -0.983753414887672 
1.619999999999838, -0.9906936638928234 
1.629999999999837, -0.9957127967434389 
1.6399999999998358, -0.9988612479303665 
1.6499999999998347, -1.0005504027502703 
1.6599999999998336, -1.001255902999177 
1.6699999999998325, -1.0013376435881 
1.6799999999998314, -1.0010286903969774 
1.6899999999998303, -1.0005206079643825 
1.6999999999998292, -1.0001070667393888 
1.709999999999828, -1.000348813937669 
1.719999999999827, -1.0020927766868566 
1.729999999999826, -1.0061136077742328 
1.7399999999998248, -1.0125650830788784 
1.7499999999998237, -1.020863142819567 
1.7599999999998226, -1.0300936979173114 
1.7699999999998215, -1.0393994647371394 
1.7799999999998204, -1.0480646936772655 
1.7899999999998193, -1.0554723874334477 
1.7999999999998182, -1.0611667904289364 
1.809999999999817, -1.065020381436015 
1.819999999999816, -1.0672759869172572 
1.8299999999998149, -1.0683646694174136 
1.8399999999998138, -1.068688472255456 
1.8499999999998127, -1.068535798671784 
1.8599999999998116, -1.0681226266944264 
1.8699999999998105, -1.0677002226124448 
1.8799999999998094, -1.0676632476554784 
1.8899999999998083, -1.0685207919605955 
1.8999999999998072, -1.0706256632379998 
1.909999999999806, -1.0739005895580982 
1.919999999999805, -1.0779176463517526 
1.9299999999998039, -1.0822003668809572 
1.9399999999998028, -1.0864010328844957 
1.9499999999998017, -1.0902958674770327 
1.9599999999998006, -1.093717392083494 
1.9699999999997995, -1.0965138815906592 
1.9799999999997984, -1.0985697974038457 
1.9899999999997973, -1.099861212035307 
1.9999999999997962, -1.1004750651220725 
2.0099999999998173, -1.1005652869630533 
2.0199999999998384, -1.10030007938733 
2.0299999999998595, -1.0998543372273863 
2.0399999999998806, -1.0994387124563003 
2.0499999999999017, -1.0993005147898516 
2.059999999999923, -1.0996374328626612 
2.069999999999944, -1.1004857308523854 
2.079999999999965, -1.101720037946669 
2.089999999999986, -1.1031542290965584 
2.100000000000007, -1.1046220682810222 
2.1100000000000283, -1.1060012536801014 
2.1200000000000494, -1.1072120228069657 
2.1300000000000705, -1.1082063612999966 
2.1400000000000916, -1.1089509599949756 
2.1500000000001127, -1.1094140764055005 
2.160000000000134, -1.1095686570724537 
2.170000000000155, -1.1094098513460862 
2.180000000000176, -1.1089702163149342 
2.190000000000197, -1.108323529249737 
2.2000000000002182, -1.1075824708555682 
2.2100000000002393, -1.1068866772435284 
2.2200000000002604, -1.106367963722547 
2.2300000000002815, -1.1061077120610419 
2.2400000000003026, -1.1061220092564157 
2.2500000000003237, -1.1063692849861564 
2.260000000000345, -1.106756732045539 
2.270000000000366, -1.1071582107478253 
2.280000000000387, -1.1074497622120996 
2.290000000000408, -1.1075378203122437 
2.3000000000004293, -1.10736860735088 
2.3100000000004504, -1.1069259019217623 
2.3200000000004715, -1.1062198196907618 
2.3300000000004926, -1.1052700476002666 
2.3400000000005137, -1.104096615001381 
2.3500000000005348, -1.102726651074798 
2.360000000000556, -1.1012100718029698 
2.370000000000577, -1.0996308461392386 
2.380000000000598, -1.0981069240139156 
2.390000000000619, -1.0967809364655061 
2.4000000000006403, -1.0957961702593637 
2.4100000000006614, -1.0952370221441636 
2.4200000000006825, -1.0950580723400514 
2.4300000000007036, -1.0950879555324655 
2.4400000000007247, -1.0951151700312387 
2.450000000000746, -1.0949560620885674 
2.460000000000767, -1.094460453006541 
2.470000000000788, -1.0935004472674703 
2.480000000000809, -1.0919863111109027 
2.49000000000083, -1.0898996173917526 
2.5000000000008513, -1.0872987233326656 
2.5100000000008724, -1.0842832639149538 
2.5200000000008935, -1.08095888087173 
2.5300000000009146, -1.0774394198378483 
2.5400000000009357, -1.0738834732218752 
2.550000000000957, -1.0705381587453977 
2.560000000000978, -1.067739162210404 
2.570000000000999, -1.0657941593358475 
2.58000000000102, -1.0647757211633588 
2.5900000000010412, -1.0644440050965023 
2.6000000000010624, -1.0644162717050374 
2.6100000000010835, -1.0643670556254252 
2.6200000000011046, -1.064068419142551 
2.6300000000011257, -1.0633211780697718 
2.6400000000011468, -1.0618879932269898 
2.650000000001168, -1.059494909516477 
2.660000000001189, -1.0559273714863242 
2.67000000000121, -1.0511612009030726 
2.680000000001231, -1.0453937927813306 
2.6900000000012523, -1.0389468785335723 
2.7000000000012734, -1.0321748016770729 
2.7100000000012945, -1.025475472953847 
2.7200000000013156, -1.0193550533718176 
2.7300000000013367, -1.0144045000213624 
2.740000000001358, -1.0110698007825312 
2.750000000001379, -1.0093453841408242 
2.7600000000014, -1.0087590979715513 
2.770000000001421, -1.0087039127059543 
2.780000000001442, -1.0087268054134093 
2.7900000000014633, -1.0085595822562996 
2.8000000000014844, -1.0080105303113691 
2.8100000000015055, -1.0068570131421863 
2.8200000000015266, -1.0047970942580717 
2.8300000000015477, -1.0015028298678812 
2.840000000001569, -0.9967893924655519 
2.85000000000159, -0.990777266451286 
2.860000000001611, -0.9838618658789515 
2.870000000001632, -0.9765287355627378 
2.8800000000016532, -0.9692294737841602 
2.8900000000016743, -0.9623937210214065 
2.9000000000016954, -0.9564761265801072 
2.9100000000017165, -0.951908617172876 
2.9200000000017377, -0.9489203516283365 
2.9300000000017588, -0.9473712564866841 
2.94000000000178, -0.946811099395532 
2.950000000001801, -0.9467283219511783 
2.960000000001822, -0.9467393070457779 
2.970000000001843, -0.9466062920861164 
2.9800000000018643, -0.9461640745762211 
2.9900000000018854, -0.9452519524562193 
3.0000000000019065, -0.9436987987585642 
3.0100000000019276, -0.9413788619898585 
3.0200000000019487, -0.9383039837706448 
3.03000000000197, -0.9346527375791547 
3.040000000001991, -0.9306866584205855 
3.050000000002012, -0.9266413285099847 
3.060000000002033, -0.9226891654504832 
3.070000000002054, -0.9189680383414206 
3.0800000000020753, -0.9156210913818476 
3.0900000000020964, -0.9128088858175132 
3.1000000000021175, -0.9106775447775983 
3.1100000000021386, -0.9092912653398814 
3.1200000000021597, -0.908576810974927 
3.130000000002181, -0.9083384171521001 
3.140000000002202, -0.9083375823402563 
3.150000000002223, -0.9083674961364769 
3.160000000002244, -0.9082765447970769 
3.1700000000022652, -0.907957893381228 
3.1800000000022863, -0.9073425957084833 
3.1900000000023074, -0.9064113529642467 
3.2000000000023285, -0.9052057232578987 
3.2100000000023496, -0.90380993158654 
3.2200000000023707, -0.9023090255776255 
3.230000000002392, -0.9007604258538601 
3.240000000002413, -0.8991981322736919 
3.250000000002434, -0.8976556294309105 
3.260000000002455, -0.8961850726169632 
3.2700000000024763, -0.8948609882469525 
3.2800000000024974, -0.8937683734683947 
3.2900000000025185, -0.892981464461636 
3.3000000000025396, -0.8925408603435393 
3.3100000000025607, -0.8924360995706201 
3.3200000000025818, -0.8926024284038724 
3.330000000002603, -0.8929380260304673 
3.340000000002624, -0.8933344377962876 
3.350000000002645, -0.8937034799444391 
3.360000000002666, -0.8939912229855823 
3.3700000000026873, -0.894179344801751 
3.3800000000027084, -0.8942740347185898 
3.3900000000027295, -0.8942841033276219 
3.4000000000027506, -0.8942008033103191 
3.4100000000027717, -0.8939964812780873 
3.420000000002793, -0.8936446224005445 
3.430000000002814, -0.8931446003559402 
3.440000000002835, -0.8925348559158798 
3.450000000002856, -0.8918946606720457 
3.460000000002877, -0.8913396607655256 
3.4700000000028983, -0.8910060091436576 
3.4800000000029194, -0.8910165977729682 
3.4900000000029405, -0.8914419123957057 
3.5000000000029616, -0.8922817750574902 
3.5100000000029827, -0.8934780727733652 
3.520000000003004, -0.8949441241287553 
3.530000000003025, -0.8965926448590735 
3.540000000003046, -0.8983525327139673 
3.550000000003067, -0.9001689603355312 
3.5600000000030882, -0.901984798888795 
3.5700000000031094, -0.9037126680667954 
3.5800000000031305, -0.905223932125209 
3.5900000000031516, -0.906381501292704 
3.6000000000031727, -0.9071023569575661 
3.6100000000031938, -0.9073922775385798 
3.620000000003215, -0.9073260032711847 
3.630000000003236, -0.9070116859596248 
3.640000000003257, -0.9065848233965459 
3.650000000003278, -0.9062376439442243 
3.6600000000032993, -0.9062516183415501 
3.6700000000033204, -0.9069751849370183 
3.6800000000033415, -0.908712947010122 
3.6900000000033626, -0.91159144449911 
3.7000000000033837, -0.9155222396476187 
3.710000000003405, -0.9202826649744182 
3.720000000003426, -0.925615915631245 
3.730000000003447, -0.9312648161571108 
3.740000000003468, -0.9369332374526109 
3.750000000003489, -0.9422342527524747 
3.7600000000035103, -0.946724656673178 
3.7700000000035314, -0.9500726322161491 
3.7800000000035525, -0.9522218955273312 
3.7900000000035736, -0.9533670567904259 
3.8000000000035947, -0.9537881000688128 
3.810000000003616, -0.9537241412970248 
3.820000000003637, -0.953355199634558 
3.830000000003658, -0.952866617490539 
3.840000000003679, -0.9525689331729804 
3.8500000000037002, -0.9530233416319078 
3.8600000000037213, -0.9550232943337834 
3.8700000000037424, -0.9592788272193051 
3.8800000000037635, -0.9659822680035891 
3.8900000000037847, -0.9747002646270088 
3.9000000000038058, -0.9846524784453512 
3.910000000003827, -0.9949969434872468 
3.920000000003848, -1.0049032507272513 
3.930000000003869, -1.0135506836394077 
3.94000000000389, -1.020278158111803 
3.9500000000039113, -1.0248566203270535 
3.9600000000039324, -1.0275583503176262 
3.9700000000039535, -1.0289052544883517 
3.9800000000039746, -1.029378734659568 
3.9900000000039957, -1.0293085958320647 
4.000000000004016, -1.0289126207437505 
4.010000000003993, -1.0284118516072012 
4.02000000000397, -1.0281873582622176 
4.030000000003946, -1.028886556217748 
4.040000000003923, -1.0312564825795905 
4.0500000000039, -1.0356634750494516 
4.0600000000038765, -1.0417955047093868 
4.070000000003853, -1.0489172332391625 
4.08000000000383, -1.0562958312090798 
4.090000000003807, -1.0633702095878435 
4.100000000003783, -1.0697013474782695 
4.11000000000376, -1.0749186930909447 
4.120000000003737, -1.0787800784823809 
4.130000000003713, -1.0812793073635594 
4.14000000000369, -1.0826398764659237 
4.150000000003667, -1.0831772226410323 
4.1600000000036434, -1.0831716405117895 
4.17000000000362, -1.0828421774171046 
4.180000000003597, -1.082405455495064 
4.1900000000035735, -1.0821592650739402 
4.20000000000355, -1.082486169945151 
4.210000000003527, -1.0836841678012228 
4.220000000003504, -1.0857561191337421 
4.23000000000348, -1.0884268411656477 
4.240000000003457, -1.0913511690543112 
4.250000000003434, -1.0942636308959377 
4.26000000000341, -1.0969973679171736 
4.270000000003387, -1.0994442629010757 
4.280000000003364, -1.1015140998620672 
4.2900000000033405, -1.1031197692289465 
4.300000000003317, -1.1041987569730634 
4.310000000003294, -1.1047487936749023 
4.320000000003271, -1.104836498068591 
4.330000000003247, -1.1045740726332447 
4.340000000003224, -1.1041004635339589 
4.350000000003201, -1.1035859888088602 
4.360000000003177, -1.1032285256085352 
4.370000000003154, -1.1031970388843322 
4.380000000003131, -1.1035525457416122 
4.390000000003107, -1.104235771335725 
4.400000000003084, -1.1051245408740868 
4.410000000003061, -1.1060861224260798 
4.4200000000030375, -1.1070015045218486 
4.430000000003014, -1.1077799362694252 
4.440000000002991, -1.1083656529754726 
4.450000000002968, -1.1087315629002137 
4.460000000002944, -1.1088641617257775 
4.470000000002921, -1.1087515548694686 
4.480000000002898, -1.1083853903644265 
4.490000000002874, -1.1077750922466731 
4.500000000002851, -1.1069623795220658 
4.510000000002828, -1.1060276961755633 
4.520000000002804, -1.1050842976600188 
4.530000000002781, -1.1042552453941623 
4.540000000002758, -1.1036425895445643 
4.5500000000027345, -1.1033073909533602 
4.560000000002711, -1.1032539319796861 
4.570000000002688, -1.1034116025679783 
4.580000000002665, -1.1036460917391022 
4.590000000002641, -1.103806900092319 
4.600000000002618, -1.103767785009628 
4.610000000002595, -1.10344011210552 
4.620000000002571, -1.1027767939180142 
4.630000000002548, -1.101774311557829 
4.640000000002525, -1.1004620975070223 
4.6500000000025015, -1.0988812858676897 
4.660000000002478, -1.0970728727842722 
4.670000000002455, -1.0950858064338034 
4.6800000000024315, -1.0929957193397002 
4.690000000002408, -1.0909212562189283 
4.700000000002385, -1.0890312073691808 
4.710000000002362, -1.0875258715929395 
4.720000000002338, -1.0865592566044187 
4.730000000002315, -1.086126988374751 
4.740000000002292, -1.086044283029256 
4.750000000002268, -1.0860539758346117 
4.760000000002245, -1.0859312159010508 
4.770000000002222, -1.085495962116505 
4.7800000000021985, -1.084580389246369 
4.790000000002175, -1.083023748009411 
4.800000000002152, -1.0807187408357044 
4.810000000002129, -1.0776674037482032 
4.820000000002105, -1.0739792065738472 
4.830000000002082, -1.0698134953772118 
4.840000000002059, -1.0653382693336282 
4.850000000002035, -1.060748599085138 
4.860000000002012, -1.0563244428858705 
4.870000000001989, -1.0524631346228752 
4.880000000001965, -1.049587137966801 
4.890000000001942, -1.0479006981944896 
4.900000000001919, -1.0472158865235766 
4.9100000000018955, -1.047088326183331 
4.920000000001872, -1.0470947538407527 
4.930000000001849, -1.046949899021655 
