t, s[1].omega / s[0].omega 
0, -0.959997575183101 
0.009999999999999995, -0.9596934184760271 
0.019999999999999934, -0.9592690398549483 
0.029999999999999874, -0.9587310706589675 
0.04000000000000012, -0.9580932195352656 
0.050000000000000405, -0.9573785957539632 
0.06000000000000069, -0.9566211683816876 
0.07000000000000098, -0.9558660203643548 
0.08000000000000126, -0.9551674678261588 
0.09000000000000155, -0.9545835552563748 
0.10000000000000184, -0.9541665643686945 
0.11000000000000212, -0.9539518980758311 
0.12000000000000241, -0.9539497072740908 
0.130000000000002, -0.9541428606758495 
0.1400000000000009, -0.9544918870165731 
0.1499999999999998, -0.9549445116292284 
0.1599999999999987, -0.9554459491822609 
0.1699999999999976, -0.9559466647519113 
0.1799999999999965, -0.9564062176867021 
0.1899999999999954, -0.9567936069611338 
0.1999999999999943, -0.9570853832008022 
0.2099999999999932, -0.957263096224658 
0.2199999999999921, -0.9573118616649554 
0.229999999999991, -0.9572213386725217 
0.2399999999999899, -0.9569886990054565 
0.2499999999999888, -0.956621550102334 
0.2599999999999877, -0.956139168550382 
0.2699999999999866, -0.9555723819123015 
0.2799999999999855, -0.9549634913197875 
0.2899999999999844, -0.9543664033403999 
0.2999999999999833, -0.9538448788536907 
0.3099999999999822, -0.9534659897911577 
0.3199999999999811, -0.9532882080458585 
0.32999999999998, -0.9533479603844505 
0.3399999999999789, -0.9536509751569134 
0.3499999999999778, -0.9541724616148753 
0.35999999999997667, -0.9548651459950452 
0.36999999999997557, -0.955670731329174 
0.37999999999997447, -0.9565301318284043 
0.38999999999997337, -0.9573896921099386 
0.39999999999997227, -0.95820292190106 
0.40999999999997117, -0.9589291623356786 
0.41999999999997006, -0.9595317800821672 
0.42999999999996896, -0.9599786150338916 
0.43999999999996786, -0.9602457772240187 
0.44999999999996676, -0.9603228593040856 
0.45999999999996566, -0.9602158632388684 
0.46999999999996456, -0.959945990192967 
0.47999999999996346, -0.9595462069533026 
0.48999999999996235, -0.9590591806944284 
0.49999999999996125, -0.9585383802976237 
0.5099999999999602, -0.9580506290352439 
0.519999999999959, -0.9576754816300485 
0.529999999999958, -0.9574966924813134 
0.5399999999999568, -0.957585436402875 
0.5499999999999557, -0.95798194165439 
0.5599999999999546, -0.9586853136037691 
0.5699999999999535, -0.9596564427516732 
0.5799999999999524, -0.9608305710507702 
0.5899999999999513, -0.9621318866639159 
0.5999999999999502, -0.9634841229513015 
0.6099999999999491, -0.9648152263593172 
0.619999999999948, -0.9660578140117261 
0.6299999999999469, -0.9671492995416179 
0.6399999999999458, -0.9680354453914111 
0.6499999999999447, -0.9686779364658588 
0.6599999999999436, -0.9690618869225682 
0.6699999999999425, -0.9691976127974019 
0.6799999999999414, -0.9691151623140772 
0.6899999999999403, -0.9688559239168162 
0.6999999999999392, -0.9684673038360238 
0.7099999999999381, -0.9680035626378627 
0.719999999999937, -0.967531655665842 
0.7299999999999359, -0.9671371794969919 
0.7399999999999348, -0.9669230434302417 
0.7499999999999337, -0.9669948966833528 
0.7599999999999326, -0.9674353527261331 
0.7699999999999315, -0.9682794136919923 
0.7799999999999304, -0.9695051976592302 
0.7899999999999293, -0.971043426123984 
0.7999999999999282, -0.9727969123084861 
0.8099999999999271, -0.9746585061666035 
0.819999999999926, -0.9765216160630514 
0.8299999999999249, -0.9782845376533069 
0.8399999999999238, -0.9798539458782594 
0.8499999999999227, -0.981152452957725 
0.8599999999999216, -0.982129981169949 
0.8699999999999205, -0.9827723866147737 
0.8799999999999194, -0.9831001839596738 
0.8899999999999183, -0.9831573498260486 
0.8999999999999172, -0.9829975947645153 
0.9099999999999161, -0.982676060084002 
0.919999999999915, -0.9822498080666952 
0.9299999999999139, -0.9817857994626105 
0.9399999999999128, -0.981371555349224 
0.9499999999999117, -0.9811202784678168 
0.9599999999999106, -0.9811607862337761 
0.9699999999999095, -0.9816088966733906 
0.9799999999999084, -0.9825314667063797 
0.9899999999999073, -0.9839240498723643 
0.9999999999999062, -0.985714568408949 
1.0099999999999052, -0.9877862405387076 
1.019999999999904, -0.990003302467693 
1.029999999999903, -0.9922285124239641 
1.039999999999902, -0.9943321514149993 
1.0499999999999008, -0.9961988583465284 
1.0599999999998997, -0.9977380275695038 
1.0699999999998986, -0.9988967419004906 
1.0799999999998975, -0.9996671788855727 
1.0899999999998964, -1.00008134576652 
1.0999999999998953, -1.0001952282449644 
1.1099999999998942, -1.000071973876735 
1.119999999999893, -0.999772681102937 
1.129999999999892, -0.9993575449193344 
1.1399999999998909, -0.9988953805982437 
1.1499999999998898, -0.9984763506785823 
1.1599999999998887, -0.9982190061193883 
1.1699999999998876, -0.9982604793209784 
1.1799999999998865, -0.9987250695576011 
1.1899999999998854, -0.9996834906171224 
1.1999999999998843, -1.0011274865974085 
1.2099999999998832, -1.0029747931964366 
1.219999999999882, -1.0050963014688037 
1.229999999999881, -1.0073458052022704 
1.2399999999998799, -1.0095797083812568 
1.2499999999998788, -1.01166670744129 
1.2599999999998777, -1.013494480656862 
1.2699999999998766, -1.014979190387324 
1.2799999999998755, -1.0160765090613604 
1.2899999999998744, -1.0167864747463535 
1.2999999999998733, -1.0171462758393839 
1.3099999999998722, -1.0172140839700679 
1.319999999999871, -1.0170534191016734 
1.32999999999987, -1.016725721328529 
1.3399999999998689, -1.016293060634934 
1.3499999999998678, -1.0158282937311571 
1.3599999999998666, -1.0154264022738397 
1.3699999999998655, -1.0152070090475296 
1.3799999999998644, -1.0152979607502215 
1.3899999999998633, -1.0158003533250821 
1.3999999999998622, -1.0167529463644072 
1.4099999999998611, -1.0181191920226653 
1.41999999999986, -1.0198030154907634 
1.429999999999859, -1.0216786920531216 
1.4399999999998578, -1.0236166159658233 
1.4499999999998567, -1.0254972800495337 
1.4599999999998556, -1.0272163542459607 
1.4699999999998545, -1.0286878006664983 
1.4799999999998534, -1.0298497884945705 
1.4899999999998523, -1.0306722035093348 
1.4999999999998512, -1.0311596923317192 
1.5099999999998501, -1.0313458173424128 
1.519999999999849, -1.031280911235204 
1.529999999999848, -1.0310210537781217 
1.5399999999998468, -1.0306240972342893 
1.5499999999998457, -1.030153777065665 
1.5599999999998446, -1.029688186966912 
1.5699999999998435, -1.02932486096636 
1.5799999999998424, -1.029172982303481 
1.5899999999998413, -1.0293289552191334 
1.5999999999998402, -1.0298455414413545 
1.6099999999998391, -1.0307141428316684 
1.619999999999838, -1.0318711094542186 
1.629999999999837, -1.0332206995437365 
1.6399999999998358, -1.0346592462602222 
1.6499999999998347, -1.0360906934777323 
1.6599999999998336, -1.0374324953089102 
1.6699999999998325, -1.038615973248536 
1.6799999999998314, -1.039586260104093 
1.6899999999998303, -1.0403049685888524 
1.6999999999998292, -1.0407547225672358 
1.709999999999828, -1.0409414709921547 
1.719999999999827, -1.0408915069342948 
1.729999999999826, -1.0406447437347093 
1.7399999999998248, -1.0402491304227626 
1.7499999999998237, -1.0397599561289237 
1.7599999999998226, -1.0392435789554542 
1.7699999999998215, -1.0387805309155902 
1.7799999999998204, -1.0384605759183416 
1.7899999999998193, -1.0383656886373402 
1.7999999999998182, -1.0385468145301509 
1.809999999999817, -1.0390082303259396 
1.819999999999816, -1.039709015496461 
1.8299999999998149, -1.0405785574283786 
1.8399999999998138, -1.0415357517540078 
1.8499999999998127, -1.0425037035974076 
1.8599999999998116, -1.0434171741889584 
1.8699999999998105, -1.0442239562667166 
1.8799999999998094, -1.0448831778313625 
1.8899999999998083, -1.045363752931551 
1.8999999999998072, -1.0456450067680083 
1.909999999999806, -1.0457191602465474 
1.919999999999805, -1.0455933288640045 
1.9299999999998039, -1.0452890743580507 
1.9399999999998028, -1.0448401871453517 
1.9499999999998017, -1.0442912436338023 
1.9599999999998006, -1.0436982409752036 
1.9699999999997995, -1.043129115841256 
1.9799999999997984, -1.0426593002643068 
1.9899999999997973, -1.0423591288516354 
1.9999999999997962, -1.0422764428273934 
2.0099999999998173, -1.042423458270085 
2.0199999999998384, -1.0427750449007351 
2.0299999999998595, -1.0432779739966165 
2.0399999999998806, -1.043865356738349 
2.0499999999999017, -1.0444702177248621 
2.059999999999923, -1.0450345038687596 
2.069999999999944, -1.045512711913667 
2.079999999999965, -1.0458715147621125 
2.089999999999986, -1.0460875642203784 
2.100000000000007, -1.046145437731016 
2.1100000000000283, -1.04603705856943 
2.1200000000000494, -1.045762798492326 
2.1300000000000705, -1.0453332351672615 
2.1400000000000916, -1.0447703804413935 
2.1500000000001127, -1.0441082780076592 
2.160000000000134, -1.043393453081251 
2.170000000000155, -1.0426844350259459 
2.180000000000176, -1.0420477082250925 
2.190000000000197, -1.0415478902532984 
2.2000000000002182, -1.041233797662685 
2.2100000000002393, -1.0411261104351974 
2.2200000000002604, -1.0412122860830186 
2.2300000000002815, -1.0414505888678225 
2.2400000000003026, -1.0417810946888504 
2.2500000000003237, -1.0421390142703397 
2.260000000000345, -1.0424653992765558 
2.270000000000366, -1.042712759106439 
2.280000000000387, -1.0428463626637756 
2.290000000000408, -1.0428433037706224 
2.3000000000004293, -1.0426907320579848 
2.3100000000004504, -1.0423839225604112 
2.3200000000004715, -1.0419249497444978 
2.3300000000004926, -1.0413227311046127 
2.3400000000005137, -1.0405944487265406 
2.3500000000005348, -1.0397675995468412 
2.360000000000556, -1.0388817779254045 
2.370000000000577, -1.0379890913216845 
2.380000000000598, -1.0371514380924398 
2.390000000000619, -1.0364329528788676 
2.4000000000006403, -1.0358880183639552 
2.4100000000006614, -1.0355482779583534 
2.4200000000006825, -1.035413639219311 
2.4300000000007036, -1.035451416755301 
2.4400000000007247, -1.0356046850336413 
2.450000000000746, -1.0358062381770423 
2.460000000000767, -1.0359915813407798 
2.470000000000788, -1.0361063854269872 
2.480000000000809, -1.0361086696837298 
2.49000000000083, -1.0359687025146855 
2.5000000000008513, -1.0356687184618127 
2.5100000000008724, -1.0352024028922713 
2.5200000000008935, -1.03457342909784 
2.5300000000009146, -1.0337934892367397 
2.5400000000009357, -1.0328812893021537 
2.550000000000957, -1.031863407512762 
2.560000000000978, -1.0307764637272854 
2.570000000000999, -1.0296689866256852 
2.58000000000102, -1.0286008939516385 
2.5900000000010412, -1.0276385909534622 
2.6000000000010624, -1.0268448846994178 
2.6100000000010835, -1.0262653165373754 
2.6200000000011046, -1.025915221467986 
2.6300000000011257, -1.0257734480129477 
2.6400000000011468, -1.0257870974408596 
2.650000000001168, -1.0258857162712673 
2.660000000001189, -1.0259973004462346 
2.67000000000121, -1.0260586637918399 
2.680000000001231, -1.0260186374188103 
2.6900000000012523, -1.0258376352745837 
2.7000000000012734, -1.025487528890888 
2.7100000000012945, -1.0249529248516667 
2.7200000000013156, -1.024232182616721 
2.7300000000013367, -1.0233363487911187 
2.740000000001358, -1.0222864262695772 
2.750000000001379, -1.02111124605819 
2.7600000000014, -1.0198475898335895 
2.770000000001421, -1.0185420651833312 
2.780000000001442, -1.017252546745822 
2.7900000000014633, -1.0160464910866267 
2.8000000000014844, -1.0149940406933875 
2.8100000000015055, -1.0141556269218772 
2.8200000000015266, -1.0135667412308844 
2.8300000000015477, -1.0132258721852598 
2.840000000001569, -1.013092690643935 
2.85000000000159, -1.0130990405741374 
2.860000000001611, -1.0131669195405775 
2.870000000001632, -1.0132235630009103 
2.8800000000016532, -1.0132081225912892 
2.8900000000016743, -1.0130716976571466 
2.9000000000016954, -1.0127758538929013 
2.9100000000017165, -1.0122932602468666 
2.9200000000017377, -1.0116103970301524 
2.9300000000017588, -1.0107295424104143 
2.94000000000178, -1.0096676524707437 
2.950000000001801, -1.0084528002288526 
2.960000000001822, -1.0071211189957692 
2.970000000001843, -1.0057163392878294 
2.9800000000018643, -1.0042913375236675 
2.9900000000018854, -1.0029091256312737 
3.0000000000019065, -1.0016403023596463 
3.0100000000019276, -1.0005549460391914 
3.0200000000019487, -0.99970914992939 
3.03000000000197, -0.9991297854151675 
3.040000000001991, -0.9988043776984667 
3.050000000002012, -0.9986827962856551 
3.060000000002033, -0.9986911906173918 
3.070000000002054, -0.9987504097730981 
3.0800000000020753, -0.9987893449801115 
3.0900000000020964, -0.9987495489977132 
3.1000000000021175, -0.9985842152431379 
3.1100000000021386, -0.9982567233337812 
3.1200000000021597, -0.9977417740384297 
3.130000000002181, -0.997028411922263 
3.140000000002202, -0.9961218085135786 
3.150000000002223, -0.995041562619677 
3.160000000002244, -0.9938176029738859 
3.1700000000022652, -0.9924869029343226 
3.1800000000022863, -0.9910930190861272 
3.1900000000023074, -0.9896876588793626 
3.2000000000023285, -0.9883316242573107 
3.2100000000023496, -0.9870922817612264 
3.2200000000023707, -0.9860358031746846 
3.230000000002392, -0.9852146008813522 
3.240000000002413, -0.9846534251623668 
3.250000000002434, -0.984340300648625 
3.260000000002455, -0.9842280928518964 
3.2700000000024763, -0.9842470581445228 
3.2800000000024974, -0.9843216983618609 
3.2900000000025185, -0.9843834834822214 
3.3000000000025396, -0.9843759083951408 
3.3100000000025607, -0.9842542887984269 
3.3200000000025818, -0.9839847752608509 
3.330000000002603, -0.9835451992227444 
3.340000000002624, -0.9829270712646127 
3.350000000002645, -0.9821361211702287 
3.360000000002666, -0.9811898868068676 
3.3700000000026873, -0.9801137999769847 
3.3800000000027084, -0.9789386466631985 
3.3900000000027295, -0.9777008098035109 
3.4000000000027506, -0.9764442444981928 
3.4100000000027717, -0.9752217851551379 
3.420000000002793, -0.9740933920187052 
3.430000000002814, -0.9731198643265486 
3.440000000002835, -0.9723522982088582 
3.450000000002856, -0.9718199304391841 
3.460000000002877, -0.971521063027121 
3.4700000000028983, -0.9714218813208424 
3.4800000000029194, -0.9714647050994228 
3.4900000000029405, -0.9715818345730767 
3.5000000000029616, -0.9717082476393525 
3.5100000000029827, -0.9717887379853132 
3.520000000003004, -0.971779868386394 
3.530000000003025, -0.9716498245288909 
3.540000000003046, -0.9713785096547175 
3.550000000003067, -0.9709578175290424 
3.5600000000030882, -0.9703906282103325 
3.5700000000031094, -0.9696880508687794 
3.5800000000031305, -0.9688664689543136 
3.5900000000031516, -0.9679464469341026 
3.6000000000031727, -0.9669540099117093 
3.6100000000031938, -0.9659230574286729 
3.620000000003215, -0.9648970530851402 
3.630000000003236, -0.963928261046591 
3.640000000003257, -0.9630732091143605 
3.650000000003278, -0.9623841590652031 
3.6600000000032993, -0.9618983324396257 
3.6700000000033204, -0.9616284828482712 
3.6800000000033415, -0.9615587840802027 
3.6900000000033626, -0.9616482637024537 
3.7000000000033837, -0.9618405718965427 
3.710000000003405, -0.9620757423475848 
3.720000000003426, -0.9622993532915404 
3.730000000003447, -0.9624672295514785 
3.740000000003468, -0.9625467321113861 
3.750000000003489, -0.9625164165096425 
3.7600000000035103, -0.9623648033821807 
3.7700000000035314, -0.9620882171898243 
3.7800000000035525, -0.9616882364098306 
3.7900000000035736, -0.961170207454269 
3.8000000000035947, -0.9605438468599695 
3.810000000003616, -0.9598254401342816 
3.820000000003637, -0.9590402742739913 
3.830000000003658, -0.9582242548240656 
3.840000000003679, -0.9574239787835938 
3.8500000000037002, -0.9566941547271147 
3.8600000000037213, -0.956091186251 
3.8700000000037424, -0.9556632350950371 
3.8800000000037635, -0.9554396073461324 
3.8900000000037847, -0.9554236551135686 
3.9000000000038058, -0.95559219649279 
3.910000000003827, -0.9559015789062922 
3.920000000003848, -0.9562977219645298 
3.930000000003869, -0.9567262102812437 
3.94000000000389, -0.9571393793339602 
3.9500000000039113, -0.9574994879488274 
3.9600000000039324, -0.9577787416855681 
3.9700000000039535, -0.9579573876585055 
3.9800000000039746, -0.9580211313545547 
3.9900000000039957, -0.9579593841189457 
4.000000000004016, -0.9577656454082936 
4.010000000003993, -0.9574399148816701 
4.02000000000397, -0.9569914805220143 
4.030000000003946, -0.9564405490583321 
4.040000000003923, -0.9558187362157262 
4.0500000000039, -0.9551692386880226 
4.0600000000038765, -0.9545463984934557 
4.070000000003853, -0.9540126028163586 
4.08000000000383, -0.9536303894483564 
4.090000000003807, -0.9534503912258062 
4.100000000003783, -0.9534995287909229 
4.11000000000376, -0.9537749539327235 
4.120000000003737, -0.9542462824606129 
4.130000000003713, -0.9548643303942919 
4.14000000000369, -0.9555721339773973 
4.150000000003667, -0.9563142299200094 
4.1600000000036434, -0.957041949571596 
4.17000000000362, -0.957714551961628 
4.180000000003597, -0.958297581684198 
4.1900000000035735, -0.9587607520186626 
4.20000000000355, -0.9590777810598048 
4.210000000003527, -0.9592292992400967 
4.220000000003504, -0.9592073406788808 
4.23000000000348, -0.9590182630184915 
4.240000000003457, -0.9586823618363729 
4.250000000003434, -0.9582316239456723 
4.26000000000341, -0.9577085021438325 
4.270000000003387, -0.9571669257203117 
4.280000000003364, -0.9566735462823217 
4.2900000000033405, -0.9563049058425184 
4.300000000003317, -0.9561370907198293 
4.310000000003294, -0.9562293437203608 
4.320000000003271, -0.9566088768464731 
4.330000000003247, -0.9572648935459414 
4.340000000003224, -0.9581541114543608 
4.350000000003201, -0.9592133715319099 
4.360000000003177, -0.9603726499964524 
4.370000000003154, -0.9615638450604184 
4.380000000003131, -0.9627241450987931 
4.390000000003107, -0.9637956893194166 
4.400000000003084, -0.9647249819835052 
4.410000000003061, -0.9654654400674122 
4.4200000000030375, -0.9659837635303509 
4.430000000003014, -0.96626669100559 
4.440000000002991, -0.9663231251730029 
4.450000000002968, -0.9661800601819925 
4.460000000002944, -0.9658758846847337 
4.470000000002921, -0.9654562790613325 
4.480000000002898, -0.964975367599304 
4.490000000002874, -0.9645007239788095 
4.500000000002851, -0.9641172166527661 
4.510000000002828, -0.9639228899595089 
4.520000000002804, -0.9640127606659394 
4.530000000002781, -0.9644547277863555 
4.540000000002758, -0.9652699215506791 
4.5500000000027345, -0.9664284886555456 
4.560000000002711, -0.9678610902447758 
4.570000000002688, -0.9694770615164752 
4.580000000002665, -0.9711796217581476 
4.590000000002641, -0.9728740032074545 
4.600000000002618, -0.974470194929629 
4.610000000002595, -0.9758852519341096 
4.620000000002571, -0.9770496323218802 
4.630000000002548, -0.9779174441012343 
4.640000000002525, -0.9784747144738347 
4.6500000000025015, -0.9787390037701927 
4.660000000002478, -0.9787499642531063 
4.670000000002455, -0.9785573354002164 
4.6800000000024315, -0.9782137099633574 
4.690000000002408, -0.9777753167918821 
4.700000000002385, -0.977309519863598 
4.710000000002362, -0.9769041015640365 
4.720000000002338, -0.9766701819936072 
4.730000000002315, -0.9767301692393188 
4.740000000002292, -0.977189360575934 
4.750000000002268, -0.9781033863491198 
4.760000000002245, -0.979460548174646 
4.770000000002222, -0.9811881167707568 
4.7800000000021985, -0.9831745547758428 
4.790000000002175, -0.9852926571551567 
4.800000000002152, -0.9874145410726995 
4.810000000002129, -0.9894189933748319 
4.820000000002105, -0.9911973217800959 
4.830000000002082, -0.9926630944412732 
4.840000000002059, -0.9937647555816984 
4.850000000002035, -0.9944933257344027 
4.860000000002012, -0.994878081250097 
4.870000000001989, -0.994971882184905 
4.880000000001965, -0.9948352504293181 
4.890000000001942, -0.994527558374909 
4.900000000001919, -0.9941081621252618 
4.9100000000018955, -0.993645624106079 
4.920000000001872, -0.9932299002297187 
4.930000000001849, -0.9929787251055584 
