t, s[1].omega / s[0].omega 
0, -0.9400203972299466 
0.009999999999999995, -0.9419046942621504 
0.019999999999999934, -0.9434251546993433 
0.029999999999999874, -0.9445348694491253 
0.04000000000000012, -0.9452391559137931 
0.050000000000000405, -0.9455840791395765 
0.06000000000000069, -0.9456350715109485 
0.07000000000000098, -0.9454591849717311 
0.08000000000000126, -0.9451186783911016 
0.09000000000000155, -0.9446764735982492 
0.10000000000000184, -0.9442105744290139 
0.11000000000000212, -0.9438323147542766 
0.12000000000000241, -0.9436988095531893 
0.130000000000002, -0.9440053014787135 
0.1400000000000009, -0.9449474614311472 
0.1499999999999998, -0.946663133772452 
0.1599999999999987, -0.9491835278036375 
0.1699999999999976, -0.9524203425592169 
0.1799999999999965, -0.9561881505988348 
0.1899999999999954, -0.9602405382988088 
0.1999999999999943, -0.964302749330294 
0.2099999999999932, -0.9681012157547381 
0.2199999999999921, -0.9713995175971812 
0.229999999999991, -0.9740401694653265 
0.2399999999999899, -0.9759726250649757 
0.2499999999999888, -0.9772462419256467 
0.2599999999999877, -0.9779711112969938 
0.2699999999999866, -0.9782721268969448 
0.2799999999999855, -0.9782588119125432 
0.2899999999999844, -0.9780165651090755 
0.2999999999999833, -0.9776145298215722 
0.3099999999999822, -0.9771249155936378 
0.3199999999999811, -0.9766506943537946 
0.32999999999998, -0.9763554730977002 
0.3399999999999789, -0.9764785005112306 
0.3499999999999778, -0.9773084375998362 
0.35999999999997667, -0.9791035642313985 
0.36999999999997557, -0.9819896148992623 
0.37999999999997447, -0.9858973985942011 
0.38999999999997337, -0.9905751021524898 
0.39999999999997227, -0.9956534772329535 
0.40999999999997117, -1.000721494802789 
0.41999999999997006, -1.005392881848827 
0.42999999999996896, -1.0093659418259187 
0.43999999999996786, -1.0124724482775822 
0.44999999999996676, -1.0146938838650488 
0.45999999999996566, -1.0161304418551946 
0.46999999999996456, -1.0169399329743407 
0.47999999999996346, -1.0172813695433356 
0.48999999999996235, -1.01728457131903 
0.49999999999996125, -1.0170456998196642 
0.5099999999999602, -1.0166400182219333 
0.519999999999959, -1.016145661339205 
0.529999999999958, -1.0156750617521726 
0.5399999999999568, -1.0154056534423543 
0.5499999999999557, -1.0155877434836371 
0.5599999999999546, -1.0165005830420313 
0.5699999999999535, -1.018355100630718 
0.5799999999999524, -1.0211964192473824 
0.5899999999999513, -1.0248749106792987 
0.5999999999999502, -1.029097639601058 
0.6099999999999491, -1.0335116915551643 
0.619999999999948, -1.0377725549038699 
0.6299999999999469, -1.0415885771973283 
0.6399999999999458, -1.0447533667626723 
0.6499999999999447, -1.0471690547640913 
0.6599999999999436, -1.0488479253359992 
0.6699999999999425, -1.0498841721723948 
0.6799999999999414, -1.050408391577744 
0.6899999999999403, -1.0505482126318302 
0.6999999999999392, -1.0504091119016892 
0.7099999999999381, -1.0500754105071979 
0.719999999999937, -1.0496256011622698 
0.7299999999999359, -1.0491559606012468 
0.7399999999999348, -1.0488034277312948 
0.7499999999999337, -1.0487502591953175 
0.7599999999999326, -1.0491905698553101 
0.7699999999999315, -1.0502618938476802 
0.7799999999999304, -1.051983755168119 
0.7899999999999293, -1.0542495056060863 
0.7999999999999282, -1.0568712998481502 
0.8099999999999271, -1.0596382674421434 
0.819999999999926, -1.0623552460123247 
0.8299999999999249, -1.0648582279398173 
0.8399999999999238, -1.06701914539726 
0.8499999999999227, -1.0687513795598433 
0.8599999999999216, -1.0700171055168424 
0.8699999999999205, -1.0708287978807802 
0.8799999999999194, -1.0712385790664025 
0.8899999999999183, -1.071319041705169 
0.8999999999999172, -1.0711461544563097 
0.9099999999999161, -1.070792492178381 
0.919999999999915, -1.070332128759855 
0.9299999999999139, -1.0698525036109932 
0.9399999999999128, -1.0694633899240074 
0.9499999999999117, -1.0692897936606294 
0.9599999999999106, -1.0694421426177079 
0.9699999999999095, -1.0699770860483315 
0.9799999999999084, -1.0708766840706274 
0.9899999999999073, -1.0720602438821571 
0.9999999999999062, -1.073415952451126 
1.0099999999999052, -1.0748305263745865 
1.019999999999904, -1.0762058991817587 
1.029999999999903, -1.0774638048205345 
1.039999999999902, -1.078543830499371 
1.0499999999999008, -1.0794006080945133 
1.0599999999998997, -1.0800037456632472 
1.0699999999998986, -1.080340534252753 
1.0799999999998975, -1.0804181877849577 
1.0899999999998964, -1.0802624632620583 
1.0999999999998953, -1.0799132701604923 
1.1099999999998942, -1.0794211547929662 
1.119999999999893, -1.078847557918454 
1.129999999999892, -1.0782670932849752 
1.1399999999998909, -1.0777654616185084 
1.1499999999998898, -1.0774268915833716 
1.1599999999998887, -1.0773130540098714 
1.1699999999998876, -1.0774450772855424 
1.1799999999998865, -1.077799647534264 
1.1899999999998854, -1.0783193785442469 
1.1999999999998843, -1.0789297477926163 
1.2099999999998832, -1.0795551838743633 
1.219999999999882, -1.0801301231819378 
1.229999999999881, -1.0806038505266868 
1.2399999999998799, -1.0809404357771908 
1.2499999999998788, -1.0811162043209912 
1.2599999999998777, -1.0811169196763393 
1.2699999999998766, -1.0809362018950186 
1.2799999999998755, -1.080575840197091 
1.2899999999998744, -1.0800474786407213 
1.2999999999998733, -1.0793745546928348 
1.3099999999998722, -1.0785939110473657 
1.319999999999871, -1.0777568463550249 
1.32999999999987, -1.0769281673902829 
1.3399999999998689, -1.0761804383856215 
1.3499999999998678, -1.075582080458557 
1.3599999999998666, -1.0751822237531508 
1.3699999999998655, -1.0749980461143662 
1.3799999999998644, -1.075009499371411 
1.3899999999998633, -1.0751639504573416 
1.3999999999998622, -1.0753896597981971 
1.4099999999998611, -1.075612068824907 
1.41999999999986, -1.0757655338345702 
1.429999999999859, -1.075797942854939 
1.4399999999998578, -1.0756710321598204 
1.4499999999998567, -1.075359982832208 
1.4599999999998556, -1.0748532382556022 
1.4699999999998545, -1.0741515493944411 
1.4799999999998534, -1.0732659852999693 
1.4899999999998523, -1.072216373556829 
1.4999999999998512, -1.071031783916355 
1.5099999999998501, -1.0697530689670143 
1.519999999999849, -1.0684357272078062 
1.529999999999848, -1.0671503640767006 
1.5399999999998468, -1.0659779306889194 
1.5499999999998457, -1.0649979687885138 
1.5599999999998446, -1.0642705327846735 
1.5699999999998435, -1.0638167639277256 
1.5799999999998424, -1.0636081295750024 
1.5899999999998413, -1.063573386844237 
1.5999999999998402, -1.0636206091434386 
1.6099999999998391, -1.0636598998542885 
1.619999999999838, -1.0636147727096068 
1.629999999999837, -1.0634221172465956 
1.6399999999998358, -1.0630284224609967 
1.6499999999998347, -1.062389296626955 
1.6599999999998336, -1.0614742161585802 
1.6699999999998325, -1.0602731422818712 
1.6799999999998314, -1.0587997351545717 
1.6899999999998303, -1.0570891523407127 
1.6999999999998292, -1.0551935654607434 
1.709999999999828, -1.0531799458383062 
1.719999999999827, -1.0511313381680698 
1.729999999999826, -1.0491483945088467 
1.7399999999998248, -1.047345324061773 
1.7499999999998237, -1.0458345587487141 
1.7599999999998226, -1.0446990650868406 
1.7699999999998215, -1.0439620327017147 
1.7799999999998204, -1.0435737556120501 
1.7899999999998193, -1.043428884216128 
1.7999999999998182, -1.04340331558101 
1.809999999999817, -1.0433852930879945 
1.819999999999816, -1.0432858547324284 
1.8299999999998149, -1.0430325870802117 
1.8399999999998138, -1.042558684093292 
1.8499999999998127, -1.0417971984247847 
1.8599999999998116, -1.0406854672897405 
1.8699999999998105, -1.039179007652776 
1.8799999999998094, -1.0372677262381518 
1.8899999999998083, -1.034984493576487 
1.8999999999998072, -1.032401875685047 
1.909999999999806, -1.029622476593971 
1.919999999999805, -1.0267712707964103 
1.9299999999998039, -1.0239920740502122 
1.9399999999998028, -1.021441997433151 
1.9499999999998017, -1.0192742826385648 
1.9599999999998006, -1.0176051783608542 
1.9699999999997995, -1.0164754090833115 
1.9799999999997984, -1.0158314317241193 
1.9899999999997973, -1.0155452822713673 
1.9999999999997962, -1.0154619541641536 
2.0099999999998173, -1.0154421933083129 
2.0199999999998384, -1.0153794418542947 
2.0299999999998595, -1.015193547121656 
2.0399999999998806, -1.014815197604467 
2.0499999999999017, -1.0141729901206196 
2.059999999999923, -1.0131901488724098 
2.069999999999944, -1.0117942310871828 
2.079999999999965, -1.0099378005213888 
2.089999999999986, -1.0076201520314823 
2.100000000000007, -1.004896874229644 
2.1100000000000283, -1.0018724666930767 
2.1200000000000494, -0.9986842693291182 
2.1300000000000705, -0.9954889957651878 
2.1400000000000916, -0.9924543743574746 
2.1500000000001127, -0.9897485967792765 
2.160000000000134, -0.9875184200252505 
2.170000000000155, -0.9858554195355922 
2.180000000000176, -0.9847652919898284 
2.190000000000197, -0.98416332229523 
2.2000000000002182, -0.9839050208754875 
2.2100000000002393, -0.9838336356876267 
2.2200000000002604, -0.9838157577559535 
2.2300000000002815, -0.9837516411340561 
2.2400000000003026, -0.9835665222144829 
2.2500000000003237, -0.9831959499761119 
2.260000000000345, -0.9825750845001846 
2.270000000000366, -0.9816376060598611 
2.280000000000387, -0.980326245478566 
2.290000000000408, -0.9786113828549308 
2.3000000000004293, -0.9765073707026953 
2.3100000000004504, -0.9740755588975389 
2.3200000000004715, -0.9714127333589598 
2.3300000000004926, -0.968634675799166 
2.3400000000005137, -0.9658648842037787 
2.3500000000005348, -0.9632298252403879 
2.360000000000556, -0.960854516064296 
2.370000000000577, -0.9588511748903755 
2.380000000000598, -0.9572988159775445 
2.390000000000619, -0.9562206737072211 
2.4000000000006403, -0.9555735096904329 
2.4100000000006614, -0.9552593594015504 
2.4200000000006825, -0.9551551642424687 
2.4300000000007036, -0.955143060818885 
2.4400000000007247, -0.955126800211084 
2.450000000000746, -0.9550324880055896 
2.460000000000767, -0.9548010559699358 
2.470000000000788, -0.9543811093170161 
2.480000000000809, -0.9537277495037578 
2.49000000000083, -0.9528087039930926 
2.5000000000008513, -0.9516141206461507 
2.5100000000008724, -0.9501627277557079 
2.5200000000008935, -0.9484989505959381 
2.5300000000009146, -0.9466828917598692 
2.5400000000009357, -0.9447804655213765 
2.550000000000957, -0.9428590311964165 
2.560000000000978, -0.9409880040806702 
2.570000000000999, -0.9392401191379509 
2.58000000000102, -0.937688957979469 
2.5900000000010412, -0.9364005679529619 
2.6000000000010624, -0.9354202779868857 
2.6100000000010835, -0.934759492676512 
2.6200000000011046, -0.9343895318877558 
2.6300000000011257, -0.9342474395800078 
2.6400000000011468, -0.9342517726729005 
2.650000000001168, -0.9343201567668922 
2.660000000001189, -0.934380799362352 
2.67000000000121, -0.9343760429541138 
2.680000000001231, -0.934261355132373 
2.6900000000012523, -0.9340042831401275 
2.7000000000012734, -0.9335855072741295 
2.7100000000012945, -0.9330006523644878 
2.7200000000013156, -0.9322597567476523 
2.7300000000013367, -0.9313830561372483 
2.740000000001358, -0.9303953804963973 
2.750000000001379, -0.9293229021213956 
2.7600000000014, -0.9281938020692106 
2.770000000001421, -0.9270413854468351 
2.780000000001442, -0.925906949608833 
2.7900000000014633, -0.924840155073398 
2.8000000000014844, -0.9238955612927848 
2.8100000000015055, -0.9231251476249909 
2.8200000000015266, -0.9225683013992496 
2.8300000000015477, -0.9222424025797903 
2.840000000001569, -0.9221376905529729 
2.85000000000159, -0.9222188812985074 
2.860000000001611, -0.9224331909805399 
2.870000000001632, -0.9227214263431511 
2.8800000000016532, -0.9230278191026707 
2.8900000000016743, -0.9233060477626317 
2.9000000000016954, -0.9235215224238891 
2.9100000000017165, -0.923651187699057 
2.9200000000017377, -0.9236816253482486 
2.9300000000017588, -0.9236057983500714 
2.94000000000178, -0.9234195569843813 
2.950000000001801, -0.9231199777004331 
2.960000000001822, -0.9227068165714295 
2.970000000001843, -0.9221860850632254 
2.9800000000018643, -0.9215734760268202 
2.9900000000018854, -0.9208963369966545 
3.0000000000019065, -0.9201943952693707 
3.0100000000019276, -0.9195193683162957 
3.0200000000019487, -0.9189322089301974 
3.03000000000197, -0.9184961865090958 
3.040000000001991, -0.9182658700136853 
3.050000000002012, -0.9182753788723387 
3.060000000002033, -0.9185309280460153 
3.070000000002054, -0.9190108311548066 
3.0800000000020753, -0.9196723216293451 
3.0900000000020964, -0.9204617472942201 
3.1000000000021175, -0.9213241476487244 
3.1100000000021386, -0.9222093913219014 
3.1200000000021597, -0.9230738923880674 
3.130000000002181, -0.9238787049610432 
3.140000000002202, -0.9245863255802664 
3.150000000002223, -0.9251595173207076 
3.160000000002244, -0.9255647024453033 
3.1700000000022652, -0.9257791213371416 
3.1800000000022863, -0.925797270202972 
3.1900000000023074, -0.9256323246875391 
3.2000000000023285, -0.9253127539459024 
3.2100000000023496, -0.9248783250806749 
3.2200000000023707, -0.9243794407404133 
3.230000000002392, -0.9238802804417039 
3.240000000002413, -0.9234622722836765 
3.250000000002434, -0.9232219951992395 
3.260000000002455, -0.9232588110311385 
3.2700000000024763, -0.9236537082524692 
3.2800000000024974, -0.9244485817832828 
3.2900000000025185, -0.9256368086628857 
3.3000000000025396, -0.927168680663333 
3.3100000000025607, -0.9289659107960224 
3.3200000000025818, -0.9309360662410094 
3.330000000002603, -0.9329810099249013 
3.340000000002624, -0.9349991514282043 
3.350000000002645, -0.9368862558055948 
3.360000000002666, -0.93854155033277 
3.3700000000026873, -0.9398823486498106 
3.3800000000027084, -0.9408616470649835 
3.3900000000027295, -0.9414768840626989 
3.4000000000027506, -0.9417630775864833 
3.4100000000027717, -0.9417757610097857 
3.420000000002793, -0.9415753441760453 
3.430000000002814, -0.9412208230100036 
3.440000000002835, -0.9407742757527663 
3.450000000002856, -0.9403135674419054 
3.460000000002877, -0.9399478327077289 
3.4700000000028983, -0.9398261410063912 
3.4800000000029194, -0.9401267725568498 
3.4900000000029405, -0.9410206835993324 
3.5000000000029616, -0.9426207737796967 
3.5100000000029827, -0.9449437811565566 
3.520000000003004, -0.9479045587944765 
3.530000000003025, -0.9513383581103332 
3.540000000003046, -0.9550314644950367 
3.550000000003067, -0.9587463747879633 
3.5600000000030882, -0.9622433338936458 
3.5700000000031094, -0.965308304539025 
3.5800000000031305, -0.9677893615752831 
3.5900000000031516, -0.9696257345156164 
3.6000000000031727, -0.9708482821733483 
3.6100000000031938, -0.9715490387460365 
3.620000000003215, -0.9718401167660913 
3.630000000003236, -0.971823957615525 
3.640000000003257, -0.9715828811757896 
3.650000000003278, -0.9711849857663474 
3.6600000000032993, -0.9707016715061503 
3.6700000000033204, -0.9702333870955151 
3.6800000000033415, -0.9699372937524267 
3.6900000000033626, -0.9700408944425043 
3.7000000000033837, -0.9708176894617464 
3.710000000003405, -0.9725139583619427 
3.720000000003426, -0.9752548025104082 
3.730000000003447, -0.9789853456824046 
3.740000000003468, -0.9834791646351722 
3.750000000003489, -0.9883953351632948 
3.7600000000035103, -0.9933460801616283 
3.7700000000035314, -0.9979572595531137 
3.7800000000035525, -1.0019250064905822 
3.7900000000035736, -1.0050662843314606 
3.8000000000035947, -1.0073422193102748 
3.810000000003616, -1.0088356631653772 
3.820000000003637, -1.00969468698298 
3.830000000003658, -1.0100755011422373 
3.840000000003679, -1.010108878744162 
3.8500000000037002, -1.009892643981287 
3.8600000000037213, -1.0095022393633533 
3.8700000000037424, -1.009012828750933 
3.8800000000037635, -1.0085296986392722 
3.8900000000037847, -1.008220193974975 
3.9000000000038058, -1.0083276409518076 
3.910000000003827, -1.0091377582356296 
3.920000000003848, -1.0108879562920965 
3.930000000003869, -1.0136627910335014 
3.94000000000389, -1.0173468974360733 
3.9500000000039113, -1.0216618558018602 
3.9600000000039324, -1.0262474964694228 
3.9700000000039535, -1.0307369455850677 
3.9800000000039746, -1.0348091221726898 
3.9900000000039957, -1.0382278021891806 
4.000000000004016, -1.0408707590268267 
4.010000000003993, -1.042736046393047 
4.02000000000397, -1.0439149585614917 
4.030000000003946, -1.044543509203589 
4.040000000003923, -1.0447580433803823 
4.0500000000039, -1.0446717455540384 
4.0600000000038765, -1.0443729592416693 
4.070000000003853, -1.0439390875756678 
4.08000000000383, -1.0434601678113782 
4.090000000003807, -1.043064939617613 
4.100000000003783, -1.042934136616737 
4.11000000000376, -1.0432784227273406 
4.120000000003737, -1.0442730698152798 
4.130000000003713, -1.045982457578574 
4.14000000000369, -1.0483296154183184 
4.150000000003667, -1.051129563873987 
4.1600000000036434, -1.0541522514371464 
4.17000000000362, -1.0571730044258192 
4.180000000003597, -1.0599972252462417 
4.1900000000035735, -1.0624699081296414 
4.20000000000355, -1.0644834931349851 
4.210000000003527, -1.06598699320309 
4.220000000003504, -1.0669884694298468 
4.23000000000348, -1.067543273410004 
4.240000000003457, -1.067731557559821 
4.250000000003434, -1.0676371209462292 
4.26000000000341, -1.0673374096610284 
4.270000000003387, -1.0669068226028295 
4.280000000003364, -1.066429384463727 
4.2900000000033405, -1.0660121295968987 
4.300000000003317, -1.0657857394432835 
4.310000000003294, -1.0658805593949627 
4.320000000003271, -1.0663834650452555 
4.330000000003247, -1.0673035477588428 
4.340000000003224, -1.0685721518748579 
4.350000000003201, -1.070073218908315 
4.360000000003177, -1.0716793578997055 
4.370000000003154, -1.0732754391403376 
4.380000000003131, -1.074767111635172 
4.390000000003107, -1.0760801894132173 
4.400000000003084, -1.077158030413273 
4.410000000003061, -1.07796162974783 
4.4200000000030375, -1.0784728215558106 
4.430000000003014, -1.0786968794511669 
4.440000000002991, -1.0786605742120856 
4.450000000002968, -1.0784060853526067 
4.460000000002944, -1.0779853996419102 
4.470000000002921, -1.0774594012879737 
4.480000000002898, -1.076901171993452 
4.490000000002874, -1.076397464126021 
4.500000000002851, -1.0760402129373723 
4.510000000002828, -1.0759058989993764 
4.520000000002804, -1.0760325880239345 
4.530000000002781, -1.0764095566607321 
4.540000000002758, -1.076984758243525 
4.5500000000027345, -1.0776827891462886 
4.560000000002711, -1.0784233428499868 
4.570000000002688, -1.079134404033626 
4.580000000002665, -1.0797586318491463 
4.590000000002641, -1.0802540625502597 
4.600000000002618, -1.0805916542132528 
4.610000000002595, -1.0807522991819172 
4.620000000002571, -1.0807252382261991 
4.630000000002548, -1.0805085764734499 
4.640000000002525, -1.0801110782943604 
4.6500000000025015, -1.0795537955830206 
4.660000000002478, -1.078871040887783 
4.670000000002455, -1.0781111519120317 
4.6800000000024315, -1.0773363992528693 
4.690000000002408, -1.0766191397425169 
4.700000000002385, -1.0760314720390707 
4.710000000002362, -1.075629956082225 
4.720000000002338, -1.075441521229945 
4.730000000002315, -1.0754565157028106 
4.740000000002292, -1.0756313216780178 
4.750000000002268, -1.0758996150671303 
4.760000000002245, -1.0761878808112546 
4.770000000002222, -1.07642860312682 
4.7800000000021985, -1.0765670913471452 
4.790000000002175, -1.0765629689583207 
4.800000000002152, -1.0763895630246751 
4.810000000002129, -1.0760329357367595 
4.820000000002105, -1.075490423343271 
4.830000000002082, -1.0747686766173337 
4.840000000002059, -1.0738823729835818 
4.850000000002035, -1.0728548325025002 
4.860000000002012, -1.0717204776286031 
4.870000000001989, -1.0705277166743667 
4.880000000001965, -1.0693399904075533 
4.890000000001942, -1.0682324139706858 
4.900000000001919, -1.067282213876557 
4.9100000000018955, -1.0665532798400874 
4.920000000001872, -1.066078271493104 
4.930000000001849, -1.065845593176701 
