t, s[1].omega / s[0].omega 
0, -1.219996119855378 
0.009999999999999995, -1.2194515130990184 
0.019999999999999934, -1.2185976461349801 
0.029999999999999874, -1.217437165118406 
0.04000000000000012, -1.2159757357111245 
0.050000000000000405, -1.2142238517450246 
0.06000000000000069, -1.212198791815111 
0.07000000000000098, -1.209926367819998 
0.08000000000000126, -1.2074421358599448 
0.09000000000000155, -1.2047918006157674 
0.10000000000000184, -1.2020307716519738 
0.11000000000000212, -1.1992232775145568 
0.12000000000000241, -1.1964417965764824 
0.130000000000002, -1.1937671572806277 
0.1400000000000009, -1.1912881243601807 
0.1499999999999998, -1.189097425515986 
0.1599999999999987, -1.187280990985818 
0.1699999999999976, -1.1859003503811594 
0.1799999999999965, -1.1849736935702686 
0.1899999999999954, -1.1844648069522297 
0.1999999999999943, -1.1842866226904942 
0.2099999999999932, -1.184318143198836 
0.2199999999999921, -1.1844262147235947 
0.229999999999991, -1.1844825641369792 
0.2399999999999899, -1.1843711685928942 
0.2499999999999888, -1.183986695891307 
0.2599999999999877, -1.1832279014765765 
0.2699999999999866, -1.181990260974845 
0.2799999999999855, -1.1801611994881835 
0.2899999999999844, -1.177620156778891 
0.2999999999999833, -1.1742445550687834 
0.3099999999999822, -1.1699211814629953 
0.3199999999999811, -1.1645605186611598 
0.32999999999998, -1.158109899874818 
0.3399999999999789, -1.1505612624369952 
0.3499999999999778, -1.1419513582636014 
0.35999999999997667, -1.132355657080147 
0.36999999999997557, -1.1218798992821377 
0.37999999999997447, -1.1106538640197636 
0.38999999999997337, -1.0988304524692314 
0.39999999999997227, -1.0865907002326003 
0.40999999999997117, -1.0741527715410155 
0.41999999999997006, -1.0617806739892564 
0.42999999999996896, -1.0497864881343741 
0.43999999999996786, -1.0385190482030504 
0.44999999999996676, -1.0283338479682358 
0.45999999999996566, -1.0195450085714517 
0.46999999999996456, -1.0123696528476667 
0.47999999999996346, -1.0068832359439082 
0.48999999999996235, -1.003004501025897 
0.49999999999996125, -1.0005178411439035 
0.5099999999999602, -0.9991243984604482 
0.519999999999959, -0.9985017887474646 
0.529999999999958, -0.9983525626471916 
0.5399999999999568, -0.9984309659853193 
0.5499999999999557, -0.9985484356549695 
0.5599999999999546, -0.9985646240766842 
0.5699999999999535, -0.9983716917934786 
0.5799999999999524, -0.9978774955663096 
0.5899999999999513, -0.996990728215606 
0.5999999999999502, -0.9956094352821055 
0.6099999999999491, -0.9936139071541081 
0.619999999999948, -0.9908653587040112 
0.6299999999999469, -0.9872123522974091 
0.6399999999999458, -0.9825066148950311 
0.6499999999999447, -0.9766277641774389 
0.6599999999999436, -0.9695123469340037 
0.6699999999999425, -0.961178257572922 
0.6799999999999414, -0.9517344916310561 
0.6899999999999403, -0.9413707773983538 
0.6999999999999392, -0.9303301980751857 
0.7099999999999381, -0.9188749911275665 
0.719999999999937, -0.9072568269712477 
0.7299999999999359, -0.8956984142918163 
0.7399999999999348, -0.8843872164116245 
0.7499999999999337, -0.8734779251607684 
0.7599999999999326, -0.8630990919513931 
0.7699999999999315, -0.8533600438963483 
0.7799999999999304, -0.8443556483473219 
0.7899999999999293, -0.8361678534508757 
0.7999999999999282, -0.828863985411775 
0.8099999999999271, -0.8224925600030851 
0.819999999999926, -0.8170779327936913 
0.8299999999999249, -0.8126154480340122 
0.8399999999999238, -0.8090687445714521 
0.8499999999999227, -0.8063704428000035 
0.8599999999999216, -0.8044266041969697 
0.8699999999999205, -0.8031243491223083 
0.8799999999999194, -0.8023411882564783 
0.8899999999999183, -0.8019542726249859 
0.8999999999999172, -0.8018479936294529 
0.9099999999999161, -0.8019190172614246 
0.919999999999915, -0.8020786218124966 
0.9299999999999139, -0.8022528519864256 
0.9399999999999128, -0.802381359944483 
0.9499999999999117, -0.8024158671469563 
0.9599999999999106, -0.8023190137756223 
0.9699999999999095, -0.8020640343290341 
0.9799999999999084, -0.8016352635138714 
0.9899999999999073, -0.8010290096989136 
0.9999999999999062, -0.8002539726869191 
1.0099999999999052, -0.7993303187089776 
1.019999999999904, -0.7982868856561068 
1.029999999999903, -0.7971566906378106 
1.039999999999902, -0.7959716306873914 
1.0499999999999008, -0.7947576405879625 
1.0599999999998997, -0.7935314419686247 
1.0699999999998986, -0.7922995132818663 
1.0799999999998975, -0.7910592970413761 
1.0899999999998964, -0.789802153022713 
1.0999999999998953, -0.7885172640898226 
1.1099999999998942, -0.7871956340893917 
1.119999999999893, -0.785833475406542 
1.129999999999892, -0.7844346014703394 
1.1399999999998909, -0.7830117875192917 
1.1499999999998898, -0.7815873013260828 
1.1599999999998887, -0.7801928607315861 
1.1699999999998876, -0.7788691723832653 
1.1799999999998865, -0.7776650400433623 
1.1899999999998854, -0.7766359056845263 
1.1999999999998843, -0.775841672679893 
1.2099999999998832, -0.7753437746592996 
1.219999999999882, -0.7752016588478754 
1.229999999999881, -0.775469071125891 
1.2399999999998799, -0.7761906717364849 
1.2499999999998788, -0.7773995115414846 
1.2599999999998777, -0.7791157511088288 
1.2699999999998766, -0.7813467599103502 
1.2799999999998755, -0.7840884726683234 
1.2899999999998744, -0.7873276757322473 
1.2999999999998733, -0.7910447792696055 
1.3099999999998722, -0.7952165892611257 
1.319999999999871, -0.7998185925414294 
1.32999999999987, -0.8048262785273016 
1.3399999999998689, -0.8102150371528033 
1.3499999999998678, -0.8159582211456987 
1.3599999999998666, -0.8220231028614494 
1.3699999999998655, -0.828364779673771 
1.3799999999998644, -0.8349186813133995 
1.3899999999998633, -0.8415932424336213 
1.3999999999998622, -0.8482653630894607 
1.4099999999998611, -0.8547819611202677 
1.41999999999986, -0.8609703358971051 
1.429999999999859, -0.8666574850624746 
1.4399999999998578, -0.8716943998565544 
1.4499999999998567, -0.8759779150111121 
1.4599999999998556, -0.8794626436796115 
1.4699999999998545, -0.88215958095209 
1.4799999999998534, -0.8841236297017693 
1.4899999999998523, -0.8854360137979639 
1.4999999999998512, -0.8861877005059511 
1.5099999999998501, -0.8864676670875323 
1.519999999999849, -0.8863572188311929 
1.529999999999848, -0.8859299326646806 
1.5399999999998468, -0.8852563375540199 
1.5499999999998457, -0.8844126810952629 
1.5599999999998446, -0.883493492260964 
1.5699999999998435, -0.882627658113277 
1.5799999999998424, -0.8819970320600543 
1.5899999999998413, -0.8818549875637225 
1.5999999999998402, -0.8825399800446214 
1.6099999999998391, -0.8844768767942232 
1.619999999999838, -0.8881580949302524 
1.629999999999837, -0.8940992236640434 
1.6399999999998358, -0.9027705905231782 
1.6499999999998347, -0.9145156702915846 
1.6599999999998336, -0.9294753793515529 
1.6699999999998325, -0.9475394240390407 
1.6799999999998314, -0.9683394055046161 
1.6899999999998303, -0.9912852191404461 
1.6999999999998292, -1.015632534730487 
1.709999999999828, -1.0405617225711354 
1.719999999999827, -1.0652506836805915 
1.729999999999826, -1.088933027157098 
1.7399999999998248, -1.1109425853711996 
1.7499999999998237, -1.1307496010740488 
1.7599999999998226, -1.1479911725880279 
1.7699999999998215, -1.162491667328762 
1.7799999999998204, -1.1742640182965332 
1.7899999999998193, -1.1834853207208875 
1.7999999999998182, -1.1904494535335148 
1.809999999999817, -1.1955090352638411 
1.819999999999816, -1.199022087657313 
1.8299999999998149, -1.2013142487845518 
1.8399999999998138, -1.2026596750274168 
1.8499999999998127, -1.2032778668786512 
1.8599999999998116, -1.2033414628482093 
1.8699999999998105, -1.2029906129009815 
1.8799999999998094, -1.2023509141088007 
1.8899999999998083, -1.2015524219114833 
1.8999999999998072, -1.2007460752524208 
1.909999999999806, -1.2001113730037172 
1.919999999999805, -1.1998477005261392 
1.9299999999998039, -1.2001453600827132 
1.9399999999998028, -1.2011430055874228 
1.9499999999998017, -1.2028901482923346 
1.9599999999998006, -1.2053350352498426 
1.9699999999997995, -1.2083444739895064 
1.9799999999997984, -1.2117435135293702 
1.9899999999997973, -1.2153548355572426 
1.9999999999997962, -1.2190240301493815 
2.0099999999998173, -1.2226286682244365 
2.0199999999998384, -1.2260767015667966 
2.0299999999998595, -1.2293008029144046 
2.0399999999998806, -1.232252674061868 
2.0499999999999017, -1.2348985390271523 
2.059999999999923, -1.2372155861896725 
2.069999999999944, -1.2391889140305399 
2.079999999999965, -1.2408088580089318 
2.089999999999986, -1.2420688949972871 
2.100000000000007, -1.2429644310649985 
2.1100000000000283, -1.2434926650157199 
2.1200000000000494, -1.2436534557183627 
2.1300000000000705, -1.243450840782848 
2.1400000000000916, -1.242894719803792 
2.1500000000001127, -1.2420023159965183 
2.160000000000134, -1.240799285243743 
2.170000000000155, -1.2393205262473865 
2.180000000000176, -1.2376106593296545 
2.190000000000197, -1.235723816667391 
2.2000000000002182, -1.233722167106379 
2.2100000000002393, -1.2316729424486788 
2.2200000000002604, -1.2296447171170468 
2.2300000000002815, -1.2277045731496328 
2.2400000000003026, -1.2259173211772492 
2.2500000000003237, -1.2243457514323335 
2.260000000000345, -1.2230485036008882 
2.270000000000366, -1.2220722421189552 
2.280000000000387, -1.2214386180649786 
2.290000000000408, -1.2211317112668785 
2.3000000000004293, -1.2210935888872534 
2.3100000000004504, -1.2212315945269747 
2.3200000000004715, -1.2214338326675944 
2.3300000000004926, -1.2215850112849014 
2.3400000000005137, -1.2215762340742191 
2.3500000000005348, -1.2213070607538086 
2.360000000000556, -1.2206821477249905 
2.370000000000577, -1.219606259618429 
2.380000000000598, -1.2179809964465385 
2.390000000000619, -1.2157053420567452 
2.4000000000006403, -1.2126806640425776 
2.4100000000006614, -1.2088191952346528 
2.4200000000006825, -1.2040535597070618 
2.4300000000007036, -1.19834422657898 
2.4400000000007247, -1.1916825153373958 
2.450000000000746, -1.1840888216796521 
2.460000000000767, -1.1756080389843486 
2.470000000000788, -1.166305479399863 
2.480000000000809, -1.1562664455834086 
2.49000000000083, -1.1456013473193696 
2.5000000000008513, -1.1344565003791758 
2.5100000000008724, -1.123028656324365 
2.5200000000008935, -1.1115786307036875 
2.5300000000009146, -1.1004361981366861 
2.5400000000009357, -1.0899862094750223 
2.550000000000957, -1.0806279558736582 
2.560000000000978, -1.0727093186154286 
2.570000000000999, -1.0664526982108218 
2.58000000000102, -1.0619017850172632 
2.5900000000010412, -1.0589147873049505 
2.6000000000010624, -1.0572084869397915 
2.6100000000010835, -1.0564322400782442 
2.6200000000011046, -1.0562401118123153 
2.6300000000011257, -1.056337915417847 
2.6400000000011468, -1.05649945296425 
2.650000000001168, -1.0565594488724233 
2.660000000001189, -1.0563945482755404 
2.67000000000121, -1.0559011912726786 
2.680000000001231, -1.054974943791066 
2.6900000000012523, -1.0534928561028363 
2.7000000000012734, -1.051299389807404 
2.7100000000012945, -1.0481971100049614 
2.7200000000013156, -1.0439450429031871 
2.7300000000013367, -1.0382693475024498 
2.740000000001358, -1.0308910579616952 
2.750000000001379, -1.021572005404639 
2.7600000000014, -1.0101718033493778 
2.770000000001421, -0.9966991156446579 
2.780000000001442, -0.981336639318673 
2.7900000000014633, -0.9644272917640869 
2.8000000000014844, -0.9464260548163875 
2.8100000000015055, -0.9278364037372282 
2.8200000000015266, -0.9091527893562201 
2.8300000000015477, -0.8908221034392695 
2.840000000001569, -0.8732256023531142 
2.85000000000159, -0.8566753326438228 
2.860000000001611, -0.8414173176563956 
2.870000000001632, -0.827635652718446 
2.8800000000016532, -0.8154547129034646 
2.8900000000016743, -0.8049393474172991 
2.9000000000016954, -0.7960946150319755 
2.9100000000017165, -0.7888672155842156 
2.9200000000017377, -0.7831504245610875 
2.9300000000017588, -0.7787933105555068 
2.94000000000178, -0.7756137031176573 
2.950000000001801, -0.7734132370239494 
2.960000000001822, -0.7719922082340673 
2.970000000001843, -0.7711620957604389 
2.9800000000018643, -0.7707543131399727 
2.9900000000018854, -0.7706247335240799 
3.0000000000019065, -0.7706544306523639 
3.0100000000019276, -0.7707476613605763 
3.0200000000019487, -0.7708283299001876 
3.03000000000197, -0.7708361024875198 
3.040000000001991, -0.7707231089061627 
3.050000000002012, -0.7704518682260836 
3.060000000002033, -0.7699947316914679 
3.070000000002054, -0.7693347267141645 
3.0800000000020753, -0.7684672141751944 
3.0900000000020964, -0.7674013404580765 
3.1000000000021175, -0.7661600957688964 
3.1100000000021386, -0.7647780999540493 
3.1200000000021597, -0.7632970296301306 
3.130000000002181, -0.761759549619716 
3.140000000002202, -0.7602032290971796 
3.150000000002223, -0.758655911122613 
3.160000000002244, -0.7571334571016889 
3.1700000000022652, -0.7556400530486073 
3.1800000000022863, -0.7541706552944913 
3.1900000000023074, -0.7527147969532305 
3.2000000000023285, -0.7512608657495002 
3.2100000000023496, -0.7498000587760695 
3.2200000000023707, -0.7483294748565535 
3.230000000002392, -0.7468541399839735 
3.240000000002413, -0.7453880590735719 
3.250000000002434, -0.7439545477860116 
3.260000000002455, -0.742586093138435 
3.2700000000024763, -0.7413238707983525 
3.2800000000024974, -0.7402168985533676 
3.2900000000025185, -0.7393207091398756 
3.3000000000025396, -0.7386954253626312 
3.3100000000025607, -0.7384032182896118 
3.3200000000025818, -0.7385052908741132 
3.330000000002603, -0.7390586963038855 
3.340000000002624, -0.7401134098011589 
3.350000000002645, -0.7417100801438005 
3.360000000002666, -0.7438787845260638 
3.3700000000026873, -0.7466389270335959 
3.3800000000027084, -0.7500002084112006 
3.3900000000027295, -0.7539644017610444 
3.4000000000027506, -0.7585275222651787 
3.4100000000027717, -0.7636818796463092 
3.420000000002793, -0.7694174347930293 
3.430000000002814, -0.7757218348284979 
3.440000000002835, -0.7825784851758727 
3.450000000002856, -0.7899620853261377 
3.460000000002877, -0.7978313144942536 
3.4700000000028983, -0.8061189652197034 
3.4800000000029194, -0.8147209482584049 
3.4900000000029405, -0.8234872204886786 
3.5000000000029616, -0.8322193229437209 
3.5100000000029827, -0.8406796201401212 
3.520000000003004, -0.8486148940027961 
3.530000000003025, -0.855791173673762 
3.540000000003046, -0.8620299738732302 
3.550000000003067, -0.8672332584025176 
3.5600000000030882, -0.8713886210508025 
3.5700000000031094, -0.8745551383204467 
3.5800000000031305, -0.8768379829675564 
3.5900000000031516, -0.8783618866768635 
3.6000000000031727, -0.879250536994531 
3.6100000000031938, -0.8796144865897843 
3.620000000003215, -0.8795469487298941 
3.630000000003236, -0.8791256983750141 
3.640000000003257, -0.8784196049064198 
3.650000000003278, -0.8774992404229413 
3.6600000000032993, -0.8764519215648959 
3.6700000000033204, -0.8754020563336257 
3.6800000000033415, -0.8745374184204909 
3.6900000000033626, -0.8741405259155299 
3.7000000000033837, -0.8746212622920849 
3.710000000003405, -0.87654227982825 
3.720000000003426, -0.8806236155241867 
3.730000000003447, -0.8877097711311853 
3.740000000003468, -0.8986847506878836 
3.750000000003489, -0.9143313849857687 
3.7600000000035103, -0.9351514114663657 
3.7700000000035314, -0.9611878447374292 
3.7800000000035525, -0.9919095996326516 
3.7900000000035736, -1.0262137486500493 
3.8000000000035947, -1.0625640321292191 
3.810000000003616, -1.0992289754721793 
3.820000000003637, -1.1345435543247415 
3.830000000003658, -1.167120787805572 
3.840000000003679, -1.1959758353625056 
3.8500000000037002, -1.2205637485905958 
3.8600000000037213, -1.240750929211915 
3.8700000000037424, -1.2567415455096647 
3.8800000000037635, -1.26897718758904 
3.8900000000037847, -1.2780282890043464 
3.9000000000038058, -1.2844963761476005 
3.910000000003827, -1.288941838657435 
3.920000000003848, -1.2918428121717282 
3.930000000003869, -1.2935817554065763 
3.94000000000389, -1.2944515045463039 
3.9500000000039113, -1.294672463158297 
3.9600000000039324, -1.294415018809618 
3.9700000000039535, -1.2938237661356686 
3.9800000000039746, -1.2930409007355663 
3.9900000000039957, -1.2922245247840551 
4.000000000004016, -1.291554617380953 
4.010000000003993, -1.2912188920299525 
4.02000000000397, -1.2913778411143066 
4.030000000003946, -1.2921226902168161 
4.040000000003923, -1.2934502337932232 
4.0500000000039, -1.2952708816140641 
4.0600000000038765, -1.2974441287047822 
4.070000000003853, -1.2998195028681911 
4.08000000000383, -1.3022638622398155 
4.090000000003807, -1.304670259970773 
4.100000000003783, -1.3069549295000535 
4.11000000000376, -1.309051144355796 
4.120000000003737, -1.3109048998662447 
4.130000000003713, -1.3124730305460428 
4.14000000000369, -1.313722413174851 
4.150000000003667, -1.3146290686849433 
4.1600000000036434, -1.3151767965043253 
4.17000000000362, -1.3153554944476828 
4.180000000003597, -1.3151594375985203 
4.1900000000035735, -1.3145857646059413 
4.20000000000355, -1.3136334042263924 
4.210000000003527, -1.3123026520000185 
4.220000000003504, -1.3105955209612148 
4.23000000000348, -1.3085168477272355 
4.240000000003457, -1.3060759924812517 
4.250000000003434, -1.30328887823768 
4.26000000000341, -1.3001801178447647 
4.270000000003387, -1.2967851777118617 
4.280000000003364, -1.2931530335450891 
4.2900000000033405, -1.289350387271013 
4.300000000003317, -1.2854683581604478 
4.310000000003294, -1.2816303617618379 
4.320000000003271, -1.277995461465875 
4.330000000003247, -1.2747476080478062 
4.340000000003224, -1.2720635183470366 
4.350000000003201, -1.2700642604854855 
4.360000000003177, -1.2687719751919 
4.370000000003154, -1.2680975251726203 
4.380000000003131, -1.2678675290879338 
4.390000000003107, -1.2678734404132077 
4.400000000003084, -1.2679148211853848 
4.410000000003061, -1.2678195890573818 
4.4200000000030375, -1.267440882825552 
4.430000000003014, -1.2666391939540704 
4.440000000002991, -1.2652582374483008 
4.450000000002968, -1.2630993719312729 
4.460000000002944, -1.259896866644017 
4.470000000002921, -1.255296513098449 
4.480000000002898, -1.248842678960018 
4.490000000002874, -1.2399825520160084 
4.500000000002851, -1.2280985168364513 
4.510000000002828, -1.2125769300238718 
4.520000000002804, -1.1929117814338979 
4.530000000002781, -1.1688271566193904 
4.540000000002758, -1.1403905362486133 
4.5500000000027345, -1.1080870314872373 
4.560000000002711, -1.0728326466991756 
4.570000000002688, -1.0359161446422969 
4.580000000002665, -0.998870093174705 
4.590000000002641, -0.9632851500547811 
4.600000000002618, -0.9305999333177342 
4.610000000002595, -0.9019142955298484 
4.620000000002571, -0.8778727534792913 
4.630000000002548, -0.8586424328990506 
4.640000000002525, -0.8439776897074149 
4.6500000000025015, -0.8333393945553257 
4.660000000002478, -0.8260300864248418 
4.670000000002455, -0.8213139394655444 
4.6800000000024315, -0.8185043235086495 
4.690000000002408, -0.8170147463959068 
4.700000000002385, -0.8163779030306814 
4.710000000002362, -0.816241896495257 
4.720000000002338, -0.8163532966560553 
4.730000000002315, -0.8165349708230155 
4.740000000002292, -0.8166639857267777 
4.750000000002268, -0.8166524036755692 
4.760000000002245, -0.816432025936957 
4.770000000002222, -0.8159431837904093 
4.7800000000021985, -0.815127399273921 
4.790000000002175, -0.8139238866700528 
4.800000000002152, -0.8122701483678605 
4.810000000002129, -0.8101069864383627 
4.820000000002105, -0.8073877302992426 
4.830000000002082, -0.8040901645456499 
4.840000000002059, -0.8002278557533701 
4.850000000002035, -0.7958564048456701 
4.860000000002012, -0.7910709442760201 
4.870000000001989, -0.7859943217442386 
4.880000000001965, -0.7807593666666781 
4.890000000001942, -0.7754909500588659 
4.900000000001919, -0.7702928931211129 
4.9100000000018955, -0.765242016563738 
4.920000000001872, -0.7603887329618152 
4.930000000001849, -0.7557619474196947 
