t, s[1].omega / s[0].omega 
0, -1.1000085789467855 
0.009999999999999995, -1.100727759869129 
0.019999999999999934, -1.1011652235162985 
0.029999999999999874, -1.1013262167115883 
0.04000000000000012, -1.1012354218993647 
0.050000000000000405, -1.1009324390752617 
0.06000000000000069, -1.1004675372151955 
0.07000000000000098, -1.099901172004106 
0.08000000000000126, -1.0993064431130155 
0.09000000000000155, -1.098768445001902 
0.10000000000000184, -1.098373486608273 
0.11000000000000212, -1.0981884455296618 
0.12000000000000241, -1.0982412678606641 
0.130000000000002, -1.098514778867412 
0.1400000000000009, -1.0989553835720316 
0.1499999999999998, -1.0994894608143484 
0.1599999999999987, -1.1000400094662015 
0.1699999999999976, -1.1005389107451582 
0.1799999999999965, -1.100932910580627 
0.1899999999999954, -1.1011843022339218 
0.1999999999999943, -1.1012688303464526 
0.2099999999999932, -1.101172950985446 
0.2199999999999921, -1.1008917549948793 
0.229999999999991, -1.1004283695994201 
0.2399999999999899, -1.0997949850297624 
0.2499999999999888, -1.099014905111362 
0.2599999999999877, -1.0981248492899558 
0.2699999999999866, -1.0971766428963705 
0.2799999999999855, -1.0962364750217004 
0.2899999999999844, -1.0953790948463642 
0.2999999999999833, -1.0946758801952148 
0.3099999999999822, -1.09417917696015 
0.3199999999999811, -1.0939077360633103 
0.32999999999998, -1.0938390454681044 
0.3399999999999789, -1.0939138501552725 
0.3499999999999778, -1.0940524557762967 
0.35999999999997667, -1.0941738062492672 
0.36999999999997557, -1.0942073556360934 
0.37999999999997447, -1.0940958516608181 
0.38999999999997337, -1.0937942033912977 
0.39999999999997227, -1.0932696325182572 
0.40999999999997117, -1.0925040199972422 
0.41999999999997006, -1.0914958913343178 
0.42999999999996896, -1.0902598500434235 
0.43999999999996786, -1.0888243942586036 
0.44999999999996676, -1.0872310033144568 
0.45999999999996566, -1.0855360628824458 
0.46999999999996456, -1.0838142033120657 
0.47999999999996346, -1.0821592130927065 
0.48999999999996235, -1.0806775889337064 
0.49999999999996125, -1.0794704904344545 
0.5099999999999602, -1.0786048786052478 
0.519999999999959, -1.0780857842529197 
0.529999999999958, -1.0778498337901288 
0.5399999999999568, -1.0777885844876522 
0.5499999999999557, -1.0777849893786453 
0.5599999999999546, -1.0777379007445067 
0.5699999999999535, -1.077565604555869 
0.5799999999999524, -1.077196695882677 
0.5899999999999513, -1.07656073354689 
0.5999999999999502, -1.0755871134788344 
0.6099999999999491, -1.0742148570801928 
0.619999999999948, -1.0724094059502307 
0.6299999999999469, -1.0701771375117985 
0.6399999999999458, -1.0675698246550558 
0.6499999999999447, -1.064680023670922 
0.6599999999999436, -1.0616350148244789 
0.6699999999999425, -1.0585938680785336 
0.6799999999999414, -1.055742723730575 
0.6899999999999403, -1.0532759629374215 
0.6999999999999392, -1.051354047198111 
0.7099999999999381, -1.050048480483578 
0.719999999999937, -1.0493095007925817 
0.7299999999999359, -1.0489880138779395 
0.7399999999999348, -1.048898977954126 
0.7499999999999337, -1.0488792155051614 
0.7599999999999326, -1.0488086889566721 
0.7699999999999315, -1.048600073892166 
0.7799999999999304, -1.0481762455754182 
0.7899999999999293, -1.047450270736847 
0.7999999999999282, -1.0463156923744095 
0.8099999999999271, -1.0446528878226773 
0.819999999999926, -1.0423549410887467 
0.8299999999999249, -1.0393671657362158 
0.8399999999999238, -1.0357218897891012 
0.8499999999999227, -1.031549891584191 
0.8599999999999216, -1.027067105814616 
0.8699999999999205, -1.0225500115746646 
0.8799999999999194, -1.0183074392982217 
0.8899999999999183, -1.0146405377860463 
0.8999999999999172, -1.0117809427845688 
0.9099999999999161, -1.009821665794515 
0.919999999999915, -1.0086851035167337 
0.9299999999999139, -1.0081625063939914 
0.9399999999999128, -1.0080028107896326 
0.9499999999999117, -1.0079902712864508 
0.9599999999999106, -1.0079735828115417 
0.9699999999999095, -1.007853985414912 
0.9799999999999084, -1.0075573919576797 
0.9899999999999073, -1.0070078933408526 
0.9999999999999062, -1.0061097006201054 
1.0099999999999052, -1.0047418302455298 
1.019999999999904, -1.002771604293724 
1.029999999999903, -1.000090618935973 
1.039999999999902, -0.9966636510467846 
1.0499999999999008, -0.9925651196854132 
1.0599999999998997, -0.987980795483382 
1.0699999999998986, -0.9831776676093572 
1.0799999999998975, -0.9784631393943244 
1.0899999999998964, -0.9741463660948506 
1.0999999999998953, -0.970496810894603 
1.1099999999998942, -0.9676939755314142 
1.119999999999893, -0.9657817941369281 
1.129999999999892, -0.9646587475413 
1.1399999999998909, -0.9641211587515908 
1.1499999999998898, -0.9639374142022614 
1.1599999999998887, -0.9639091354780241 
1.1699999999998876, -0.9638942008864438 
1.1799999999998865, -0.9637977284582883 
1.1899999999998854, -0.9635498861714208 
1.1999999999998843, -0.9630847229974538 
1.2099999999998832, -0.9623268685016436 
1.219999999999882, -0.9611900780866476 
1.229999999999881, -0.9595908593719494 
1.2399999999998799, -0.957475745168958 
1.2499999999998788, -0.9548503667924351 
1.2599999999998777, -0.9517919793715564 
1.2699999999998766, -0.9484368728971797 
1.2799999999998755, -0.9449532679632862 
1.2899999999998744, -0.941517251546426 
1.2999999999998733, -0.9382988129863582 
1.3099999999998722, -0.9354521098280992 
1.319999999999871, -0.9331009264526162 
1.32999999999987, -0.9313172313795111 
1.3399999999998689, -0.9301018063201878 
1.3499999999998678, -0.9293817197294162 
1.3599999999998666, -0.929031750953136 
1.3699999999998655, -0.928910040106788 
1.3799999999998644, -0.9288888810002269 
1.3899999999998633, -0.9288683968843786 
1.3999999999998622, -0.9287742471854085 
1.4099999999998611, -0.9285480046398064 
1.41999999999986, -0.9281386722876934 
1.429999999999859, -0.9275005885509586 
1.4399999999998578, -0.926599233638794 
1.4499999999998567, -0.9254218156364817 
1.4599999999998556, -0.9239851881207588 
1.4699999999998545, -0.9223342709290057 
1.4799999999998534, -0.9205314205947015 
1.4899999999998523, -0.9186442931416261 
1.4999999999998512, -0.9167392211355476 
1.5099999999998501, -0.9148809686787495 
1.519999999999849, -0.9131348647630849 
1.529999999999848, -0.9115666327218624 
1.5399999999998468, -0.910237248548792 
1.5499999999998457, -0.9091930483988591 
1.5599999999998446, -0.9084542813111991 
1.5699999999998435, -0.9080074628798023 
1.5799999999998424, -0.9078064066360578 
1.5899999999998413, -0.9077826106908443 
1.5999999999998402, -0.9078601933590145 
1.6099999999998391, -0.9079685408767773 
1.619999999999838, -0.9080488545416368 
1.629999999999837, -0.9080555040119955 
1.6399999999998358, -0.9079555076695547 
1.6499999999998347, -0.9077285679546747 
1.6599999999998336, -0.9073674616271606 
1.6699999999998325, -0.9068767770699196 
1.6799999999998314, -0.9062689256205347 
1.6899999999998303, -0.9055591940722889 
1.6999999999998292, -0.9047630307370869 
1.709999999999828, -0.9038970472981246 
1.719999999999827, -0.9029824519273714 
1.729999999999826, -0.902048536385356 
1.7399999999998248, -0.9011344813796672 
1.7499999999998237, -0.900288489835933 
1.7599999999998226, -0.8995635244315341 
1.7699999999998215, -0.8990095991189475 
1.7799999999998204, -0.8986641939398489 
1.7899999999998193, -0.8985439506233137 
1.7999999999998182, -0.8986408822072256 
1.809999999999817, -0.8989245974660302 
1.819999999999816, -0.8993495429162696 
1.8299999999998149, -0.8998643713435719 
1.8399999999998138, -0.9004201952683699 
1.8499999999998127, -0.9009756426070528 
1.8599999999998116, -0.9014982316436365 
1.8699999999998105, -0.9019626388376153 
1.8799999999998094, -0.9023471111510432 
1.8899999999998083, -0.9026301648110582 
1.8999999999998072, -0.9027902021394432 
1.909999999999806, -0.9028092329917232 
1.919999999999805, -0.9026787235362883 
1.9299999999998039, -0.9024037714516593 
1.9399999999998028, -0.9020036595886485 
1.9499999999998017, -0.9015103647128221 
1.9599999999998006, -0.9009679289124785 
1.9699999999997995, -0.9004337234777463 
1.9799999999997984, -0.8999794900539244 
1.9899999999997973, -0.89968806120404 
1.9999999999997962, -0.899642751405958 
2.0099999999998173, -0.8999109910689542 
2.0199999999998384, -0.9005289191437921 
2.0299999999998595, -0.9014943870651686 
2.0399999999998806, -0.9027708015413222 
2.0499999999999017, -0.9042979197869163 
2.059999999999923, -0.9060030699767532 
2.069999999999944, -0.9078079251967832 
2.079999999999965, -0.909629726233051 
2.089999999999986, -0.9113799077683344 
2.100000000000007, -0.9129660073004068 
2.1100000000000283, -0.9143019702672726 
2.1200000000000494, -0.9153254324571922 
2.1300000000000705, -0.9160121941734312 
2.1400000000000916, -0.9163775749113834 
2.1500000000001127, -0.9164643160016338 
2.160000000000134, -0.9163265229601063 
2.170000000000155, -0.9160195417379338 
2.180000000000176, -0.9155998888044472 
2.190000000000197, -0.9151344347467749 
2.2000000000002182, -0.9147153213165458 
2.2100000000002393, -0.9144739400245294 
2.2200000000002604, -0.9145830957952364 
2.2300000000002815, -0.9152361838799546 
2.2400000000003026, -0.9166027095926225 
2.2500000000003237, -0.9187775247297465 
2.260000000000345, -0.9217491824365229 
2.270000000000366, -0.9253993563501789 
2.280000000000387, -0.9295240062523605 
2.290000000000408, -0.9338601161756165 
2.3000000000004293, -0.9381129025060272 
2.3100000000004504, -0.9419917713463329 
2.3200000000004715, -0.9452609461806742 
2.3300000000004926, -0.9477896866830975 
2.3400000000005137, -0.9495710728908696 
2.3500000000005348, -0.9506947956000884 
2.360000000000556, -0.9512940704450765 
2.370000000000577, -0.9514993108570599 
2.380000000000598, -0.9514151401980483 
2.390000000000619, -0.9511188408869419 
2.4000000000006403, -0.9506729476040803 
2.4100000000006614, -0.950148129733909 
2.4200000000006825, -0.9496557340867516 
2.4300000000007036, -0.9493857363819561 
2.4400000000007247, -0.9496323672638871 
2.450000000000746, -0.950774145676947 
2.460000000000767, -0.9531823519910667 
2.470000000000788, -0.9570796542993488 
2.480000000000809, -0.9624229652046996 
2.49000000000083, -0.9688773000044792 
2.5000000000008513, -0.9758852868144425 
2.5100000000008724, -0.9827932990153994 
2.5200000000008935, -0.9889976999204393 
2.5300000000009146, -0.9940794451738635 
2.5400000000009357, -0.9978799011320814 
2.550000000000957, -1.0004795297373659 
2.560000000000978, -1.0020991111360271 
2.570000000000999, -1.0029903524024502 
2.58000000000102, -1.0033671075112591 
2.5900000000010412, -1.0033835656775156 
2.6000000000010624, -1.0031416378195352 
2.6100000000010835, -1.002711795530185 
2.6200000000011046, -1.0021623967388393 
2.6300000000011257, -1.0015997640801297 
2.6400000000011468, -1.0012183425729901 
2.650000000001168, -1.0013415080955683 
2.660000000001189, -1.0024056323010386 
2.67000000000121, -1.0048419803139532 
2.680000000001231, -1.0088843660035403 
2.6900000000012523, -1.01442211031348 
2.7000000000012734, -1.0210020318364559 
2.7100000000012945, -1.0279643631795135 
2.7200000000013156, -1.0346224640240071 
2.7300000000013367, -1.0404184921176436 
2.740000000001358, -1.045025614167694 
2.750000000001379, -1.0483749763473411 
2.7600000000014, -1.0506004561026638 
2.770000000001421, -1.0519356102490447 
2.780000000001442, -1.0526197436120208 
2.7900000000014633, -1.0528466569654944 
2.8000000000014844, -1.0527539476965695 
2.8100000000015055, -1.0524362608261169 
2.8200000000015266, -1.0519707058845085 
2.8300000000015477, -1.0514509750494674 
2.840000000001569, -1.051027087982216 
2.85000000000159, -1.050934392467185 
2.860000000001611, -1.0514759677200058 
2.870000000001632, -1.0529309378307683 
2.8800000000016532, -1.0554244948524907 
2.8900000000016743, -1.0588545342569922 
2.9000000000016954, -1.0629293186052784 
2.9100000000017165, -1.0672716128741746 
2.9200000000017377, -1.0715131854434081 
2.9300000000017588, -1.0753493542124686 
2.94000000000178, -1.0785661633047405 
2.950000000001801, -1.081055207621906 
2.960000000001822, -1.0828136772680477 
2.970000000001843, -1.0839215065294767 
2.9800000000018643, -1.0845012280404036 
2.9900000000018854, -1.0846793170133462 
3.0000000000019065, -1.0845643411232728 
3.0100000000019276, -1.0842449231489943 
3.0200000000019487, -1.0838028141320666 
3.03000000000197, -1.0833341533141745 
3.040000000001991, -1.0829682346773284 
3.050000000002012, -1.0828661062523586 
3.060000000002033, -1.0831838248478434 
3.070000000002054, -1.0840121193928005 
3.0800000000020753, -1.0853354752708098 
3.0900000000020964, -1.0870427123185906 
3.1000000000021175, -1.0889745114672567 
3.1100000000021386, -1.090970179076339 
3.1200000000021597, -1.0928927402685755 
3.130000000002181, -1.094634700040327 
3.140000000002202, -1.0961156042638582 
3.150000000002223, -1.0972803816758234 
3.160000000002244, -1.098101274348906 
3.1700000000022652, -1.098580042139583 
3.1800000000022863, -1.0987453202790451 
3.1900000000023074, -1.0986443155833445 
3.2000000000023285, -1.0983337755137432 
3.2100000000023496, -1.0978761780685393 
3.2200000000023707, -1.097342772899096 
3.230000000002392, -1.096818788609782 
3.240000000002413, -1.0964013831250705 
3.250000000002434, -1.0961828947072505 
3.260000000002455, -1.0962240782387913 
3.2700000000024763, -1.096534504764379 
3.2800000000024974, -1.0970733038585956 
3.2900000000025185, -1.097766620127081 
3.3000000000025396, -1.098529156266824 
3.3100000000025607, -1.0992809024186188 
3.3200000000025818, -1.0999563032112427 
3.330000000002603, -1.1005066484366164 
3.340000000002624, -1.1008982034782442 
3.350000000002645, -1.101108975671853 
3.360000000002666, -1.1011263669599198 
3.3700000000026873, -1.1009467984915333 
3.3800000000027084, -1.100576952759313 
3.3900000000027295, -1.1000353693920664 
3.4000000000027506, -1.0993536454515769 
3.4100000000027717, -1.0985774698080832 
3.420000000002793, -1.0977670628756784 
3.430000000002814, -1.0969943945887226 
3.440000000002835, -1.0963340787567513 
3.450000000002856, -1.0958485385679535 
3.460000000002877, -1.095572808668557 
3.4700000000028983, -1.0955050420075507 
3.4800000000029194, -1.095606296560593 
3.4900000000029405, -1.0958104367252453 
3.5000000000029616, -1.0960405543016531 
3.5100000000029827, -1.0962240986883853 
3.520000000003004, -1.0963009079390327 
3.530000000003025, -1.096224840559089 
3.540000000003046, -1.0959632519654412 
3.550000000003067, -1.0954969315677514 
3.5600000000030882, -1.0948200710100129 
3.5700000000031094, -1.093939120514384 
3.5800000000031305, -1.0928710715749592 
3.5900000000031516, -1.091643019117749 
3.6000000000031727, -1.0902940498661018 
3.6100000000031938, -1.0888785098408187 
3.620000000003215, -1.0874680438323467 
3.630000000003236, -1.0861490399686824 
3.640000000003257, -1.0850124201764217 
3.650000000003278, -1.084134574213715 
3.6600000000032993, -1.0835531908394676 
3.6700000000033204, -1.083249758862641 
3.6800000000033415, -1.0831527396569354 
3.6900000000033626, -1.0831619243263364 
3.7000000000033837, -1.0831767936028216 
3.710000000003405, -1.0831116147376318 
3.720000000003426, -1.0828951058048464 
3.730000000003447, -1.0824637633074143 
3.740000000003468, -1.0817585133673082 
3.750000000003489, -1.0807292355341689 
3.7600000000035103, -1.0793453302861562 
3.7700000000035314, -1.0776056824963947 
3.7800000000035525, -1.0755419350400381 
3.7900000000035736, -1.0732152571849123 
3.8000000000035947, -1.0707122488144554 
3.810000000003616, -1.0681443438176859 
3.820000000003637, -1.0656486881878127 
3.830000000003658, -1.063382200159265 
3.840000000003679, -1.0614987024500802 
3.8500000000037002, -1.0601069400717225 
3.8600000000037213, -1.059227163303174 
3.8700000000037424, -1.0587790214794748 
3.8800000000037635, -1.058615868459298 
3.8900000000037847, -1.0585803651497798 
3.9000000000038058, -1.0585424321151096 
3.910000000003827, -1.058405136944111 
3.920000000003848, -1.0580899438930507 
3.930000000003869, -1.0575179202105747 
3.94000000000389, -1.0565978299799483 
3.9500000000039113, -1.0552275784288818 
3.9600000000039324, -1.0533122501653267 
3.9700000000039535, -1.0507947571095535 
3.9800000000039746, -1.0476850985597264 
3.9900000000039957, -1.0440727384183561 
4.000000000004016, -1.0401194439492036 
4.010000000003993, -1.0360432147385086 
4.02000000000397, -1.0321013089099416 
4.030000000003946, -1.0285659946685812 
4.040000000003923, -1.02567918237854 
4.0500000000039, -1.023586760580003 
4.0600000000038765, -1.0222853672552512 
4.070000000003853, -1.0216267580999285 
4.08000000000383, -1.0213856924590987 
4.090000000003807, -1.0213430296370933 
4.100000000003783, -1.0213327950776199 
4.11000000000376, -1.0212437330022426 
4.120000000003737, -1.0209961205312337 
4.130000000003713, -1.0205147534898111 
4.14000000000369, -1.0197084436300703 
4.150000000003667, -1.0184610976507298 
4.1600000000036434, -1.0166401794782027 
4.17000000000362, -1.0141273574938392 
4.180000000003597, -1.010865508560346 
4.1900000000035735, -1.0069000170745033 
4.20000000000355, -1.00239016306529 
4.210000000003527, -0.9975874617416647 
4.220000000003504, -0.99279860808405 
4.23000000000348, -0.9883469451904177 
4.240000000003457, -0.9845288367608911 
4.250000000003434, -0.9815575333623059 
4.26000000000341, -0.9795070943706172 
4.270000000003387, -0.9782917864602455 
4.280000000003364, -0.9777061244093849 
4.2900000000033405, -0.977505442743402 
4.300000000003317, -0.9774766681266052 
4.310000000003294, -0.9774671805490909 
4.320000000003271, -0.9773765254777906 
4.330000000003247, -0.9771322071691506 
4.340000000003224, -0.9766658069767928 
4.350000000003201, -0.9758968455827111 
4.360000000003177, -0.9747284588148057 
4.370000000003154, -0.9730591905673114 
4.380000000003131, -0.9708120587269127 
4.390000000003107, -0.9679710611214286 
4.400000000003084, -0.964604262993236 
4.410000000003061, -0.9608581101040468 
4.4200000000030375, -0.9569292355632169 
4.430000000003014, -0.9530335630109255 
4.440000000002991, -0.9493843159440667 
4.450000000002968, -0.9461747108090138 
4.460000000002944, -0.9435555806834867 
4.470000000002921, -0.9416066930823425 
4.480000000002898, -0.9403149242677544 
4.490000000002874, -0.9395778890306639 
4.500000000002851, -0.9392378204464652 
4.510000000002828, -0.9391281145414252 
4.520000000002804, -0.9391076941126718 
4.530000000002781, -0.9390718061077346 
4.540000000002758, -0.9389446681764524 
4.5500000000027345, -0.9386656004791119 
4.560000000002711, -0.9381778831829205 
4.570000000002688, -0.9374256386526916 
4.580000000002665, -0.9363608144982889 
4.590000000002641, -0.9349578392338659 
4.600000000002618, -0.9332275471645881 
4.610000000002595, -0.9312201663094614 
4.620000000002571, -0.9290146435706477 
4.630000000002548, -0.9267022742164178 
4.640000000002525, -0.9243749628926979 
4.6500000000025015, -0.9221215306674013 
4.660000000002478, -0.9200281177902749 
4.670000000002455, -0.9181766015404886 
4.6800000000024315, -0.9166372278392825 
4.690000000002408, -0.9154559120524703 
4.700000000002385, -0.9146412561111601 
4.710000000002362, -0.9141589484731781 
4.720000000002338, -0.9139387279747014 
4.730000000002315, -0.9138916228717944 
4.740000000002292, -0.9139287234394035 
4.750000000002268, -0.9139732897303808 
4.760000000002245, -0.9139641428352719 
4.770000000002222, -0.913853861885421 
4.7800000000021985, -0.9136067486879774 
4.790000000002175, -0.9131994390030662 
4.800000000002152, -0.9126234673223446 
4.810000000002129, -0.9118863895310344 
4.820000000002105, -0.911008664614477 
4.830000000002082, -0.910017319436802 
4.840000000002059, -0.9089405264521384 
4.850000000002035, -0.907806262696265 
4.860000000002012, -0.9066447338650427 
4.870000000001989, -0.9054919113184292 
4.880000000001965, -0.9043914897380937 
4.890000000001942, -0.9033935631548035 
4.900000000001919, -0.9025493921311891 
4.9100000000018955, -0.9019029581324827 
4.920000000001872, -0.9014815877118325 
4.930000000001849, -0.9012889733652679 
