t, s[1].omega / s[0].omega 
0, -1.119998285288811 
0.009999999999999995, -1.1197051239781495 
0.019999999999999934, -1.1191834954668696 
0.029999999999999874, -1.1185212191166953 
0.04000000000000012, -1.1179122328608992 
0.050000000000000405, -1.1175624896674086 
0.06000000000000069, -1.1175033522538098 
0.07000000000000098, -1.117477397749923 
0.08000000000000126, -1.1171897938668032 
0.09000000000000155, -1.116461681421514 
0.10000000000000184, -1.1152847484159245 
0.11000000000000212, -1.1137714208799558 
0.12000000000000241, -1.112093027330513 
0.130000000000002, -1.1106444335815226 
0.1400000000000009, -1.1099470182172744 
0.1499999999999998, -1.1098276402000384 
0.1599999999999987, -1.1096652265537055 
0.1699999999999976, -1.1089891032821053 
0.1799999999999965, -1.1071936045123985 
0.1899999999999954, -1.1037879169522664 
0.1999999999999943, -1.0990498949895124 
0.2099999999999932, -1.094004468166014 
0.2199999999999921, -1.090602576555505 
0.229999999999991, -1.089724821384665 
0.2399999999999899, -1.08973649496642 
0.2499999999999888, -1.089532619608909 
0.2599999999999877, -1.0885353282656185 
0.2699999999999866, -1.0851492205763345 
0.2799999999999855, -1.0762512589093804 
0.2899999999999844, -1.0612424911540885 
0.2999999999999833, -1.0462391973587115 
0.3099999999999822, -1.0391718538685288 
0.3199999999999811, -1.038376646673818 
0.32999999999998, -1.0386134830408813 
0.3399999999999789, -1.038488609649277 
0.3499999999999778, -1.0375732960515367 
0.35999999999997667, -1.0340571034157549 
0.36999999999997557, -1.0223354329687808 
0.37999999999997447, -0.9978124226803894 
0.38999999999997337, -0.9716367849395722 
0.39999999999997227, -0.9588716984902566 
0.40999999999997117, -0.9568071335009194 
0.41999999999997006, -0.9570690307936328 
0.42999999999996896, -0.9571469691941836 
0.43999999999996786, -0.9567029972145146 
0.44999999999996676, -0.9550059057046121 
0.45999999999996566, -0.9497487470081599 
0.46999999999996456, -0.9384960488618095 
0.47999999999996346, -0.9242635943230074 
0.48999999999996235, -0.9130371064563205 
0.49999999999996125, -0.907753063989921 
0.5099999999999602, -0.9066211089375326 
0.519999999999959, -0.9066341488955267 
0.529999999999958, -0.9065694917989631 
0.5399999999999568, -0.9060581148406653 
0.5499999999999557, -0.9045957601930872 
0.5599999999999546, -0.9016730095184768 
0.5699999999999535, -0.8977678545857751 
0.5799999999999524, -0.8939262590697108 
0.5899999999999513, -0.8908255307427068 
0.5999999999999502, -0.8889038754964997 
0.6099999999999491, -0.8881733866162541 
0.619999999999948, -0.8880576406012622 
0.6299999999999469, -0.8879883857916279 
0.6399999999999458, -0.8876668009157918 
0.6499999999999447, -0.8869406554641247 
0.6599999999999436, -0.8858804467600979 
0.6699999999999425, -0.8847174285268822 
0.6799999999999414, -0.8835990403722543 
0.6899999999999403, -0.8826263050160672 
0.6999999999999392, -0.8819410336086615 
0.7099999999999381, -0.8816429374095217 
0.719999999999937, -0.8816540352192708 
0.7299999999999359, -0.881759784037381 
0.7399999999999348, -0.8817905560234859 
0.7499999999999337, -0.8817040912033856 
0.7599999999999326, -0.8815303515665611 
0.7699999999999315, -0.8812607695429919 
0.7799999999999304, -0.8808842206489972 
0.7899999999999293, -0.8804966001254318 
0.7999999999999282, -0.8803004456134227 
0.8099999999999271, -0.8804646241577366 
0.819999999999926, -0.8809788684891822 
0.8299999999999249, -0.8817090233225683 
0.8399999999999238, -0.8825335320076568 
0.8499999999999227, -0.8833557552296463 
0.8599999999999216, -0.8839886054157258 
0.8699999999999205, -0.8842386941836694 
0.8799999999999194, -0.8841380229375553 
0.8899999999999183, -0.883891010832606 
0.8999999999999172, -0.8838918692229641 
0.9099999999999161, -0.8847809547552757 
0.919999999999915, -0.8869356834363242 
0.9299999999999139, -0.8901297505119975 
0.9399999999999128, -0.8938596686329625 
0.9499999999999117, -0.8972654134899759 
0.9599999999999106, -0.8993339141047789 
0.9699999999999095, -0.900059651381149 
0.9799999999999084, -0.9000646245092194 
0.9899999999999073, -0.8997444923683218 
0.9999999999999062, -0.8996196785545068 
1.0099999999999052, -0.90170078019982 
1.019999999999904, -0.9095819437301137 
1.029999999999903, -0.9237486288039025 
1.039999999999902, -0.93898842103456 
1.0499999999999008, -0.9485139957314179 
1.0599999999998997, -0.951939853107476 
1.0699999999998986, -0.9527333200068249 
1.0799999999998975, -0.9526492784258447 
1.0899999999998964, -0.9521052800178338 
1.0999999999998953, -0.9516773409762563 
1.1099999999998942, -0.9561664406137614 
1.119999999999893, -0.9769963815666263 
1.129999999999892, -1.010371781195726 
1.1399999999998909, -1.0337164837959139 
1.1499999999998898, -1.0419517008955261 
1.1599999999998887, -1.043876162897625 
1.1699999999998876, -1.0440990195576083 
1.1799999999998865, -1.0437198463025348 
1.1899999999998854, -1.04314527664634 
1.1999999999998843, -1.0451583842754486 
1.2099999999998832, -1.0563183216445209 
1.219999999999882, -1.074046138853238 
1.229999999999881, -1.088085623306404 
1.2399999999998799, -1.0945696056695042 
1.2499999999998788, -1.0964465971514687 
1.2599999999998777, -1.0967067946642082 
1.2699999999998766, -1.096427229937062 
1.2799999999998755, -1.0962167049465898 
1.2899999999998744, -1.0976786525963276 
1.2999999999998733, -1.101757632758072 
1.3099999999998722, -1.1066154505359347 
1.319999999999871, -1.1105999266542963 
1.32999999999987, -1.1130008895074153 
1.3399999999998689, -1.1139111568517295 
1.3499999999998678, -1.1139754232946903 
1.3599999999998666, -1.1137180876398638 
1.3699999999998655, -1.1136646055234642 
1.3799999999998644, -1.1143621832770256 
1.3899999999998633, -1.1156074850308668 
1.3999999999998622, -1.116869603720953 
1.4099999999998611, -1.1178817831734447 
1.41999999999986, -1.1185118663837095 
1.429999999999859, -1.1186854803532382 
1.4399999999998578, -1.1184844139565817 
1.4499999999998567, -1.1181387111392376 
1.4599999999998556, -1.117956927646215 
1.4699999999998545, -1.1180828383925374 
1.4799999999998534, -1.1183862647908107 
1.4899999999998523, -1.1186507598955056 
1.4999999999998512, -1.118722040090236 
1.5099999999998501, -1.1185544723417253 
1.519999999999849, -1.118148761628167 
1.529999999999848, -1.1175389261642497 
1.5399999999998468, -1.1168579797086355 
1.5499999999998457, -1.1163218308594087 
1.5599999999998446, -1.1160971232978987 
1.5699999999998435, -1.1160882223002848 
1.5799999999998424, -1.115982657379129 
1.5899999999998413, -1.1155232546938025 
1.5999999999998402, -1.1145909803310614 
1.6099999999998391, -1.1132423620952536 
1.619999999999838, -1.1116116317056575 
1.629999999999837, -1.1099374755422913 
1.6399999999998358, -1.1087343381729957 
1.6499999999998347, -1.1083361989410336 
1.6599999999998336, -1.108264882764825 
1.6699999999998325, -1.1079553902680181 
1.6799999999998314, -1.1069176036202124 
1.6899999999998303, -1.1045018349432107 
1.6999999999998292, -1.100482509567853 
1.709999999999828, -1.0954451688677378 
1.719999999999827, -1.0907809726060882 
1.729999999999826, -1.0884487373472238 
1.7399999999998248, -1.0881359497007668 
1.7499999999998237, -1.0881303932340698 
1.7599999999998226, -1.0877107917793771 
1.7699999999998215, -1.0860840605255218 
1.7799999999998204, -1.0809876782374894 
1.7899999999998193, -1.0696188114082565 
1.7999999999998182, -1.0538635207286922 
1.809999999999817, -1.0415341406949612 
1.819999999999816, -1.0376522983831495 
1.8299999999998149, -1.0376220164712044 
1.8399999999998138, -1.0377609691897818 
1.8499999999998127, -1.0374136837012893 
1.8599999999998116, -1.0358767209365762 
1.8699999999998105, -1.030185139471104 
1.8799999999998094, -1.0138680821937764 
1.8899999999998083, -0.987373931999601 
1.8999999999998072, -0.9659524329533969 
1.909999999999806, -0.9585368093605123 
1.919999999999805, -0.9579902669695259 
1.9299999999998039, -0.9582571050520141 
1.9399999999998028, -0.9581652506091296 
1.9499999999998017, -0.9573905852397219 
1.9599999999998006, -0.9547129231896708 
1.9699999999997995, -0.947309850321743 
1.9799999999997984, -0.9343872581484522 
1.9899999999997973, -0.9208725327087126 
1.9999999999997962, -0.9119560373041213 
2.0099999999998173, -0.9087030157208825 
2.0199999999998384, -0.9082819643708869 
2.0299999999998595, -0.9083290053129696 
2.0399999999998806, -0.9081290162910652 
2.0499999999999017, -0.9073207806766915 
2.059999999999923, -0.905302477500782 
2.069999999999944, -0.9018488616639811 
2.079999999999965, -0.897821766461134 
2.089999999999986, -0.8941694386078907 
2.100000000000007, -0.8914650336694323 
2.1100000000000283, -0.8900418630218992 
2.1200000000000494, -0.8896390181801966 
2.1300000000000705, -0.8895922992177545 
2.1400000000000916, -0.8894459571740744 
2.1500000000001127, -0.888963963890577 
2.160000000000134, -0.8880626723094387 
2.170000000000155, -0.88690827233295 
2.180000000000176, -0.8857226502122612 
2.190000000000197, -0.8846225712898378 
2.2000000000002182, -0.8837267835663919 
2.2100000000002393, -0.8831798591659431 
2.2200000000002604, -0.8830198480355522 
2.2300000000002815, -0.8830893308101598 
2.2400000000003026, -0.8831676570879418 
2.2500000000003237, -0.8831328115081083 
2.260000000000345, -0.8829861209547132 
2.270000000000366, -0.8827554822122213 
2.280000000000387, -0.8824217022601498 
2.290000000000408, -0.8820091859528696 
2.3000000000004293, -0.8816632171611682 
2.3100000000004504, -0.881589914798218 
2.3200000000004715, -0.8818860408491317 
2.3300000000004926, -0.8824718816566836 
2.3400000000005137, -0.8832059665485802 
2.3500000000005348, -0.8839889536630922 
2.360000000000556, -0.8847093760702974 
2.370000000000577, -0.8851617138943145 
2.380000000000598, -0.8852332424091841 
2.390000000000619, -0.8850345776284095 
2.4000000000006403, -0.8848262068682006 
2.4100000000006614, -0.8851052741509894 
2.4200000000006825, -0.886437757700277 
2.4300000000007036, -0.8888979364158794 
2.4400000000007247, -0.8921289549384683 
2.450000000000746, -0.895584650747061 
2.460000000000767, -0.8983342476647234 
2.470000000000788, -0.8997087410559101 
2.480000000000809, -0.900049241907007 
2.49000000000083, -0.8998823008466187 
2.5000000000008513, -0.8995507775947955 
2.5100000000008724, -0.8999874511707078 
2.5200000000008935, -0.903911361758523 
2.5300000000009146, -0.9138657360862509 
2.5400000000009357, -0.9280148909932499 
2.550000000000957, -0.9404734286612961 
2.560000000000978, -0.9467816908511459 
2.570000000000999, -0.948717909041947 
2.58000000000102, -0.9490401857769551 
2.5900000000010412, -0.9487518200808224 
2.6000000000010624, -0.9481170291249499 
2.6100000000010835, -0.9486845755318667 
2.6200000000011046, -0.9583444924421044 
2.6300000000011257, -0.9854389864035015 
2.6400000000011468, -1.01622092266716 
2.650000000001168, -1.0324759866220292 
2.660000000001189, -1.037249080469898 
2.67000000000121, -1.0382363714525844 
2.680000000001231, -1.038176581620116 
2.6900000000012523, -1.0376385509914419 
2.7000000000012734, -1.03741767395827 
2.7100000000012945, -1.0423213013869768 
2.7200000000013156, -1.057664033607496 
2.7300000000013367, -1.0759677410828679 
2.740000000001358, -1.0876825169872957 
2.750000000001379, -1.0921161886834492 
2.7600000000014, -1.0931901310865406 
2.770000000001421, -1.0931895223261396 
2.780000000001442, -1.092826755436161 
2.7900000000014633, -1.0929691809804543 
2.8000000000014844, -1.0955779812637283 
2.8100000000015055, -1.1005862009779024 
2.8200000000015266, -1.1056856237289274 
2.8300000000015477, -1.1094410623299995 
2.840000000001569, -1.1113760682816716 
2.85000000000159, -1.1119412427521949 
2.860000000001611, -1.111848269505646 
2.870000000001632, -1.1115884282442845 
2.8800000000016532, -1.1117808505494415 
2.8900000000016743, -1.112822518595344 
2.9000000000016954, -1.1142551236272877 
2.9100000000017165, -1.1155791052178037 
2.9200000000017377, -1.1165772199389616 
2.9300000000017588, -1.1171177927137073 
2.94000000000178, -1.1171758964332081 
2.950000000001801, -1.1169095918518466 
2.960000000001822, -1.1166018222203953 
2.970000000001843, -1.1165568115551936 
2.9800000000018643, -1.116812560628622 
2.9900000000018854, -1.1171740668840207 
3.0000000000019065, -1.1174329006440529 
3.0100000000019276, -1.117478010065095 
3.0200000000019487, -1.1172846101577696 
3.03000000000197, -1.1168535695514137 
3.040000000001991, -1.1162472649356021 
3.050000000002012, -1.115639943098647 
3.060000000002033, -1.115242310469011 
3.070000000002054, -1.1151425200935512 
3.0800000000020753, -1.115153925590115 
3.0900000000020964, -1.1149798964060065 
3.1000000000021175, -1.1144234240876347 
3.1100000000021386, -1.1134440402974402 
3.1200000000021597, -1.1121300379653398 
3.130000000002181, -1.1106136965570879 
3.140000000002202, -1.1091778157488288 
3.150000000002223, -1.1083156539742272 
3.160000000002244, -1.1081078026797602 
3.1700000000022652, -1.1080096609124084 
3.1800000000022863, -1.1075429874551086 
3.1900000000023074, -1.1062107547484177 
3.2000000000023285, -1.1035360644125987 
3.2100000000023496, -1.0996224050871966 
3.2200000000023707, -1.095148949226502 
3.230000000002392, -1.0915281564161523 
3.240000000002413, -1.0901380467689816 
3.250000000002434, -1.0900464846696292 
3.260000000002455, -1.089945798741821 
3.2700000000024763, -1.0892687068747835 
3.2800000000024974, -1.0869249506148193 
3.2900000000025185, -1.0805083483265285 
3.3000000000025396, -1.0687104446615103 
3.3100000000025607, -1.0550580808592813 
3.3200000000025818, -1.046501093139942 
3.330000000002603, -1.0446788108292222 
3.340000000002624, -1.0448473193593 
3.350000000002645, -1.0448353782516207 
3.360000000002666, -1.0442014231263086 
3.3700000000026873, -1.0417191335591567 
3.3800000000027084, -1.0331136445540583 
3.3900000000027295, -1.0128019611222285 
3.4000000000027506, -0.9870686366578916 
3.4100000000027717, -0.9713587958268282 
3.420000000002793, -0.967778378800152 
3.430000000002814, -0.9679022304372416 
3.440000000002835, -0.9680618792889933 
3.450000000002856, -0.9677530226705982 
3.460000000002877, -0.9664212092817944 
3.4700000000028983, -0.9620217853248435 
3.4800000000029194, -0.9512943426730668 
3.4900000000029405, -0.9357861047444708 
3.5000000000029616, -0.9223407102787907 
3.5100000000029827, -0.9154750126869647 
3.520000000003004, -0.91384892363225 
3.530000000003025, -0.9138360774086219 
3.540000000003046, -0.9138227467864282 
3.550000000003067, -0.9133959414337305 
3.5600000000030882, -0.9120526103458108 
3.5700000000031094, -0.9090560369417189 
3.5800000000031305, -0.9046024205976032 
3.5900000000031516, -0.8999583763332238 
3.6000000000031727, -0.8961161087957414 
3.6100000000031938, -0.8936872292589402 
3.620000000003215, -0.8927390140514458 
3.630000000003236, -0.8925819606980274 
3.640000000003257, -0.8925218969040367 
3.650000000003278, -0.8922108534619584 
3.6600000000032993, -0.8914429088420506 
3.6700000000033204, -0.8902235996354433 
3.6800000000033415, -0.8888226759020651 
3.6900000000033626, -0.8874652141823309 
3.7000000000033837, -0.8862785131892548 
3.710000000003405, -0.8854148018328002 
3.720000000003426, -0.8849938525630888 
3.730000000003447, -0.8849362913193769 
3.740000000003468, -0.8849949471671467 
3.750000000003489, -0.88496540602916 
3.7600000000035103, -0.8847816092832563 
3.7700000000035314, -0.8844870976442103 
3.7800000000035525, -0.8841136396240892 
3.7900000000035736, -0.8836604346461379 
3.8000000000035947, -0.8832023252453882 
3.810000000003616, -0.882912659194172 
3.820000000003637, -0.882941557850228 
3.830000000003658, -0.8832843733186082 
3.840000000003679, -0.8838130335281504 
3.8500000000037002, -0.8844029341626615 
3.8600000000037213, -0.8849835433244667 
3.8700000000037424, -0.8854438832674039 
3.8800000000037635, -0.8856235243132297 
3.8900000000037847, -0.8855046050700243 
3.9000000000038058, -0.8852481623148676 
3.910000000003827, -0.885186349361892 
3.920000000003848, -0.8858016257177697 
3.930000000003869, -0.8873323096748545 
3.94000000000389, -0.8895907046631208 
3.9500000000039113, -0.8922553759039595 
3.9600000000039324, -0.8948359629228027 
3.9700000000039535, -0.8965955840807222 
3.9800000000039746, -0.8972958658066101 
3.9900000000039957, -0.8973257362015917 
4.000000000004016, -0.8970482423623669 
4.010000000003993, -0.8969365992232595 
4.02000000000397, -0.8984736620844856 
4.030000000003946, -0.9039452026772568 
4.040000000003923, -0.9136167706350584 
4.0500000000039, -0.9247316847045888 
4.0600000000038765, -0.9328946492380558 
4.070000000003853, -0.9364107296454417 
4.08000000000383, -0.9373485896660025 
4.090000000003807, -0.9373443227216911 
4.100000000003783, -0.9368927626657481 
4.11000000000376, -0.9364618386839899 
4.120000000003737, -0.9395057199732589 
4.130000000003713, -0.9552754592078356 
4.14000000000369, -0.9842706969016847 
4.150000000003667, -1.0087177343709286 
4.1600000000036434, -1.0189823509558376 
4.17000000000362, -1.0216447114238258 
4.180000000003597, -1.0220872294829155 
4.1900000000035735, -1.0218184530841172 
4.20000000000355, -1.0211711761079276 
4.210000000003527, -1.0218437831822573 
4.220000000003504, -1.0310115786945582 
4.23000000000348, -1.05151778849409 
4.240000000003457, -1.0712350178540762 
4.250000000003434, -1.0813904014847473 
4.26000000000341, -1.084532467948502 
4.270000000003387, -1.0851459599123308 
4.280000000003364, -1.0849773040968937 
4.2900000000033405, -1.0845790402423674 
4.300000000003317, -1.0852892601189752 
4.310000000003294, -1.0895115492364968 
4.320000000003271, -1.0961869049344546 
4.330000000003247, -1.1023084299280739 
4.340000000003224, -1.106278099886284 
4.350000000003201, -1.1079727571512306 
4.360000000003177, -1.108334853500702 
4.370000000003154, -1.10815155622045 
4.380000000003131, -1.107939870759028 
4.390000000003107, -1.1084690581794845 
4.400000000003084, -1.1100100264462158 
4.410000000003061, -1.1118635802802552 
4.4200000000030375, -1.1134891955193835 
4.430000000003014, -1.1146458386700004 
4.440000000002991, -1.1151928117045935 
4.450000000002968, -1.115200697640273 
4.460000000002944, -1.1149209794736548 
4.470000000002921, -1.1146987285855305 
4.480000000002898, -1.1148381595161987 
4.490000000002874, -1.1152767306313882 
4.500000000002851, -1.1157618315920697 
4.510000000002828, -1.1161037708612775 
4.520000000002804, -1.116222209501506 
4.530000000002781, -1.11608755719107 
4.540000000002758, -1.1157019642168025 
4.5500000000027345, -1.1151693848255664 
4.560000000002711, -1.1146994894237883 
4.570000000002688, -1.1144699290991296 
4.580000000002665, -1.1144827069132979 
4.590000000002641, -1.114520163168182 
4.600000000002618, -1.1143360357820702 
4.610000000002595, -1.11380891980245 
4.620000000002571, -1.1129551807654032 
4.630000000002548, -1.1118507613458966 
4.640000000002525, -1.1106176425445213 
4.6500000000025015, -1.1095320608003796 
4.660000000002478, -1.1089659610398666 
4.670000000002455, -1.1088526383114858 
4.6800000000024315, -1.1087136081355307 
4.690000000002408, -1.1081426391533513 
4.700000000002385, -1.1067425403583124 
4.710000000002362, -1.1043323458760415 
4.720000000002338, -1.1011615699385968 
4.730000000002315, -1.0977755835910845 
4.740000000002292, -1.0952844032156772 
4.750000000002268, -1.0944740763474048 
4.760000000002245, -1.0944263200115725 
4.770000000002222, -1.0942182048478188 
4.7800000000021985, -1.0932931334349505 
4.790000000002175, -1.0904583967460608 
4.800000000002152, -1.0840224771870912 
4.810000000002129, -1.074186205797986 
4.820000000002105, -1.0642380121361257 
4.830000000002082, -1.05892114122511 
4.840000000002059, -1.0581047021791627 
4.850000000002035, -1.0582441942671728 
4.860000000002012, -1.058070475595783 
4.870000000001989, -1.0570686228656205 
4.880000000001965, -1.053357539229333 
4.890000000001942, -1.0420138367615341 
4.900000000001919, -1.0205181911951628 
4.9100000000018955, -0.9987837896784383 
4.920000000001872, -0.9887490713502965 
4.930000000001849, -0.9874365681524834 
