t, s[1].omega / s[0].omega 
0, -1.0399982321275685 
0.009999999999999995, -1.0397269760170238 
0.019999999999999934, -1.039266546688776 
0.029999999999999874, -1.0386391156937853 
0.04000000000000012, -1.0379326003511575 
0.050000000000000405, -1.0372968979908126 
0.06000000000000069, -1.0368800202219528 
0.07000000000000098, -1.0367529682856995 
0.08000000000000126, -1.0368663515631442 
0.09000000000000155, -1.0370610694683031 
0.10000000000000184, -1.0371620061285622 
0.11000000000000212, -1.0370592903324969 
0.12000000000000241, -1.0367252438311096 
0.130000000000002, -1.0361856047470543 
0.1400000000000009, -1.0354703817347937 
0.1499999999999998, -1.0346111255454233 
0.1599999999999987, -1.0336832527588855 
0.1699999999999976, -1.0328226835417869 
0.1799999999999965, -1.0321863510087204 
0.1899999999999954, -1.031879058078539 
0.1999999999999943, -1.0318651107823564 
0.2099999999999932, -1.0319602581933645 
0.2199999999999921, -1.0319558234482373 
0.229999999999991, -1.0317105500659862 
0.2399999999999899, -1.0311723063433962 
0.2499999999999888, -1.030374092163618 
0.2599999999999877, -1.0293807596638853 
0.2699999999999866, -1.0282481190604376 
0.2799999999999855, -1.0270519687316746 
0.2899999999999844, -1.0259255737312993 
0.2999999999999833, -1.0250470658126136 
0.3099999999999822, -1.0245612008099314 
0.3199999999999811, -1.0244438562371287 
0.32999999999998, -1.0244805879069272 
0.3399999999999789, -1.0244265782551576 
0.3499999999999778, -1.0241074948539117 
0.35999999999997667, -1.0234340184119513 
0.36999999999997557, -1.0224246286205325 
0.37999999999997447, -1.0211720235380113 
0.38999999999997337, -1.019766822034014 
0.39999999999997227, -1.0182964385495188 
0.40999999999997117, -1.0168962591342956 
0.41999999999997006, -1.0157651013672218 
0.42999999999996896, -1.015089044715955 
0.43999999999996786, -1.014867820318064 
0.44999999999996676, -1.0148676667289582 
0.45999999999996566, -1.0148093290739 
0.46999999999996456, -1.0144889830861654 
0.47999999999996346, -1.0137795218282772 
0.48999999999996235, -1.0126652630719957 
0.49999999999996125, -1.0112466330271725 
0.5099999999999602, -1.0096483886661687 
0.519999999999959, -1.0079750617519931 
0.529999999999958, -1.0063597324324658 
0.5399999999999568, -1.0050051556723039 
0.5499999999999557, -1.004129304592487 
0.5599999999999546, -1.0037812955485435 
0.5699999999999535, -1.0037429218492098 
0.5799999999999524, -1.003709988947502 
0.5899999999999513, -1.0034530591427129 
0.5999999999999502, -1.002818444391057 
0.6099999999999491, -1.001751162889224 
0.619999999999948, -1.0003328580656607 
0.6299999999999469, -0.9987050285867608 
0.6399999999999458, -0.9969850762029033 
0.6499999999999447, -0.9952936965171141 
0.6599999999999436, -0.993811386451249 
0.6699999999999425, -0.9927607795373101 
0.6799999999999414, -0.9922571271210636 
0.6899999999999403, -0.9921544798269537 
0.6999999999999392, -0.9921534031214525 
0.7099999999999381, -0.9920009597454337 
0.719999999999937, -0.9915276913007723 
0.7299999999999359, -0.9906499158231715 
0.7399999999999348, -0.9894131412646642 
0.7499999999999337, -0.9879481598707254 
0.7599999999999326, -0.9863718243032001 
0.7699999999999315, -0.984784183732048 
0.7799999999999304, -0.9833255070610981 
0.7899999999999293, -0.9821887552250246 
0.7999999999999282, -0.9815336871012038 
0.8099999999999271, -0.9813293060819376 
0.819999999999926, -0.9813393876279203 
0.8299999999999249, -0.9813008355034522 
0.8399999999999238, -0.9810288379773361 
0.8499999999999227, -0.980422708523294 
0.8599999999999216, -0.9794906241368553 
0.8699999999999205, -0.978331133082619 
0.8799999999999194, -0.9770445682507604 
0.8899999999999183, -0.9757064131205628 
0.8999999999999172, -0.9744157116732979 
0.9099999999999161, -0.9733216781683369 
0.919999999999915, -0.9725839800707481 
0.9299999999999139, -0.9722673334024693 
0.9399999999999128, -0.9722524202699823 
0.9499999999999117, -0.9723089855921883 
0.9599999999999106, -0.9722376074810306 
0.9699999999999095, -0.9719212004294207 
0.9799999999999084, -0.9713366890373765 
0.9899999999999073, -0.9705431662615293 
0.9999999999999062, -0.9696134423007775 
1.0099999999999052, -0.9685963608680038 
1.019999999999904, -0.9675551253550526 
1.029999999999903, -0.9666034579223765 
1.039999999999902, -0.9658839691118368 
1.0499999999999008, -0.9655014664344373 
1.0599999999998997, -0.965444229358796 
1.0699999999998986, -0.9655649301495799 
1.0799999999998975, -0.9656729913804888 
1.0899999999998964, -0.9656315539774357 
1.0999999999998953, -0.9653886248673615 
1.1099999999998942, -0.964965838905719 
1.119999999999893, -0.9644046372932303 
1.129999999999892, -0.9637257759548552 
1.1399999999998909, -0.962958713080793 
1.1499999999998898, -0.962187761344753 
1.1599999999998887, -0.9615483934366942 
1.1699999999998876, -0.9611673614721639 
1.1799999999998865, -0.9610935585949413 
1.1899999999998854, -0.9612637735120285 
1.1999999999998843, -0.9615308407500787 
1.2099999999998832, -0.961748434995283 
1.219999999999882, -0.9618348428493562 
1.229999999999881, -0.9617766640947105 
1.2399999999998799, -0.961583914044188 
1.2499999999998788, -0.9612478968229994 
1.2599999999998777, -0.9607637317865129 
1.2699999999998766, -0.9601834899791801 
1.2799999999998755, -0.9596336946455137 
1.2899999999998744, -0.9592752234463939 
1.2999999999998733, -0.9592154350494962 
1.3099999999998722, -0.9594495572427751 
1.319999999999871, -0.9598757453714382 
1.32999999999987, -0.9603548965865825 
1.3399999999998689, -0.9607795677767574 
1.3499999999998678, -0.9611013676091595 
1.3599999999998666, -0.9612983256498874 
1.3699999999998655, -0.9613294186902105 
1.3799999999998644, -0.9611520570551672 
1.3899999999998633, -0.9607839486751973 
1.3999999999998622, -0.9603299590075849 
1.4099999999998611, -0.9599707879562014 
1.41999999999986, -0.9598974506377945 
1.429999999999859, -0.9601930558095427 
1.4399999999998578, -0.9607942423123217 
1.4499999999998567, -0.9615623333450605 
1.4599999999998556, -0.9623647806699388 
1.4699999999998545, -0.9631163841302948 
1.4799999999998534, -0.963760319246691 
1.4899999999998523, -0.9642182366664711 
1.4999999999998512, -0.9644011297013402 
1.5099999999998501, -0.9642896930495124 
1.519999999999849, -0.9639674187053747 
1.529999999999848, -0.9636051754667845 
1.5399999999998468, -0.9634497026767751 
1.5499999999998457, -0.9637250109498681 
1.5599999999998446, -0.9644717593221114 
1.5699999999998435, -0.9655518661988557 
1.5799999999998424, -0.9667862585157188 
1.5899999999998413, -0.968039572189615 
1.5999999999998402, -0.9692129490221061 
1.6099999999998391, -0.9701853988421165 
1.619999999999838, -0.9708096408332283 
1.629999999999837, -0.9710179849771251 
1.6399999999998358, -0.9708816671408639 
1.6499999999998347, -0.9705618740796778 
1.6599999999998336, -0.9703025469876446 
1.6699999999998325, -0.9704323761479225 
1.6799999999998314, -0.9711869389846333 
1.6899999999998303, -0.9725155061944333 
1.6999999999998292, -0.9741847428442095 
1.709999999999828, -0.9759757207941815 
1.719999999999827, -0.977729634283106 
1.729999999999826, -0.9792799153985657 
1.7399999999998248, -0.9804167530643765 
1.7499999999998237, -0.9810064360641606 
1.7599999999998226, -0.9811048148479941 
1.7699999999998215, -0.9808847700205376 
1.7799999999998204, -0.980572186114284 
1.7899999999998193, -0.9805059657866079 
1.7999999999998182, -0.9810858860778595 
1.809999999999817, -0.9824618818178235 
1.819999999999816, -0.9844200291121129 
1.8299999999998149, -0.9866431645756291 
1.8399999999998138, -0.9888896533189178 
1.8499999999998127, -0.990950183094354 
1.8599999999998116, -0.9925708097238379 
1.8699999999998105, -0.9935474765295325 
1.8799999999998094, -0.9938974029993628 
1.8899999999998083, -0.9938081738983245 
1.8999999999998072, -0.9935059285530279 
1.909999999999806, -0.9932944158896458 
1.919999999999805, -0.9936176465710773 
1.9299999999998039, -0.9948075637873851 
1.9399999999998028, -0.9967626686904765 
1.9499999999998017, -0.9991197625829656 
1.9599999999998006, -1.0015631562727365 
1.9699999999997995, -1.0038577694445505 
1.9799999999997984, -1.0057493608039536 
1.9899999999997973, -1.0069949820512643 
1.9999999999997962, -1.0075487788750848 
2.0099999999998173, -1.0075799358981845 
2.0199999999998384, -1.0073177592667657 
2.0299999999998595, -1.0070348787435524 
2.0399999999998806, -1.007140783897997 
2.0499999999999017, -1.0080293772035334 
2.059999999999923, -1.0097066666004726 
2.069999999999944, -1.0118377945194474 
2.079999999999965, -1.014088591741734 
2.089999999999986, -1.0162310267533825 
2.100000000000007, -1.0180555627850192 
2.1100000000000283, -1.0193376437951955 
2.1200000000000494, -1.0199752038435048 
2.1300000000000705, -1.02007555206484 
2.1400000000000916, -1.019845484286776 
2.1500000000001127, -1.0195329105871467 
2.160000000000134, -1.0194928768621885 
2.170000000000155, -1.0200865529186063 
2.180000000000176, -1.0213600964506298 
2.190000000000197, -1.023041668058689 
2.2000000000002182, -1.0248361400769597 
2.2100000000002393, -1.026549548435596 
2.2200000000002604, -1.0280333253955014 
2.2300000000002815, -1.0291223335486537 
2.2400000000003026, -1.0296973967965593 
2.2500000000003237, -1.0297922308887668 
2.260000000000345, -1.0295623956816349 
2.270000000000366, -1.0292255399841554 
2.280000000000387, -1.029083087497106 
2.290000000000408, -1.029427906209269 
2.3000000000004293, -1.030301249084152 
2.3100000000004504, -1.0314966330471216 
2.3200000000004715, -1.0327796717203397 
2.3300000000004926, -1.0339930528157009 
2.3400000000005137, -1.0350359284731891 
2.3500000000005348, -1.0358071611562818 
2.360000000000556, -1.0362083507399154 
2.370000000000577, -1.0362243270934899 
2.380000000000598, -1.0359524474094288 
2.390000000000619, -1.0355725600155972 
2.4000000000006403, -1.0353358482560255 
2.4100000000006614, -1.0354684243748538 
2.4200000000006825, -1.0360002628644254 
2.4300000000007036, -1.0367822988438682 
2.4400000000007247, -1.0376310241754325 
2.450000000000746, -1.0384098916456526 
2.460000000000767, -1.0390420318952789 
2.470000000000788, -1.0394736043126134 
2.480000000000809, -1.0396438362266218 
2.49000000000083, -1.0395227468120338 
2.5000000000008513, -1.0391632034907397 
2.5100000000008724, -1.0387063453720486 
2.5200000000008935, -1.0383584081218742 
2.5300000000009146, -1.0382965992371047 
2.5400000000009357, -1.0385519607322702 
2.550000000000957, -1.0390213868199933 
2.560000000000978, -1.039549256516522 
2.570000000000999, -1.0399993825766267 
2.58000000000102, -1.0402974970192809 
2.5900000000010412, -1.0404166791100853 
2.6000000000010624, -1.0403344871133273 
2.6100000000010835, -1.040031127366675 
2.6200000000011046, -1.0395356954941608 
2.6300000000011257, -1.03895677387427 
2.6400000000011468, -1.038464692221562 
2.650000000001168, -1.0382105827602268 
2.660000000001189, -1.0382414075218571 
2.67000000000121, -1.0384867620279432 
2.680000000001231, -1.0387951474483106 
2.6900000000012523, -1.0390136802651724 
2.7000000000012734, -1.0390543408003037 
2.7100000000012945, -1.0388983513358616 
2.7200000000013156, -1.0385551500618422 
2.7300000000013367, -1.0380297334239703 
2.740000000001358, -1.037346614314134 
2.750000000001379, -1.0365921273700633 
2.7600000000014, -1.0359129746254139 
2.770000000001421, -1.0354562333047825 
2.780000000001442, -1.0352963748201465 
2.7900000000014633, -1.0353829321744588 
2.8000000000014844, -1.035549271789641 
2.8100000000015055, -1.035614377372369 
2.8200000000015266, -1.0354646571626014 
2.8300000000015477, -1.035071207936917 
2.840000000001569, -1.0344643754570266 
2.85000000000159, -1.0336818926593583 
2.860000000001611, -1.0327600914059836 
2.870000000001632, -1.0317751941964415 
2.8800000000016532, -1.0308632278066134 
2.8900000000016743, -1.030184775652942 
2.9000000000016954, -1.0298497525767842 
2.9100000000017165, -1.0298190208681353 
2.9200000000017377, -1.0298987252183078 
2.9300000000017588, -1.0298738358301358 
2.94000000000178, -1.0295985635046654 
2.950000000001801, -1.0290166231925824 
2.960000000001822, -1.028162194911812 
2.970000000001843, -1.0271072183160732 
2.9800000000018643, -1.025913921453876 
2.9900000000018854, -1.024660683463159 
3.0000000000019065, -1.023482518640212 
3.0100000000019276, -1.0225624940522164 
3.0200000000019487, -1.022050790841075 
3.03000000000197, -1.0219208685612748 
3.040000000001991, -1.0219502818643702 
3.050000000002012, -1.0218886490470622 
3.060000000002033, -1.0215577204882647 
3.070000000002054, -1.0208631522946296 
3.0800000000020753, -1.0198209816810992 
3.0900000000020964, -1.0185280804290053 
3.1000000000021175, -1.0170812606900488 
3.1100000000021386, -1.0155708457873682 
3.1200000000021597, -1.0141329194189215 
3.130000000002181, -1.0129683200833053 
3.140000000002202, -1.0122672114862543 
3.150000000002223, -1.012032177197035 
3.160000000002244, -1.012028012434894 
3.1700000000022652, -1.0119719074389295 
3.1800000000022863, -1.011657366119481 
3.1900000000023074, -1.010954183918817 
3.2000000000023285, -1.009842742277064 
3.2100000000023496, -1.0084228746386692 
3.2200000000023707, -1.0068221269335371 
3.230000000002392, -1.0051460574241702 
3.240000000002413, -1.003525202940786 
3.250000000002434, -1.0021582201052823 
3.260000000002455, -1.0012626257697648 
3.2700000000024763, -1.000896552802898 
3.2800000000024974, -1.0008522474548105 
3.2900000000025185, -1.00082685998088 
3.3000000000025396, -1.0005890397990764 
3.3100000000025607, -0.9999847379077794 
3.3200000000025818, -0.9989567598508539 
3.330000000002603, -0.9975823141494864 
3.340000000002624, -0.99599992641993 
3.350000000002645, -0.9943242607447929 
3.360000000002666, -0.9926702527879634 
3.3700000000026873, -0.9912090453130946 
3.3800000000027084, -0.990155644586152 
3.3900000000027295, -0.989633641442329 
3.4000000000027506, -0.9895194662692688 
3.4100000000027717, -0.9895254902701808 
3.420000000002793, -0.9893983963960664 
3.430000000002814, -0.9889689834731702 
3.440000000002835, -0.988153836644111 
3.450000000002856, -0.9869932639508524 
3.460000000002877, -0.985610295285886 
3.4700000000028983, -0.9841150880678756 
3.4800000000029194, -0.9826002728647992 
3.4900000000029405, -0.9811959137393674 
3.5000000000029616, -0.9800834324865145 
3.5100000000029827, -0.979422104279851 
3.520000000003004, -0.9792034842140597 
3.530000000003025, -0.9792157534795116 
3.540000000003046, -0.9792019681813757 
3.550000000003067, -0.9789767028576997 
3.5600000000030882, -0.9784396698341723 
3.5700000000031094, -0.9775949530698586 
3.5800000000031305, -0.9765318477757307 
3.5900000000031516, -0.9753416270776434 
3.6000000000031727, -0.9740918013599436 
3.6100000000031938, -0.9728730582691355 
3.620000000003215, -0.9718256443575529 
3.630000000003236, -0.9711033350760748 
3.640000000003257, -0.9707808384818968 
3.650000000003278, -0.9707647333688532 
3.6600000000032993, -0.9708416202720135 
3.6700000000033204, -0.970813919068344 
3.6800000000033415, -0.9705631859673689 
3.6900000000033626, -0.9700627510762265 
3.7000000000033837, -0.9693633975255276 
3.710000000003405, -0.9685285483210556 
3.720000000003426, -0.9675989432126544 
3.730000000003447, -0.9666306082922556 
3.740000000003468, -0.9657318705048522 
3.750000000003489, -0.9650427803892461 
3.7600000000035103, -0.9646704831087075 
3.7700000000035314, -0.9646173401324738 
3.7800000000035525, -0.9647557087403175 
3.7900000000035736, -0.9649036366759167 
3.8000000000035947, -0.9649230950585325 
3.810000000003616, -0.9647578810489473 
3.820000000003637, -0.9644225302504618 
3.830000000003658, -0.9639498704756868 
3.840000000003679, -0.9633526033198362 
3.8500000000037002, -0.9626531713983058 
3.8600000000037213, -0.9619310211057881 
3.8700000000037424, -0.9613220107837144 
3.8800000000037635, -0.9609590459409292 
3.8900000000037847, -0.9608993598005968 
3.9000000000038058, -0.961091305418694 
3.910000000003827, -0.96139825298159 
3.920000000003848, -0.9616757984701392 
3.930000000003869, -0.9618380287714077 
3.94000000000389, -0.961864897339443 
3.9500000000039113, -0.9617584886156896 
3.9600000000039324, -0.9615018609406467 
3.9700000000039535, -0.9610828115643892 
3.9800000000039746, -0.9605482075542883 
3.9900000000039957, -0.9600231345623731 
4.000000000004016, -0.9596762969480633 
4.010000000003993, -0.9596303234153022 
4.02000000000397, -0.9598913762447648 
4.030000000003946, -0.9603628029828445 
4.040000000003923, -0.9609068751026676 
4.0500000000039, -0.9614125469191929 
4.0600000000038765, -0.9618248176164267 
4.070000000003853, -0.9621138674853138 
4.08000000000383, -0.9622296818159244 
4.090000000003807, -0.9621211284048646 
4.100000000003783, -0.9618009435465344 
4.11000000000376, -0.9613716011173001 
4.120000000003737, -0.9610159489345428 
4.130000000003713, -0.9609415567944586 
4.14000000000369, -0.9612552913005006 
4.150000000003667, -0.9619035205623713 
4.1600000000036434, -0.9627441216508001 
4.17000000000362, -0.9636376276646426 
4.180000000003597, -0.9644910289650752 
4.1900000000035735, -0.9652391328495663 
4.20000000000355, -0.9657936395835067 
4.210000000003527, -0.9660548253586674 
4.220000000003504, -0.9659977111604486 
4.23000000000348, -0.9657056078769072 
4.240000000003457, -0.9653486899376583 
4.250000000003434, -0.965179338567953 
4.26000000000341, -0.9654478794531833 
4.270000000003387, -0.9662238100899977 
4.280000000003364, -0.9673724777459133 
4.2900000000033405, -0.9687020527461003 
4.300000000003317, -0.9700643280324328 
4.310000000003294, -0.9713503204478013 
4.320000000003271, -0.9724288352282433 
4.330000000003247, -0.9731404767848261 
4.340000000003224, -0.9734096246662512 
4.350000000003201, -0.9733088598429324 
4.360000000003177, -0.9730018976555307 
4.370000000003154, -0.9727311822108565 
4.380000000003131, -0.9728355449026881 
4.390000000003107, -0.9735838784175816 
4.400000000003084, -0.9749494442281422 
4.410000000003061, -0.9766916851420876 
4.4200000000030375, -0.9785738279741291 
4.430000000003014, -0.9804241019881408 
4.440000000002991, -0.9820673056741329 
4.450000000002968, -0.9832842182048952 
4.460000000002944, -0.9839320099825033 
4.470000000002921, -0.9840655422715455 
4.480000000002898, -0.9838622068423698 
4.490000000002874, -0.983547849137878 
4.500000000002851, -0.9834588977567361 
4.510000000002828, -0.9840085504938358 
4.520000000002804, -0.9853734471315585 
4.530000000002781, -0.9873475852884608 
4.540000000002758, -0.989602218247051 
4.5500000000027345, -0.9918846754727544 
4.560000000002711, -0.993982041802424 
4.570000000002688, -0.9956398521138219 
4.580000000002665, -0.9966494720257361 
4.590000000002641, -0.9970224093047241 
4.600000000002618, -0.9969458431489199 
4.610000000002595, -0.9966466024594446 
4.620000000002571, -0.9964245635372748 
4.630000000002548, -0.9967193871883062 
4.640000000002525, -0.9978673925131124 
4.6500000000025015, -0.9997749638721504 
4.660000000002478, -1.0020814533699784 
4.670000000002455, -1.00447197973565 
4.6800000000024315, -1.006716803389709 
4.690000000002408, -1.0085724357254795 
4.700000000002385, -1.0098019777171714 
4.710000000002362, -1.0103528619874678 
4.720000000002338, -1.0103848336123384 
4.730000000002315, -1.010123103899151 
4.740000000002292, -1.0098372172552206 
4.750000000002268, -1.0099268385615066 
4.760000000002245, -1.0107694915655365 
4.770000000002222, -1.0123646705466443 
4.7800000000021985, -1.014387919227595 
4.790000000002175, -1.0165194232741843 
4.800000000002152, -1.01854430110722 
4.810000000002129, -1.0202695683502019 
4.820000000002105, -1.021485678381851 
4.830000000002082, -1.0220895376031434 
4.840000000002059, -1.02217481866932 
4.850000000002035, -1.0219381229700855 
4.860000000002012, -1.021622880460282 
4.870000000001989, -1.0215738589350685 
4.880000000001965, -1.0221282253474397 
4.890000000001942, -1.0233166030371104 
4.900000000001919, -1.0248786279564712 
4.9100000000018955, -1.0265385632044686 
4.920000000001872, -1.02811666608643 
4.930000000001849, -1.0294788985316043 
