t, s[1].omega / s[0].omega 
0, -0.22000491268481906 
0.009999999999999995, -0.22061157509219137 
0.019999999999999934, -0.22142167705129392 
0.029999999999999874, -0.22236204864412817 
0.04000000000000012, -0.22332384392201582 
0.050000000000000405, -0.22419339707397787 
0.06000000000000069, -0.22488609041068686 
0.07000000000000098, -0.2253617965125086 
0.08000000000000126, -0.22561701041127113 
0.09000000000000155, -0.2256655610727818 
0.10000000000000184, -0.22552063025535216 
0.11000000000000212, -0.22518275958053668 
0.12000000000000241, -0.22463286104132657 
0.130000000000002, -0.22382879706552514 
0.1400000000000009, -0.22270720879443856 
0.1499999999999998, -0.22119695290197186 
0.1599999999999987, -0.2192523363335336 
0.1699999999999976, -0.2169033201685751 
0.1799999999999965, -0.21429177182522632 
0.1899999999999954, -0.21164811057284175 
0.1999999999999943, -0.20920637015064245 
0.2099999999999932, -0.20712081141190156 
0.2199999999999921, -0.20544068324715242 
0.229999999999991, -0.20413645397114086 
0.2399999999999899, -0.2031394238159409 
0.2499999999999888, -0.2023711175316827 
0.2599999999999877, -0.20175928764717782 
0.2699999999999866, -0.20124482276768937 
0.2799999999999855, -0.20078326024782736 
0.2899999999999844, -0.20034296937626514 
0.2999999999999833, -0.19990135929721026 
0.3099999999999822, -0.19943994819460636 
0.3199999999999811, -0.19893808002367352 
0.32999999999998, -0.19836315810478589 
0.3399999999999789, -0.19765177647075438 
0.3499999999999778, -0.1966697069055373 
0.35999999999997667, -0.19513002109834993 
0.36999999999997557, -0.1924548531046279 
0.37999999999997447, -0.1876584806873019 
0.38999999999997337, -0.1796005324124958 
0.39999999999997227, -0.16803223737934433 
0.40999999999997117, -0.1546265680915356 
0.41999999999997006, -0.142093281962768 
0.42999999999996896, -0.13217121531575504 
0.43999999999996786, -0.12506840577144035 
0.44999999999996676, -0.12020806808009858 
0.45999999999996566, -0.11691169386016287 
0.46999999999996456, -0.11465204954673562 
0.47999999999996346, -0.11307420825487424 
0.48999999999996235, -0.11195360889079076 
0.49999999999996125, -0.1111540266954196 
0.5099999999999602, -0.11059868604304846 
0.519999999999959, -0.1102536939496372 
0.529999999999958, -0.11012120419556641 
0.5399999999999568, -0.11024096551165666 
0.5499999999999557, -0.11070040736488447 
0.5599999999999546, -0.11165365171891264 
0.5699999999999535, -0.11334436801243335 
0.5799999999999524, -0.11610068284564867 
0.5899999999999513, -0.12018180512556184 
0.5999999999999502, -0.12517643952975754 
0.6099999999999491, -0.12875808808044237 
0.619999999999948, -0.12641098313062024 
0.6299999999999469, -0.11561211751473803 
0.6399999999999458, -0.10021316681071404 
0.6499999999999447, -0.08614157623837794 
0.6599999999999436, -0.07592163591947577 
0.6699999999999425, -0.06920967105628215 
0.6799999999999414, -0.06492632938732243 
0.6899999999999403, -0.062179692222172414 
0.6999999999999392, -0.06039237225077957 
0.7099999999999381, -0.05922080192753324 
0.719999999999937, -0.05846967150716137 
0.7299999999999359, -0.05803662124764734 
0.7399999999999348, -0.05788276262167043 
0.7499999999999337, -0.05802163249430774 
0.7599999999999326, -0.05852316994181524 
0.7699999999999315, -0.05953395373954377 
0.7799999999999304, -0.06131930307754818 
0.7899999999999293, -0.06433387314714087 
0.7999999999999282, -0.0693079945188835 
0.8099999999999271, -0.07723411339159472 
0.819999999999926, -0.08882554594904783 
0.8299999999999249, -0.10275151582193069 
0.8399999999999238, -0.1138535104881778 
0.8499999999999227, -0.11661687930319417 
0.8599999999999216, -0.11184122874966443 
0.8699999999999205, -0.10464623170094053 
0.8799999999999194, -0.09844925326831258 
0.8899999999999183, -0.0940408840027642 
0.8999999999999172, -0.0911146267848278 
0.9099999999999161, -0.08920957488249348 
0.919999999999915, -0.08797547425631225 
0.9299999999999139, -0.08718914028937276 
0.9399999999999128, -0.08672094930862165 
0.9499999999999117, -0.0865053972013882 
0.9599999999999106, -0.08652415939955148 
0.9699999999999095, -0.08680062762563329 
0.9799999999999084, -0.0874050423200812 
0.9899999999999073, -0.08847166280569754 
0.9999999999999062, -0.09023210367214542 
1.0099999999999052, -0.0930698753095175 
1.019999999999904, -0.09759119946038129 
1.029999999999903, -0.10465592103959528 
1.039999999999902, -0.11516141629708077 
1.0499999999999008, -0.12919235606205548 
1.0599999999998997, -0.144704170698924 
1.0699999999998986, -0.15783267858195862 
1.0799999999998975, -0.16603479799444223 
1.0899999999998964, -0.16986214045932482 
1.0999999999998953, -0.17120342453924436 
1.1099999999998942, -0.1714945760877887 
1.119999999999893, -0.1714391828814908 
1.129999999999892, -0.17130858075208338 
1.1399999999998909, -0.17119011663963773 
1.1499999999998898, -0.17110641724610579 
1.1599999999998887, -0.17106226018497236 
1.1699999999998876, -0.1710616129246828 
1.1799999999998865, -0.17111432459549666 
1.1899999999998854, -0.17124008978811878 
1.1999999999998843, -0.17147242350453146 
1.2099999999998832, -0.1718634082342946 
1.219999999999882, -0.17248896826409688 
1.229999999999881, -0.17345338975270683 
1.2399999999998799, -0.17488949172663787 
1.2499999999998788, -0.17694551292051355 
1.2599999999998777, -0.17974214851946346 
1.2699999999998766, -0.18328558477518067 
1.2799999999998755, -0.18736344754085993 
1.2899999999998744, -0.19152771576983332 
1.2999999999998733, -0.19525897529787845 
1.3099999999998722, -0.19821227909969108 
1.319999999999871, -0.20032057556682226 
1.32999999999987, -0.2017089741212129 
1.3399999999998689, -0.20255959585401392 
1.3499999999998678, -0.2030306931282726 
1.3599999999998666, -0.20323372335385842 
1.3699999999998655, -0.2032381649561959 
1.3799999999998644, -0.20308340845326017 
1.3899999999998633, -0.20279044116093775 
1.3999999999998622, -0.20237266198600062 
1.4099999999998611, -0.20184659577994638 
1.41999999999986, -0.20124170471560623 
1.429999999999859, -0.2006058087418304 
1.4399999999998578, -0.2000019956614222 
1.4499999999998567, -0.19949685582600088 
1.4599999999998556, -0.19914555374221596 
1.4699999999998545, -0.1989802194517546 
1.4799999999998534, -0.19900381990783395 
1.4899999999998523, -0.1991885582351962 
1.4999999999998512, -0.19947941661049667 
1.5099999999998501, -0.19980513209795236 
1.519999999999849, -0.20009517522311487 
1.529999999999848, -0.20029507400444446 
1.5399999999998468, -0.2003721897588934 
1.5499999999998457, -0.20031088441319497 
1.5599999999998446, -0.20010193561660522 
1.5699999999998435, -0.1997311235566616 
1.5799999999998424, -0.19916878125726828 
1.5899999999998413, -0.19835995833621894 
1.5999999999998402, -0.19721575305366468 
1.6099999999998391, -0.1956115183934694 
1.619999999999838, -0.19340725373322093 
1.629999999999837, -0.190510981662866 
1.6399999999998358, -0.18698014281891895 
1.6499999999998347, -0.18308607936271679 
1.6599999999998336, -0.17924100206761504 
1.6699999999998325, -0.17581422454758028 
1.6799999999998314, -0.17299726006269864 
1.6899999999998303, -0.17080352735633925 
1.6999999999998292, -0.1691438423958793 
1.709999999999828, -0.16789708133200892 
1.719999999999827, -0.1669488125951048 
1.729999999999826, -0.16620547798342547 
1.7399999999998248, -0.16559651539353196 
1.7499999999998237, -0.16507168069110228 
1.7599999999998226, -0.16459666112446897 
1.7699999999998215, -0.16414819707880132 
1.7799999999998204, -0.16370894964284347 
1.7899999999998193, -0.16326115395210866 
1.7999999999998182, -0.16277583830647588 
1.809999999999817, -0.16218959740996283 
1.819999999999816, -0.16135124819373486 
1.8299999999998149, -0.15990770661946052 
1.8399999999998138, -0.15711354422171236 
1.8499999999998127, -0.15171323803432504 
1.8599999999998116, -0.14244909368645364 
1.8699999999998105, -0.12955629218599463 
1.8799999999998094, -0.11554005806529206 
1.8899999999998083, -0.1033253759483728 
1.8999999999998072, -0.09419459342202849 
1.909999999999806, -0.08790411873350497 
1.919999999999805, -0.08369337388738654 
1.9299999999998039, -0.08086808642004405 
1.9399999999998028, -0.07893885988555902 
1.9499999999998017, -0.07759233788044871 
1.9599999999998006, -0.07663635188269341 
1.9699999999997995, -0.07595767040684925 
1.9799999999997984, -0.07549575336447065 
1.9899999999997973, -0.07522883172014914 
1.9999999999997962, -0.07516911303909143 
2.0099999999998173, -0.07536540310214453 
2.0199999999998384, -0.07591168475528681 
2.0299999999998595, -0.07695576100394136 
2.0399999999998806, -0.07868189820132013 
2.0499999999999017, -0.08117680899484067 
2.059999999999923, -0.08395492449283483 
2.069999999999944, -0.08496865858367567 
2.079999999999965, -0.08028758361580578 
2.089999999999986, -0.06758555694880716 
2.100000000000007, -0.05056334639507922 
2.1100000000000283, -0.03527081340409925 
2.1200000000000494, -0.024310032868098526 
2.1300000000000705, -0.017204170995285806 
2.1400000000000916, -0.0127154289798052 
2.1500000000001127, -0.009851812997397852 
2.160000000000134, -0.007984253856960933 
2.170000000000155, -0.0067433759483453894 
2.180000000000176, -0.005919759437856968 
2.190000000000197, -0.00540134502988237 
2.2000000000002182, -0.005139974999580594 
2.2100000000002393, -0.005137295379087496 
2.2200000000002604, -0.0054447577776396885 
2.2300000000002815, -0.006176083264611357 
2.2400000000003026, -0.007530426190311412 
2.2500000000003237, -0.009811048793680313 
2.260000000000345, -0.013363736809817155 
2.270000000000366, -0.01817836861846713 
2.280000000000387, -0.022694125193094952 
2.290000000000408, -0.02246453756549919 
2.3000000000004293, -0.01304838228465811 
2.3100000000004504, 0.002955192983400371 
2.3200000000004715, 0.018069156635857713 
2.3300000000004926, 0.028914034319842945 
2.3400000000005137, 0.03571434625032515 
2.3500000000005348, 0.03977616574164777 
2.360000000000556, 0.042165978248190274 
2.370000000000577, 0.04354969050708109 
2.380000000000598, 0.0443106444962219 
2.390000000000619, 0.044662345349605455 
2.4000000000006403, 0.044717392697737814 
2.4100000000006614, 0.04452366902775678 
2.4200000000006825, 0.044079908816481723 
2.4300000000007036, 0.04333766682738661 
2.4400000000007247, 0.04219426056203412 
2.450000000000746, 0.04048685217784369 
2.460000000000767, 0.038028346738463635 
2.470000000000788, 0.03482506008018853 
2.480000000000809, 0.03179380070154757 
2.49000000000083, 0.031971297788753704 
2.5000000000008513, 0.039699309874511604 
2.5100000000008724, 0.054852772574738015 
2.5200000000008935, 0.07106633388997047 
2.5300000000009146, 0.08332710470896768 
2.5400000000009357, 0.09111864982677062 
2.550000000000957, 0.09574668984483833 
2.560000000000978, 0.09844394158412348 
2.570000000000999, 0.10000288801382229 
2.58000000000102, 0.10088182002133697 
2.5900000000010412, 0.10133915201402907 
2.6000000000010624, 0.10151977467191797 
2.6100000000010835, 0.10150323995843631 
2.6200000000011046, 0.10133024817752394 
2.6300000000011257, 0.10101938390982464 
2.6400000000011468, 0.10058498178966742 
2.650000000001168, 0.10007411854248945 
2.660000000001189, 0.09966155106421529 
2.67000000000121, 0.09986777756641343 
2.680000000001231, 0.10188377296194913 
2.6900000000012523, 0.10745894784603038 
2.7000000000012734, 0.11725734403491699 
2.7100000000012945, 0.12899756686605265 
2.7200000000013156, 0.13924672758637371 
2.7300000000013367, 0.14647497802004528 
2.740000000001358, 0.15101730130019933 
2.750000000001379, 0.15372301158020235 
2.7600000000014, 0.15528899008046249 
2.770000000001421, 0.15616724205161653 
2.780000000001442, 0.15663275736299648 
2.7900000000014633, 0.1568535852993191 
2.8000000000014844, 0.1569368447891783 
2.8100000000015055, 0.15695681164217995 
2.8200000000015266, 0.156973920013548 
2.8300000000015477, 0.15705124409637738 
2.840000000001569, 0.1572731007144219 
2.85000000000159, 0.15776781531910405 
2.860000000001611, 0.15872805700163028 
2.870000000001632, 0.16039900355976366 
2.8800000000016532, 0.16297603792242096 
2.8900000000016743, 0.1663975525276034 
2.9000000000016954, 0.17021169727612226 
2.9100000000017165, 0.17376861492655524 
2.9200000000017377, 0.17659871298110671 
2.9300000000017588, 0.17857347125160225 
2.94000000000178, 0.17979447257748954 
2.950000000001801, 0.18043422449142948 
2.960000000001822, 0.1806522937533474 
2.970000000001843, 0.18057623216755064 
2.9800000000018643, 0.18030821209617015 
2.9900000000018854, 0.1799337798345963 
3.0000000000019065, 0.17952516526972642 
3.0100000000019276, 0.17914072387344585 
3.0200000000019487, 0.17882484287486705 
3.03000000000197, 0.1786106283382334 
3.040000000001991, 0.17852430277434211 
3.050000000002012, 0.17858826536590255 
3.060000000002033, 0.17881954641448788 
3.070000000002054, 0.17922159977166696 
3.0800000000020753, 0.17977096342770083 
3.0900000000020964, 0.1804065915468152 
3.1000000000021175, 0.18103330519662972 
3.1100000000021386, 0.18154286610604045 
3.1200000000021597, 0.1818398900043094 
3.130000000002181, 0.18185465361988276 
3.140000000002202, 0.18153863120379782 
3.150000000002223, 0.18085472492596885 
3.160000000002244, 0.17977835241017767 
3.1700000000022652, 0.17831866838638993 
3.1800000000022863, 0.1765523605627801 
3.1900000000023074, 0.1746386627121743 
3.2000000000023285, 0.17278157344694722 
3.2100000000023496, 0.17115238193024365 
3.2200000000023707, 0.1698339866077077 
3.230000000002392, 0.16882367371861423 
3.240000000002413, 0.16807128938269025 
3.250000000002434, 0.1675146356418244 
3.260000000002455, 0.1670967694032641 
3.2700000000024763, 0.1667686509274746 
3.2800000000024974, 0.16648453235710953 
3.2900000000025185, 0.16619503665928598 
3.3000000000025396, 0.16584007711580884 
3.3100000000025607, 0.1653415373544119 
3.3200000000025818, 0.16459352820764653 
3.330000000002603, 0.1634468023583769 
3.340000000002624, 0.16168656681444724 
3.350000000002645, 0.15901648108503916 
3.360000000002666, 0.15509802750640578 
3.3700000000026873, 0.1497446568670185 
3.3800000000027084, 0.14330089895579573 
3.3900000000027295, 0.13683410765178716 
3.4000000000027506, 0.1315653094305368 
3.4100000000027717, 0.12800411221164484 
3.420000000002793, 0.12587510266066032 
3.430000000002814, 0.1246476648676468 
3.440000000002835, 0.12389915106204075 
3.450000000002856, 0.12337605294305702 
3.460000000002877, 0.122940524993513 
3.4700000000028983, 0.12251402006944856 
3.4800000000029194, 0.12204051333127135 
3.4900000000029405, 0.12146328793316634 
3.5000000000029616, 0.1207063277356905 
3.5100000000029827, 0.1196524997516762 
3.520000000003004, 0.11811010901598243 
3.530000000003025, 0.1157572736856696 
3.540000000003046, 0.11205716808576169 
3.550000000003067, 0.10617858559745239 
3.5600000000030882, 0.09712645630300837 
3.5700000000031094, 0.08461018580488497 
3.5800000000031305, 0.07070848716896885 
3.5900000000031516, 0.05962385571182096 
3.6000000000031727, 0.053697509606464175 
3.6100000000031938, 0.051706778477915695 
3.620000000003215, 0.05149614159584327 
3.630000000003236, 0.051770621569364406 
3.640000000003257, 0.052031090474601714 
3.650000000003278, 0.052142862956466404 
3.6600000000032993, 0.05209004074868272 
3.6700000000033204, 0.05187992408160411 
3.6800000000033415, 0.0515105578650966 
3.6900000000033626, 0.05095777835645763 
3.7000000000033837, 0.05016413794029405 
3.710000000003405, 0.049021040172271296 
3.720000000003426, 0.04733609073039085 
3.730000000003447, 0.044774758860327266 
3.740000000003468, 0.04076580341619138 
3.750000000003489, 0.034392017824246245 
3.7600000000035103, 0.024447400275368535 
3.7700000000035314, 0.010246311684409749 
3.7800000000035525, -0.006154757669861594 
3.7900000000035736, -0.019465499969593236 
3.8000000000035947, -0.026113587231744683 
3.810000000003616, -0.02730547038899685 
3.820000000003637, -0.026158933295980125 
3.830000000003658, -0.024598125595131505 
3.840000000003679, -0.023284152896188345 
3.8500000000037002, -0.02232118667260577 
3.8600000000037213, -0.021658525060134638 
3.8700000000037424, -0.021231265600239156 
3.8800000000037635, -0.020996453394231777 
3.8900000000037847, -0.02093912916352593 
3.9000000000038058, -0.021073817857896072 
3.910000000003827, -0.021449729959591976 
3.920000000003848, -0.02216373434589235 
3.930000000003869, -0.023385682451510677 
3.94000000000389, -0.025402572560587134 
3.9500000000039113, -0.028686338948857398 
3.9600000000039324, -0.03396644416318302 
3.9700000000039535, -0.04219004366729327 
3.9800000000039746, -0.054026047396167766 
3.9900000000039957, -0.06858021257506791 
4.000000000004016, -0.08250533989074457 
4.010000000003993, -0.09218465560404557 
4.02000000000397, -0.09696924313348973 
4.030000000003946, -0.09859120377892938 
4.040000000003923, -0.09881007855238508 
4.0500000000039, -0.09857829171325973 
4.0600000000038765, -0.0982734078483517 
4.070000000003853, -0.0980144290869191 
4.08000000000383, -0.09782893568810422 
4.090000000003807, -0.0977202075978135 
4.100000000003783, -0.09769139391551804 
4.11000000000376, -0.09775472878356087 
4.120000000003737, -0.09793699045186202 
4.130000000003713, -0.09828557869972752 
4.14000000000369, -0.09887722802025678 
4.150000000003667, -0.09983057339326332 
4.1600000000036434, -0.10132264872348991 
4.17000000000362, -0.10360475977922093 
4.180000000003597, -0.10699850587683701 
4.1900000000035735, -0.11182185260009822 
4.20000000000355, -0.11817297610163653 
4.210000000003527, -0.12560372715670004 
4.220000000003504, -0.13302977215585793 
4.23000000000348, -0.13925953073188696 
4.240000000003457, -0.1437186726215875 
4.250000000003434, -0.14655847955827989 
4.26000000000341, -0.14824382332433855 
4.270000000003387, -0.14920584625205366 
4.280000000003364, -0.14973680979139958 
4.2900000000033405, -0.15001029286938294 
4.300000000003317, -0.15012463248953967 
4.310000000003294, -0.1501361803270041 
4.320000000003271, -0.1500802342650316 
4.330000000003247, -0.14998420298925774 
4.340000000003224, -0.14987668972521928 
4.350000000003201, -0.14979409172849967 
4.360000000003177, -0.1497846469990151 
4.370000000003154, -0.14990920182436757 
4.380000000003131, -0.15023824307287578 
4.390000000003107, -0.15084465188439328 
4.400000000003084, -0.15178989778695443 
4.410000000003061, -0.15310001057996028 
4.4200000000030375, -0.1547333885018725 
4.430000000003014, -0.15655943426946664 
4.440000000002991, -0.15837907962364464 
4.450000000002968, -0.15999314975553736 
4.460000000002944, -0.16127352543059065 
4.470000000002921, -0.1621853344232475 
4.480000000002898, -0.16275945385023313 
4.490000000002874, -0.16305125403102674 
4.500000000002851, -0.1631118663241723 
4.510000000002828, -0.1629758869764745 
4.520000000002804, -0.16265970459428164 
4.530000000002781, -0.16216555471463343 
4.540000000002758, -0.16148986354542766 
4.5500000000027345, -0.1606360800089862 
4.560000000002711, -0.15963010151394733 
4.570000000002688, -0.1585310564019817 
4.580000000002665, -0.15742743230791903 
4.590000000002641, -0.15641612442832625 
4.600000000002618, -0.15557590918808334 
4.610000000002595, -0.15495070026995414 
4.620000000002571, -0.15454716144653957 
4.630000000002548, -0.15434063850710966 
4.640000000002525, -0.15428332779406012 
4.6500000000025015, -0.15431375369395367 
4.660000000002478, -0.1543682231079572 
4.670000000002455, -0.1543918707063637 
4.6800000000024315, -0.15434470825657085 
4.690000000002408, -0.1542003680024499 
4.700000000002385, -0.15393917911734273 
4.710000000002362, -0.1535386378095429 
4.720000000002338, -0.15296299456454743 
4.730000000002315, -0.1521520820472592 
4.740000000002292, -0.15101006632301073 
4.750000000002268, -0.14939980975652917 
4.760000000002245, -0.14715966273059033 
4.770000000002222, -0.14416924838821202 
4.7800000000021985, -0.1404670998357992 
4.790000000002175, -0.1363389199178024 
4.800000000002152, -0.13224660650981493 
4.810000000002129, -0.12861274308803136 
4.820000000002105, -0.12565489573390115 
4.830000000002082, -0.12338396975548607 
