t, s[1].omega / s[0].omega 
0, -1.3299976867444154 
0.009999999999999995, -1.3295714935247718 
0.019999999999999934, -1.3287628349042897 
0.029999999999999874, -1.327588258356294 
0.04000000000000012, -1.3260927891319887 
0.050000000000000405, -1.3243687876729513 
0.06000000000000069, -1.3225953995833162 
0.07000000000000098, -1.32109746767559 
0.08000000000000126, -1.3202224065224284 
0.09000000000000155, -1.3199634545691898 
0.10000000000000184, -1.3199297928327491 
0.11000000000000212, -1.319709711158323 
0.12000000000000241, -1.3189525934811217 
0.130000000000002, -1.317124155857941 
0.1400000000000009, -1.313141216073555 
0.1499999999999998, -1.3050023800759774 
0.1599999999999987, -1.2897862888951666 
0.1699999999999976, -1.2647196214625622 
0.1799999999999965, -1.230107059415625 
0.1899999999999954, -1.1937391510218067 
0.1999999999999943, -1.1689317975721005 
0.2099999999999932, -1.1601416519274839 
0.2199999999999921, -1.1598525190561941 
0.229999999999991, -1.1612453159137528 
0.2399999999999899, -1.162170219195593 
0.2499999999999888, -1.1624147682010624 
0.2599999999999877, -1.162002749073473 
0.2699999999999866, -1.1606712216123025 
0.2799999999999855, -1.1574358734268884 
0.2899999999999844, -1.1494593266649589 
0.2999999999999833, -1.1292168627733525 
0.3099999999999822, -1.0806548624522359 
0.3199999999999811, -0.986870177279325 
0.32999999999998, -0.8621529795460383 
0.3399999999999789, -0.7540825980662046 
0.3499999999999778, -0.6919502443979733 
0.35999999999997667, -0.6666611596403947 
0.36999999999997557, -0.6590405858894548 
0.37999999999997447, -0.6577204002580184 
0.38999999999997337, -0.6581309300891367 
0.39999999999997227, -0.6587698629305463 
0.40999999999997117, -0.6592251480557275 
0.41999999999997006, -0.659408373486377 
0.42999999999996896, -0.6592905136348435 
0.43999999999996786, -0.6588145841034664 
0.44999999999996676, -0.6578758186818788 
0.45999999999996566, -0.6563591116618721 
0.46999999999996456, -0.6542451552210137 
0.47999999999996346, -0.6517128748021002 
0.48999999999996235, -0.6490879919532871 
0.49999999999996125, -0.6466567541143332 
0.5099999999999602, -0.6445506859728873 
0.519999999999959, -0.6427737632145554 
0.529999999999958, -0.641280954724455 
0.5399999999999568, -0.6400354764742547 
0.5499999999999557, -0.6390320622438557 
0.5599999999999546, -0.6382972978967163 
0.5699999999999535, -0.6378791690679643 
0.5799999999999524, -0.6378336016775038 
0.5899999999999513, -0.6382133357973648 
0.5999999999999502, -0.6390638124762016 
0.6099999999999491, -0.6404289569118078 
0.619999999999948, -0.6423658204348929 
0.6299999999999469, -0.6449611910236263 
0.6399999999999458, -0.648333740696254 
0.6499999999999447, -0.6525891135515987 
0.6599999999999436, -0.6576835482517935 
0.6699999999999425, -0.6632137850974584 
0.6799999999999414, -0.6683730102081407 
0.6899999999999403, -0.6723651277448981 
0.6999999999999392, -0.6749236001270169 
0.7099999999999381, -0.6762885557840322 
0.719999999999937, -0.6768312206059814 
0.7299999999999359, -0.6768143430602617 
0.7399999999999348, -0.6763418134589372 
0.7499999999999337, -0.6753605984722825 
0.7599999999999326, -0.6736265981269768 
0.7699999999999315, -0.6705708079515692 
0.7799999999999304, -0.6648965131498261 
0.7899999999999293, -0.653185739782223 
0.7999999999999282, -0.6248768764863746 
0.8099999999999271, -0.552823865611641 
0.819999999999926, -0.4211656468275376 
0.8299999999999249, -0.29747143431123013 
0.8399999999999238, -0.23152084513979648 
0.8499999999999227, -0.20294067169931884 
0.8599999999999216, -0.19032874939723762 
0.8699999999999205, -0.18431600314033064 
0.8799999999999194, -0.18124456164390138 
0.8899999999999183, -0.17962655755945325 
0.8999999999999172, -0.17882404840683877 
0.9099999999999161, -0.17856939341946368 
0.919999999999915, -0.17879078463600573 
0.9299999999999139, -0.1795661515439672 
0.9399999999999128, -0.18116043176297242 
0.9499999999999117, -0.18417287918588413 
0.9599999999999106, -0.1899141178888196 
0.9699999999999095, -0.20130705267349708 
0.9799999999999084, -0.22464203979067868 
0.9899999999999073, -0.2698094890952642 
0.9999999999999062, -0.3359599981999849 
1.0099999999999052, -0.39294136524195616 
1.019999999999904, -0.4218981690175405 
1.029999999999903, -0.4333766872902935 
1.039999999999902, -0.43800710129926823 
1.0499999999999008, -0.44009058994007644 
1.0599999999998997, -0.4410944852893622 
1.0699999999998986, -0.44154343995702644 
1.0799999999998975, -0.44163394336844064 
1.0899999999998964, -0.44142624985894524 
1.0999999999998953, -0.44091646833568987 
1.1099999999998942, -0.44008809417453504 
1.119999999999893, -0.4389746784470375 
1.129999999999892, -0.43770679936862916 
1.1399999999998909, -0.4364814198841019 
1.1499999999998898, -0.43546418543371 
1.1599999999998887, -0.4347209038939604 
1.1699999999998876, -0.4342208034745989 
1.1799999999998865, -0.43387673108957975 
1.1899999999998854, -0.433590926793829 
1.1999999999998843, -0.43329144921777685 
1.2099999999998832, -0.43294751291701644 
1.219999999999882, -0.4325677183259096 
1.229999999999881, -0.4322014108241653 
1.2399999999998799, -0.4319669178511771 
1.2499999999998788, -0.4321407390240412 
1.2599999999998777, -0.43338988059968697 
1.2699999999998766, -0.4373642493645427 
1.2799999999998755, -0.44814944990892397 
1.2899999999998744, -0.47503388707458827 
1.2999999999998733, -0.5319795138750998 
1.3099999999998722, -0.6127866643752625 
1.319999999999871, -0.6676247494656422 
1.32999999999987, -0.6791734282740939 
1.3399999999998689, -0.6781543872076379 
1.3499999999998678, -0.6791362251318054 
1.3599999999998666, -0.6815374991967011 
1.3699999999998655, -0.6837066651189836 
1.3799999999998644, -0.6851895659627614 
1.3899999999998633, -0.6860495494521358 
1.3999999999998622, -0.686426710385932 
1.4099999999998611, -0.686399410005457 
1.41999999999986, -0.6859489983558594 
1.429999999999859, -0.6849448858414021 
1.4399999999998578, -0.6831533354797509 
1.4499999999998567, -0.6803389510464479 
1.4599999999998556, -0.676502670227772 
1.4699999999998545, -0.672054088635189 
1.4799999999998534, -0.6676137582326632 
1.4899999999998523, -0.6636374411663523 
1.4999999999998512, -0.6602873438470525 
1.5099999999998501, -0.6575415280408445 
1.519999999999849, -0.6553253841658608 
1.529999999999848, -0.6535782659112573 
1.5399999999998468, -0.6522678295248197 
1.5499999999998457, -0.6513798119674108 
1.5599999999998446, -0.650901938125076 
1.5699999999998435, -0.6508122133656832 
1.5799999999998424, -0.6510763735639683 
1.5899999999998413, -0.6516549203380677 
1.5999999999998402, -0.6525166090560048 
1.6099999999998391, -0.6536530448170881 
1.619999999999838, -0.6550870522906164 
1.629999999999837, -0.6568636228027512 
1.6399999999998358, -0.6590088644296662 
1.6499999999998347, -0.6614522245885821 
1.6599999999998336, -0.6639549500456587 
1.6699999999998325, -0.6661544728323135 
1.6799999999998314, -0.6677591672463883 
1.6899999999998303, -0.6686990118927372 
1.6999999999998292, -0.6690747279224787 
1.709999999999828, -0.6690212664320149 
1.719999999999827, -0.6686287706437974 
1.729999999999826, -0.6679348578590222 
1.7399999999998248, -0.6669699196321812 
1.7499999999998237, -0.6659006642235028 
1.7599999999998226, -0.6654630157356399 
1.7699999999998215, -0.6681790350964665 
1.7799999999998204, -0.6811947197014825 
1.7899999999998193, -0.7199955271091347 
1.7999999999998182, -0.8028270359263262 
1.809999999999817, -0.9228292367590907 
1.819999999999816, -1.036375670016993 
1.8299999999998149, -1.1071612605888081 
1.8399999999998138, -1.1393857282891913 
1.8499999999998127, -1.1520282515158526 
1.8599999999998116, -1.1567999448815645 
1.8699999999998105, -1.158518008952474 
1.8799999999998094, -1.1589275040272302 
1.8899999999998083, -1.1585957946465413 
1.8999999999998072, -1.1576086303168325 
1.909999999999806, -1.1559320120827936 
1.919999999999805, -1.1542985765927023 
1.9299999999998039, -1.156743729698993 
1.9399999999998028, -1.1720545987234663 
1.9499999999998017, -1.204254707915067 
1.9599999999998006, -1.2428877396210547 
1.9699999999997995, -1.2749418578172496 
1.9799999999997984, -1.2959681782567223 
1.9899999999997973, -1.307668857933434 
1.9999999999997962, -1.3133758908910356 
2.0099999999998173, -1.3158262437267803 
2.0199999999998384, -1.31665534093326 
2.0299999999998595, -1.3166800845804096 
2.0399999999998806, -1.3163192758586857 
2.0499999999999017, -1.3159349921309453 
2.059999999999923, -1.315979050850345 
2.069999999999944, -1.3167344088779969 
2.079999999999965, -1.3180166846951469 
2.089999999999986, -1.3194299616932967 
2.100000000000007, -1.320698996547003 
2.1100000000000283, -1.321686157088561 
2.1200000000000494, -1.32232491793225 
2.1300000000000705, -1.32258811290097 
2.1400000000000916, -1.3224691064648741 
2.1500000000001127, -1.3219696009987758 
2.160000000000134, -1.3210998972263137 
2.170000000000155, -1.3198906808883863 
2.180000000000176, -1.3184084126523723 
2.190000000000197, -1.3167712834177254 
2.2000000000002182, -1.3151878795988 
2.2100000000002393, -1.313981437869168 
2.2200000000002604, -1.313389347485222 
2.2300000000002815, -1.3132642330013646 
2.2400000000003026, -1.3132059618000598 
2.2500000000003237, -1.3128530444619275 
2.260000000000345, -1.3118440567124439 
2.270000000000366, -1.309561046154168 
2.280000000000387, -1.3048346908712984 
2.290000000000408, -1.295788919296976 
2.3000000000004293, -1.2801699930245272 
2.3100000000004504, -1.2564978065533365 
2.3200000000004715, -1.2264654395358603 
2.3300000000004926, -1.197809938313995 
2.3400000000005137, -1.1805409786096717 
2.3500000000005348, -1.1755695950137155 
2.360000000000556, -1.1760283578030042 
2.370000000000577, -1.1771891900906437 
2.380000000000598, -1.177804954536389 
2.390000000000619, -1.1777869603790718 
2.4000000000006403, -1.177060207780469 
2.4100000000006614, -1.1751272149196237 
2.4200000000006825, -1.170413273830788 
2.4300000000007036, -1.1584846645227975 
2.4400000000007247, -1.1281749902294416 
2.450000000000746, -1.0599395018779134 
2.460000000000767, -0.9465233175014918 
2.470000000000788, -0.8234891142903583 
2.480000000000809, -0.7372505591477189 
2.49000000000083, -0.6964644267122594 
2.5000000000008513, -0.6827128743723656 
2.5100000000008724, -0.6797355444186163 
2.5200000000008935, -0.6799714834885853 
2.5300000000009146, -0.6807882024312628 
2.5400000000009357, -0.6814478095354356 
2.550000000000957, -0.6818014545667552 
2.560000000000978, -0.6818321548932466 
2.570000000000999, -0.6815069489908552 
2.58000000000102, -0.6807293603273437 
2.5900000000010412, -0.6793426027329887 
2.6000000000010624, -0.677208783824867 
2.6100000000010835, -0.6743673941274053 
2.6200000000011046, -0.671123428029243 
2.6300000000011257, -0.6678980624951081 
2.6400000000011468, -0.6649909286326218 
2.650000000001168, -0.6625059809394753 
2.660000000001189, -0.660425959466426 
2.67000000000121, -0.6587026095625725 
2.680000000001231, -0.6573052967397501 
2.6900000000012523, -0.6562322821542533 
2.7000000000012734, -0.6555020046339829 
2.7100000000012945, -0.6551378346944907 
2.7200000000013156, -0.6551548831608949 
2.7300000000013367, -0.6555542436462559 
2.740000000001358, -0.656326963629272 
2.750000000001379, -0.6574664063153892 
2.7600000000014, -0.6589840571838247 
2.770000000001421, -0.6609198274568234 
2.780000000001442, -0.6633319137369683 
2.7900000000014633, -0.6662452311297986 
2.8000000000014844, -0.6695486627406407 
2.8100000000015055, -0.6729013324898289 
2.8200000000015266, -0.6758085893312551 
2.8300000000015477, -0.6779043459503914 
2.840000000001569, -0.6791396549300694 
2.85000000000159, -0.679680702997907 
2.860000000001611, -0.6797164473485581 
2.870000000001632, -0.6793611831024773 
2.8800000000016532, -0.6786423480850051 
2.8900000000016743, -0.677526363583514 
2.9000000000016954, -0.675998267842428 
2.9100000000017165, -0.6743269023710344 
2.9200000000017377, -0.6738655111114025 
2.9300000000017588, -0.6788335993977335 
2.94000000000178, -0.6973304499021625 
2.950000000001801, -0.7319331876862175 
2.960000000001822, -0.7639527342301095 
2.970000000001843, -0.7799425433182661 
2.9800000000018643, -0.7902435109291963 
2.9900000000018854, -0.7997955885796005 
3.0000000000019065, -0.8069725085292796 
3.0100000000019276, -0.8113854736048001 
3.0200000000019487, -0.8138019763121255 
3.03000000000197, -0.8149940886959505 
3.040000000001991, -0.8154315957808491 
3.050000000002012, -0.8153121538070337 
3.060000000002033, -0.8146013009102209 
3.070000000002054, -0.8129855725218252 
3.0800000000020753, -0.8097098686512504 
3.0900000000020964, -0.803388985799923 
3.1000000000021175, -0.7923074183283653 
3.1100000000021386, -0.7759555064181937 
3.1200000000021597, -0.756570750532479 
3.130000000002181, -0.737806865645139 
3.140000000002202, -0.7221113194700997 
3.150000000002223, -0.7101571701009257 
3.160000000002244, -0.7016544880710617 
3.1700000000022652, -0.6960043456667577 
3.1800000000022863, -0.6925519975011293 
3.1900000000023074, -0.6906672489391312 
3.2000000000023285, -0.6897952696538101 
3.2100000000023496, -0.6894989342835361 
3.2200000000023707, -0.6894723645944155 
3.230000000002392, -0.6895217872868342 
3.240000000002413, -0.6895326449540963 
3.250000000002434, -0.6894451870122534 
3.260000000002455, -0.6892477662942035 
3.2700000000024763, -0.688976173729987 
3.2800000000024974, -0.6886950440336861 
3.2900000000025185, -0.688456786106365 
3.3000000000025396, -0.6882661427724328 
3.3100000000025607, -0.6880790700498773 
3.3200000000025818, -0.687835956350132 
3.330000000002603, -0.6875018993946214 
3.340000000002624, -0.6870870445112346 
3.350000000002645, -0.6866493708356549 
3.360000000002666, -0.6863009598756279 
3.3700000000026873, -0.6862280532637742 
3.3800000000027084, -0.686715895637254 
3.3900000000027295, -0.6881590800645984 
3.4000000000027506, -0.6910446605850229 
3.4100000000027717, -0.6959171363127511 
3.420000000002793, -0.7033452914679572 
3.430000000002814, -0.7138703035171474 
3.440000000002835, -0.7278068178420704 
3.450000000002856, -0.744679635183763 
3.460000000002877, -0.7624342558637698 
3.4700000000028983, -0.7777342768295359 
3.4800000000029194, -0.7882610279414376 
3.4900000000029405, -0.7942339217032951 
3.5000000000029616, -0.7971916207840655 
3.5100000000029827, -0.798473348797826 
3.520000000003004, -0.7988356713848657 
3.530000000003025, -0.7986016148798508 
3.540000000003046, -0.7978142251249524 
3.550000000003067, -0.7962776935745919 
3.5600000000030882, -0.793487473309103 
3.5700000000031094, -0.7884619899845663 
3.5800000000031305, -0.7795084346616756 
3.5900000000031516, -0.7636395042881748 
3.6000000000031727, -0.7329161451054427 
3.6100000000031938, -0.6663081298788619 
3.620000000003215, -0.5552766598560346 
3.630000000003236, -0.45250184317797154 
3.640000000003257, -0.3952160584689386 
3.650000000003278, -0.3698846088513662 
3.6600000000032993, -0.35916775517090693 
3.6700000000033204, -0.3545548171256317 
3.6800000000033415, -0.3525379196184666 
3.6900000000033626, -0.3516742375887141 
3.7000000000033837, -0.3513467948096989 
3.710000000003405, -0.35128266086972193 
3.720000000003426, -0.3513633464985612 
3.730000000003447, -0.3515507583061687 
3.740000000003468, -0.3518627705828924 
3.750000000003489, -0.3523703370113641 
3.7600000000035103, -0.35319914121329254 
3.7700000000035314, -0.354521740561849 
3.7800000000035525, -0.35652033224736185 
3.7900000000035736, -0.3592806730934545 
3.8000000000035947, -0.36260750591389435 
3.810000000003616, -0.365944730435358 
3.820000000003637, -0.3686661614680461 
3.830000000003658, -0.3704862431854055 
3.840000000003679, -0.3714853877367642 
3.8500000000037002, -0.37186182590329636 
3.8600000000037213, -0.37175090421805407 
3.8700000000037424, -0.3711594566852564 
3.8800000000037635, -0.3699258807985178 
3.8900000000037847, -0.3676545780655532 
3.9000000000038058, -0.36368491298504135 
3.910000000003827, -0.3573900745983194 
3.920000000003848, -0.34907143526253986 
3.930000000003869, -0.3404181714135258 
3.94000000000389, -0.3332022859861702 
3.9500000000039113, -0.3279980927082169 
3.9600000000039324, -0.3244802619388419 
3.9700000000039535, -0.3221259013085105 
3.9800000000039746, -0.3205193144561951 
3.9900000000039957, -0.3193915072418195 
4.000000000004016, -0.3185908537834711 
4.010000000003993, -0.31805430401627316 
4.02000000000397, -0.3177951808643123 
4.030000000003946, -0.3179158200686402 
4.040000000003923, -0.31866181826440776 
4.0500000000039, -0.320561453955125 
4.0600000000038765, -0.3247665135564369 
4.070000000003853, -0.33390498856370826 
4.08000000000383, -0.3542049849473236 
4.090000000003807, -0.39983647470408135 
4.100000000003783, -0.4935551015603723 
4.11000000000376, -0.6330633489673361 
4.120000000003737, -0.7561922352046383 
4.130000000003713, -0.8253209468919289 
4.14000000000369, -0.8565556643063866 
4.150000000003667, -0.8699371433137654 
4.1600000000036434, -0.8757115309969423 
4.17000000000362, -0.8782138227140198 
4.180000000003597, -0.8792070235689298 
4.1900000000035735, -0.8793805482363193 
4.20000000000355, -0.8789198503101895 
4.210000000003527, -0.8776464378208255 
4.220000000003504, -0.8748528642176957 
4.23000000000348, -0.8686744331375559 
4.240000000003457, -0.8545973479219625 
4.250000000003434, -0.8235116891174445 
4.26000000000341, -0.7652963967418331 
4.270000000003387, -0.6864236554140757 
4.280000000003364, -0.6141247794251018 
4.2900000000033405, -0.5654269827218437 
4.300000000003317, -0.5376647014564535 
4.310000000003294, -0.5228973405539437 
4.320000000003271, -0.5152780500519735 
4.330000000003247, -0.5114530800642253 
4.340000000003224, -0.509619468280858 
4.350000000003201, -0.5088191247216858 
4.360000000003177, -0.5085430390840593 
4.370000000003154, -0.508521578679733 
4.380000000003131, -0.5086145996715005 
4.390000000003107, -0.5087565670649352 
4.400000000003084, -0.5089338247561067 
4.410000000003061, -0.5091778450618227 
4.4200000000030375, -0.5095567089877184 
4.430000000003014, -0.5101495903231701 
4.440000000002991, -0.5110015086097911 
4.450000000002968, -0.5120705120624085 
4.460000000002944, -0.513202280821949 
4.470000000002921, -0.5141826509618653 
4.480000000002898, -0.5148498931344556 
4.490000000002874, -0.5151558440722203 
4.500000000002851, -0.5151291245526616 
4.510000000002828, -0.5148068192151581 
4.520000000002804, -0.514188952893951 
4.530000000002781, -0.5132111984147903 
4.540000000002758, -0.5117024774435124 
4.5500000000027345, -0.5092444349761974 
4.560000000002711, -0.5045717964280644 
4.570000000002688, -0.49287434346052317 
4.580000000002665, -0.45686246892438154 
4.590000000002641, -0.36633967462753775 
4.600000000002618, -0.2485918771158074 
4.610000000002595, -0.17360745438747807 
4.620000000002571, -0.14005705992528275 
4.630000000002548, -0.1255026097431786 
4.640000000002525, -0.1186713688720707 
4.6500000000025015, -0.11517928285599381 
4.660000000002478, -0.11329243122347382 
4.670000000002455, -0.1122867269453298 
4.6800000000024315, -0.11186661526238614 
4.690000000002408, -0.11196318238803518 
4.700000000002385, -0.11269326933572599 
4.710000000002362, -0.11444036302657737 
4.720000000002338, -0.11814582205349067 
4.730000000002315, -0.12616013648380486 
4.740000000002292, -0.14476272465842907 
4.750000000002268, -0.1907681264756632 
4.760000000002245, -0.29458182191811955 
4.770000000002222, -0.4365367189947694 
4.7800000000021985, -0.5179588883630992 
4.790000000002175, -0.5392372047057666 
4.800000000002152, -0.5436427402446031 
4.810000000002129, -0.5455206370239676 
4.820000000002105, -0.546899576246548 
4.830000000002082, -0.5478982031142787 
4.840000000002059, -0.5485407730530214 
4.850000000002035, -0.5488751021469399 
4.860000000002012, -0.5489339168166257 
4.870000000001989, -0.5487144319255027 
4.880000000001965, -0.5481788047917608 
4.890000000001942, -0.5472805831825738 
4.900000000001919, -0.5460246993528527 
4.9100000000018955, -0.5445271047563481 
