t, s[1].omega / s[0].omega 
0, -0.539997747098089 
0.009999999999999995, -0.5397980365776893 
0.019999999999999934, -0.5396388175123803 
0.029999999999999874, -0.5394938401487199 
0.04000000000000012, -0.5393308144666318 
0.050000000000000405, -0.539122210291341 
0.06000000000000069, -0.5388518756027776 
0.07000000000000098, -0.5385160369851729 
0.08000000000000126, -0.5381209951327136 
0.09000000000000155, -0.5376810437583494 
0.10000000000000184, -0.5372192470960082 
0.11000000000000212, -0.5367726852895428 
0.12000000000000241, -0.5364037212780965 
0.130000000000002, -0.536219663206097 
0.1400000000000009, -0.5364041110590451 
0.1499999999999998, -0.53726243275748 
0.1599999999999987, -0.5392762531135563 
0.1699999999999976, -0.5431360572445547 
0.1799999999999965, -0.5496613623535831 
0.1899999999999954, -0.5594461495460884 
0.1999999999999943, -0.5721661140635536 
0.2099999999999932, -0.5860557956635997 
0.2199999999999921, -0.5985772880424477 
0.229999999999991, -0.6080815779283185 
0.2399999999999899, -0.6145400913646774 
0.2499999999999888, -0.6187809194363308 
0.2599999999999877, -0.6216084281275915 
0.2699999999999866, -0.6235367078888993 
0.2799999999999855, -0.6248588578037182 
0.2899999999999844, -0.6257481490043496 
0.2999999999999833, -0.626314609514055 
0.3099999999999822, -0.626629623904546 
0.3199999999999811, -0.6267361793197136 
0.32999999999998, -0.6266532677859645 
0.3399999999999789, -0.6263776697578564 
0.3499999999999778, -0.6258849502030301 
0.35999999999997667, -0.6251322783421973 
0.36999999999997557, -0.6240673384153423 
0.37999999999997447, -0.6226477007391055 
0.38999999999997337, -0.6208693073461685 
0.39999999999997227, -0.6187903145182753 
0.40999999999997117, -0.6165293572017526 
0.41999999999997006, -0.6142320054448679 
0.42999999999996896, -0.6120262948561439 
0.43999999999996786, -0.6099953264441955 
0.44999999999996676, -0.6081759199642247 
0.45999999999996566, -0.6065732778947169 
0.46999999999996456, -0.605178312175295 
0.47999999999996346, -0.6039803622165422 
0.48999999999996235, -0.6029740018667918 
0.49999999999996125, -0.6021614211930691 
0.5099999999999602, -0.6015523034102419 
0.519999999999959, -0.60116262385899 
0.529999999999958, -0.6010132520298599 
0.5399999999999568, -0.60112890851189 
0.5499999999999557, -0.601537839637895 
0.5599999999999546, -0.6022723507988349 
0.5699999999999535, -0.6033699338658159 
0.5799999999999524, -0.6048740074520975 
0.5899999999999513, -0.606832145127163 
0.5999999999999502, -0.6092881410418949 
0.6099999999999491, -0.6122631250054799 
0.619999999999948, -0.6157227950660231 
0.6299999999999469, -0.6195375290659462 
0.6399999999999458, -0.6234613223110218 
0.6499999999999447, -0.6271675500307947 
0.6599999999999436, -0.630349582589602 
0.6699999999999425, -0.6328275001746899 
0.6799999999999414, -0.6345825621918315 
0.6899999999999403, -0.6357094179245054 
0.6999999999999392, -0.6363417056879119 
0.7099999999999381, -0.6365993295697014 
0.719999999999937, -0.6365661486156423 
0.7299999999999359, -0.6362855366166437 
0.7399999999999348, -0.6357606066423738 
0.7499999999999337, -0.6349509518208989 
0.7599999999999326, -0.6337607495601038 
0.7699999999999315, -0.6320131505262053 
0.7799999999999304, -0.6294051726598946 
0.7899999999999293, -0.6254426718617776 
0.7999999999999282, -0.6193858820234699 
0.8099999999999271, -0.6103231021343754 
0.819999999999926, -0.5975888526352178 
0.8299999999999249, -0.5815429342108371 
0.8399999999999238, -0.5640040236249086 
0.8499999999999227, -0.5474844261869712 
0.8599999999999216, -0.5338179854588017 
0.8699999999999205, -0.5235670650766111 
0.8799999999999194, -0.5163795958452206 
0.8899999999999183, -0.5115637303876175 
0.8999999999999172, -0.5084416859318959 
0.9099999999999161, -0.5064759437324743 
0.919999999999915, -0.5052790904106282 
0.9299999999999139, -0.5045851644924485 
0.9399999999999128, -0.5042164829275401 
0.9499999999999117, -0.5040564722703539 
0.9599999999999106, -0.504029978447331 
0.9699999999999095, -0.5040899328467066 
0.9799999999999084, -0.5042089286512883 
0.9899999999999073, -0.5043744716517697 
0.9999999999999062, -0.5045867228834352 
1.0099999999999052, -0.5048572092436086 
1.019999999999904, -0.5052064305637949 
1.029999999999903, -0.5056582066085866 
1.039999999999902, -0.5062297415658139 
1.0499999999999008, -0.5069189072252122 
1.0599999999998997, -0.5076935707023698 
1.0699999999998986, -0.5084902632260196 
1.0799999999998975, -0.5092274343106602 
1.0899999999998964, -0.5098293938884942 
1.0999999999998953, -0.5102472896048342 
1.1099999999998942, -0.510465046514585 
1.119999999999893, -0.5104904544516681 
1.129999999999892, -0.5103405370223604 
1.1399999999998909, -0.5100290784931415 
1.1499999999998898, -0.5095584193767351 
1.1599999999998887, -0.5089136188236624 
1.1699999999998876, -0.5080555563496045 
1.1799999999998865, -0.5069084221711747 
1.1899999999998854, -0.5053341953999492 
1.1999999999998843, -0.5030810295788308 
1.2099999999998832, -0.4996883580228505 
1.219999999999882, -0.4943570098719724 
1.229999999999881, -0.4859243299156639 
1.2399999999998799, -0.47333181477420344 
1.2499999999998788, -0.45679215069959067 
1.2599999999998777, -0.4385487106475039 
1.2699999999998766, -0.42170090755162287 
1.2799999999998755, -0.4082313312697168 
1.2899999999998744, -0.3984602309090771 
1.2999999999998733, -0.39175929796601067 
1.3099999999998722, -0.38729349861484164 
1.319999999999871, -0.38435856544103836 
1.32999999999987, -0.3824483273830971 
1.3399999999998689, -0.38122350550995376 
1.3499999999998678, -0.3804640636013469 
1.3599999999998666, -0.3800302646977002 
1.3699999999998655, -0.37983587534640945 
1.3799999999998644, -0.3798312090823307 
1.3899999999998633, -0.3799931865721752 
1.3999999999998622, -0.3803202694826756 
1.4099999999998611, -0.38083072954233005 
1.41999999999986, -0.38156286240165616 
1.429999999999859, -0.38257528846569105 
1.4399999999998578, -0.38394427596075437 
1.4499999999998567, -0.38575305268061755 
1.4599999999998556, -0.388066210859045 
1.4699999999998545, -0.390884684657334 
1.4799999999998534, -0.3940920965498336 
1.4899999999998523, -0.39743271037770034 
1.4999999999998512, -0.40057021874337567 
1.5099999999998501, -0.40321564941134425 
1.519999999999849, -0.4052298409978651 
1.529999999999848, -0.40662684791255854 
1.5399999999998468, -0.4075061946342534 
1.5499999999998457, -0.4079832027288419 
1.5599999999998446, -0.4081503916909385 
1.5699999999998435, -0.40806498755531334 
1.5799999999998424, -0.40774796390415513 
1.5899999999998413, -0.407184995417469 
1.5999999999998402, -0.40632619096088274 
1.6099999999998391, -0.40508701465913655 
1.619999999999838, -0.4033589232259259 
1.629999999999837, -0.4010433873510686 
1.6399999999998358, -0.39811598105195206 
1.6499999999998347, -0.39469388271217704 
1.6599999999998336, -0.3910425538529516 
1.6699999999998325, -0.3874864899846722 
1.6799999999998314, -0.38428458014751243 
1.6899999999998303, -0.3815640083949612 
1.6999999999998292, -0.37933420483947017 
1.709999999999828, -0.37753712102338793 
1.719999999999827, -0.37609243211876264 
1.729999999999826, -0.37492439833502034 
1.7399999999998248, -0.3739736588369424 
1.7499999999998237, -0.37320056091619536 
1.7599999999998226, -0.37258511638343805 
1.7699999999998215, -0.3721267877409847 
1.7799999999998204, -0.37184609303377647 
1.7899999999998193, -0.3717895269108523 
1.7999999999998182, -0.37203944643411746 
1.809999999999817, -0.37273124656079293 
1.819999999999816, -0.3740810229178517 
1.8299999999998149, -0.3764267758289471 
1.8399999999998138, -0.38028092815431797 
1.8499999999998127, -0.3863699190881804 
1.8599999999998116, -0.3955751791837263 
1.8699999999998105, -0.4085849447894573 
1.8799999999998094, -0.4250872500182353 
1.8899999999998083, -0.44296011554293074 
1.8999999999998072, -0.4588734410286932 
1.909999999999806, -0.4705203573052052 
1.919999999999805, -0.47786882224079186 
1.9299999999998039, -0.4821869322022973 
1.9399999999998028, -0.48472648938196344 
1.9499999999998017, -0.4862790389206674 
1.9599999999998006, -0.48726492236825925 
1.9699999999997995, -0.487897963807121 
1.9799999999997984, -0.48828975477495523 
1.9899999999997973, -0.48850060115574434 
1.9999999999997962, -0.4885623465056595 
2.0099999999998173, -0.4884886870085766 
2.0199999999998384, -0.4882806607938436 
2.0299999999998595, -0.4879313401178675 
2.0399999999998806, -0.4874322873669673 
2.0499999999999017, -0.4867828927685881 
2.059999999999923, -0.486000731865475 
2.069999999999944, -0.4851272279979558 
2.079999999999965, -0.4842224004541654 
2.089999999999986, -0.48334880554632564 
2.100000000000007, -0.4825532099097517 
2.1100000000000283, -0.48185592217457074 
2.1200000000000494, -0.48125135654254214 
2.1300000000000705, -0.48071680074060963 
2.1400000000000916, -0.4802239301941416 
2.1500000000001127, -0.479748389196417 
2.160000000000134, -0.4792751120123196 
2.170000000000155, -0.4787998154448473 
2.180000000000176, -0.478328893175571 
2.190000000000197, -0.4778802069474605 
2.2000000000002182, -0.47748673830739213 
2.2100000000002393, -0.4772047628122009 
2.2200000000002604, -0.4771285747828752 
2.2300000000002815, -0.47741462588938716 
2.2400000000003026, -0.4783183105349115 
2.2500000000003237, -0.4802436698114151 
2.260000000000345, -0.48379202264956317 
2.270000000000366, -0.48975318616468505 
2.280000000000387, -0.4989001342254621 
2.290000000000408, -0.5114067413476978 
2.3000000000004293, -0.5260417883426235 
2.3100000000004504, -0.5401440691459647 
2.3200000000004715, -0.5512136897801797 
2.3300000000004926, -0.5585690324233974 
2.3400000000005137, -0.5630721495425256 
2.3500000000005348, -0.5658583199865385 
2.360000000000556, -0.567684823473966 
2.370000000000577, -0.5689413207895074 
2.380000000000598, -0.5698174569618862 
2.390000000000619, -0.5704138704254847 
2.4000000000006403, -0.5707908644296493 
2.4100000000006614, -0.570986027979884 
2.4200000000006825, -0.5710200508895434 
2.4300000000007036, -0.5708986616931233 
2.4400000000007247, -0.5706137864528127 
2.450000000000746, -0.5701459418522912 
2.460000000000767, -0.569470198211105 
2.470000000000788, -0.5685677789956008 
2.480000000000809, -0.5674422261047841 
2.49000000000083, -0.566132705260374 
2.5000000000008513, -0.5647131976589401 
2.5100000000008724, -0.5632734172543183 
2.5200000000008935, -0.5618919057456332 
2.5300000000009146, -0.5606176557799919 
2.5400000000009357, -0.5594677389502914 
2.550000000000957, -0.5584367350946703 
2.560000000000978, -0.5575097004257591 
2.570000000000999, -0.5566728373204197 
2.58000000000102, -0.5559199705440756 
2.5900000000010412, -0.55525567158721 
2.6000000000010624, -0.5546968558378242 
2.6100000000010835, -0.554274412518873 
2.6200000000011046, -0.5540357424138485 
2.6300000000011257, -0.5540485463685031 
2.6400000000011468, -0.5544059651460149 
2.650000000001168, -0.5552330547951185 
2.660000000001189, -0.5566942277886566 
2.67000000000121, -0.5590000396315481 
2.680000000001231, -0.5624083796967685 
2.6900000000012523, -0.5672081076164637 
2.7000000000012734, -0.5736622428741411 
2.7100000000012945, -0.5818814838352719 
2.7200000000013156, -0.5916277604671437 
2.7300000000013367, -0.6021526719583167 
2.740000000001358, -0.6122956740535067 
2.750000000001379, -0.6209407980176785 
2.7600000000014, -0.6275094873708151 
2.770000000001421, -0.6320563422234604 
2.780000000001442, -0.6349953462034492 
2.7900000000014633, -0.6367960565420276 
2.8000000000014844, -0.6378325352320164 
2.8100000000015055, -0.6383564087740007 
2.8200000000015266, -0.6385184232243335 
2.8300000000015477, -0.6383949111005921 
2.840000000001569, -0.6380047235888047 
2.85000000000159, -0.6373142999716037 
2.860000000001611, -0.6362317001213681 
2.870000000001632, -0.6345922638768932 
2.8800000000016532, -0.6321450257229396 
2.8900000000016743, -0.6285651817872534 
2.9000000000016954, -0.6235380453841989 
2.9100000000017165, -0.6169431993901819 
2.9200000000017377, -0.6090571047004463 
2.9300000000017588, -0.6005689892822739 
2.94000000000178, -0.592317731681469 
2.950000000001801, -0.5849568594710242 
2.960000000001822, -0.5788040282411436 
2.970000000001843, -0.5738942138111471 
2.9800000000018643, -0.5701051579037995 
2.9900000000018854, -0.567258672844906 
3.0000000000019065, -0.5651760731300258 
3.0100000000019276, -0.5637004546332165 
3.0200000000019487, -0.5627019180842525 
3.03000000000197, -0.5620760246269152 
3.040000000001991, -0.5617404513574624 
3.050000000002012, -0.5616317507919284 
3.060000000002033, -0.5617027383297624 
3.070000000002054, -0.561920560967002 
3.0800000000020753, -0.5622653857390463 
3.0900000000020964, -0.5627295223443769 
3.1000000000021175, -0.5633164298872297 
3.1100000000021386, -0.5640384165962158 
3.1200000000021597, -0.5649112477274267 
3.130000000002181, -0.5659440899202307 
3.140000000002202, -0.567125196060954 
3.150000000002223, -0.5684079549815209 
3.160000000002244, -0.5697067755952387 
3.1700000000022652, -0.570911977184638 
3.1800000000022863, -0.5719214157040972 
3.1900000000023074, -0.5726707777059784 
3.2000000000023285, -0.5731434575072858 
3.2100000000023496, -0.5733582895685306 
3.2200000000023707, -0.5733484486911102 
3.230000000002392, -0.57314401709875 
3.240000000002413, -0.5727619398736536 
3.250000000002434, -0.5722010721175159 
3.260000000002455, -0.5714385757686655 
3.2700000000024763, -0.5704241936733458 
3.2800000000024974, -0.5690683321151933 
3.2900000000025185, -0.5672167091266129 
3.3000000000025396, -0.5645977176311785 
3.3100000000025607, -0.5607246487655823 
3.3200000000025818, -0.5547697194549326 
3.330000000002603, -0.5455872963522771 
3.340000000002624, -0.5323031912930538 
3.350000000002645, -0.515514926326327 
3.360000000002666, -0.4977478324633095 
3.3700000000026873, -0.48197817099784357 
3.3800000000027084, -0.46983370296639204 
3.3900000000027295, -0.46135715472665406 
3.4000000000027506, -0.45579615183188943 
3.4100000000027717, -0.4522854642716328 
3.420000000002793, -0.4501281920280841 
3.430000000002814, -0.4488362920199882 
3.440000000002835, -0.44808944906008846 
3.450000000002856, -0.44768402351234293 
3.460000000002877, -0.44749283704798026 
3.4700000000028983, -0.4474377448330765 
3.4800000000029194, -0.44747222135500975 
3.4900000000029405, -0.44757099308906473 
3.5000000000029616, -0.4477244935581514 
3.5100000000029827, -0.4479364427600946 
3.520000000003004, -0.44822285565161585 
3.530000000003025, -0.44861039130025765 
3.540000000003046, -0.44913169667381886 
3.550000000003067, -0.4498159552458231 
3.5600000000030882, -0.4506746431767814 
3.5700000000031094, -0.45168580185236484 
3.5800000000031305, -0.45278474408689845 
3.5900000000031516, -0.4538714484155145 
3.6000000000031727, -0.45483763431996527 
3.6100000000031938, -0.4556002464768958 
3.620000000003215, -0.4561201866911212 
3.630000000003236, -0.45639769691561394 
3.640000000003257, -0.4564537154129479 
3.650000000003278, -0.4563106881146767 
3.6600000000032993, -0.4559789175450392 
3.6700000000033204, -0.4554470789048438 
3.6800000000033415, -0.45467234514183763 
3.6900000000033626, -0.45356471272622556 
3.7000000000033837, -0.4519596438521529 
3.710000000003405, -0.4495746833798351 
3.720000000003426, -0.44595886555516734 
3.730000000003447, -0.4404900256583878 
3.740000000003468, -0.4325576562602665 
3.750000000003489, -0.42204581079862463 
3.7600000000035103, -0.4098259209527857 
3.7700000000035314, -0.3975551802175343 
3.7800000000035525, -0.3867539376824326 
3.7900000000035736, -0.378132212341792 
3.8000000000035947, -0.37165751762510013 
3.810000000003616, -0.36694766703889437 
3.820000000003637, -0.3635670350152471 
3.830000000003658, -0.36115143292771046 
3.840000000003679, -0.35943247982384824 
3.8500000000037002, -0.35822478264042645 
3.8600000000037213, -0.3574060730864674 
3.8700000000037424, -0.35690052091679825 
3.8800000000037635, -0.35666735624973767 
3.8900000000037847, -0.3566944876153143 
3.9000000000038058, -0.3569964539269484 
3.910000000003827, -0.3576163116282778 
3.920000000003848, -0.35863132050173696 
3.930000000003869, -0.3601620957430103 
3.94000000000389, -0.3623834117311395 
3.9500000000039113, -0.3655302795836877 
3.9600000000039324, -0.3698823220645283 
3.9700000000039535, -0.3756923177830788 
3.9800000000039746, -0.38301905875869385 
3.9900000000039957, -0.39149064854690463 
4.000000000004016, -0.4002028701905937 
4.010000000003993, -0.4080245335784595 
4.02000000000397, -0.4141752560818463 
4.030000000003946, -0.41851660291374193 
4.040000000003923, -0.4213592993038822 
4.0500000000039, -0.42313131475380217 
4.0600000000038765, -0.4241888529832637 
4.070000000003853, -0.42477406968120757 
4.08000000000383, -0.4250344766484385 
4.090000000003807, -0.4250514607012999 
4.100000000003783, -0.4248615894933008 
4.11000000000376, -0.4244700674964089 
4.120000000003737, -0.423860244225809 
4.130000000003713, -0.42300425725545476 
4.14000000000369, -0.42187950604979985 
4.150000000003667, -0.42049151119628425 
4.1600000000036434, -0.41889419011149975 
4.17000000000362, -0.4171907599156814 
4.180000000003597, -0.4155068714877815 
4.1900000000035735, -0.4139506100453162 
4.20000000000355, -0.41258504621691355 
4.210000000003527, -0.4114249389855586 
4.220000000003504, -0.4104503202752909 
4.23000000000348, -0.4096245183065189 
4.240000000003457, -0.40890893222835256 
4.250000000003434, -0.4082721826083513 
4.26000000000341, -0.40769425458704245 
4.270000000003387, -0.40716763507915826 
4.280000000003364, -0.4066978094792127 
4.2900000000033405, -0.40630520592148134 
4.300000000003317, -0.40603034115455605 
4.310000000003294, -0.40594402655437545 
4.320000000003271, -0.4061651518550793 
4.330000000003247, -0.40688934407671057 
4.340000000003224, -0.4084309092673961 
4.350000000003201, -0.4112720525675404 
4.360000000003177, -0.41608199509673083 
4.370000000003154, -0.42358948896378434 
4.380000000003131, -0.4340921894318971 
4.390000000003107, -0.4465617726745075 
4.400000000003084, -0.4582522433993993 
4.410000000003061, -0.46628583294191195 
4.4200000000030375, -0.4700251105323333 
4.430000000003014, -0.4709811756530458 
4.440000000002991, -0.47088312151311484 
4.450000000002968, -0.47065791837066406 
4.460000000002944, -0.47057781923376457 
4.470000000002921, -0.470637944035058 
4.480000000002898, -0.47076989879612696 
4.490000000002874, -0.4709144450044104 
4.500000000002851, -0.4710335888133696 
4.510000000002828, -0.4711053570663057 
4.520000000002804, -0.47111673587777825 
4.530000000002781, -0.47105883999453607 
4.540000000002758, -0.47092499593778053 
4.5500000000027345, -0.4707117449329992 
4.560000000002711, -0.4704223858044734 
4.570000000002688, -0.47007154421271935 
4.580000000002665, -0.4696876016935797 
4.590000000002641, -0.4693094566953387 
4.600000000002618, -0.4689768158786983 
4.610000000002595, -0.46871766063663794 
4.620000000002571, -0.4685387501561613 
4.630000000002548, -0.46842344345015546 
4.640000000002525, -0.46833770224877613 
4.6500000000025015, -0.4682415944870725 
4.660000000002478, -0.4681009606420563 
4.670000000002455, -0.4678941373183215 
4.6800000000024315, -0.46761225844868565 
4.690000000002408, -0.46725554986966833 
4.700000000002385, -0.4668291672478156 
4.710000000002362, -0.46634091600320565 
4.720000000002338, -0.4658017114758244 
4.730000000002315, -0.4652289251915409 
4.740000000002292, -0.4646523768486096 
4.750000000002268, -0.4641210490741279 
4.760000000002245, -0.46370196371091754 
4.770000000002222, -0.4634436915183312 
4.7800000000021985, -0.46323992466176367 
4.790000000002175, -0.4625143372113327 
4.800000000002152, -0.45985754405653356 
4.810000000002129, -0.45337177314663923 
4.820000000002105, -0.4424277279656422 
4.830000000002082, -0.4290731702160663 
4.840000000002059, -0.41654436969829317 
4.850000000002035, -0.4068087118321369 
4.860000000002012, -0.40009546487809144 
4.870000000001989, -0.3957755488540345 
4.880000000001965, -0.39310176547948783 
4.890000000001942, -0.3914873865089498 
