t, s[1].omega / s[0].omega 
0, -1.220113925513747 
0.009999999999999995, -1.2301354849491724 
0.019999999999999934, -1.2372819663602521 
0.029999999999999874, -1.2418913500252189 
0.04000000000000012, -1.2446200818626711 
0.050000000000000405, -1.2460875066172323 
0.06000000000000069, -1.2467490437633617 
0.07000000000000098, -1.2468983207334712 
0.08000000000000126, -1.246714366765247 
0.09000000000000155, -1.2463162620855601 
0.10000000000000184, -1.2458177181990284 
0.11000000000000212, -1.2453770577802168 
0.12000000000000241, -1.2452148880328502 
0.130000000000002, -1.245554790214325 
0.1400000000000009, -1.2465009560716613 
0.1499999999999998, -1.247967159826068 
0.1599999999999987, -1.249734195427697 
0.1699999999999976, -1.251564428068805 
0.1799999999999965, -1.2532736717485244 
0.1899999999999954, -1.2547443960872835 
0.1999999999999943, -1.2559116793223686 
0.2099999999999932, -1.2567463845051705 
0.2199999999999921, -1.2572439103967827 
0.229999999999991, -1.2574182201174546 
0.2399999999999899, -1.2572981309655304 
0.2499999999999888, -1.2569240398816692 
0.2599999999999877, -1.2563461027348783 
0.2699999999999866, -1.2556256225406779 
0.2799999999999855, -1.2548379175451907 
0.2899999999999844, -1.2540702771117407 
0.2999999999999833, -1.253409980220948 
0.3099999999999822, -1.2529259684755405 
0.3199999999999811, -1.252651764428247 
0.32999999999998, -1.252573337654102 
0.3399999999999789, -1.2526281063322031 
0.3499999999999778, -1.2527222912613456 
0.35999999999997667, -1.2527572101662288 
0.36999999999997557, -1.25264474873353 
0.37999999999997447, -1.252306256613688 
0.38999999999997337, -1.251664975170391 
0.39999999999997227, -1.2506433481658148 
0.40999999999997117, -1.2491694945081215 
0.41999999999997006, -1.2471902646202913 
0.42999999999996896, -1.2446860683797865 
0.43999999999996786, -1.241686607961275 
0.44999999999996676, -1.2382923916706017 
0.45999999999996566, -1.2347046047469745 
0.46999999999996456, -1.2312458010302103 
0.47999999999996346, -1.228319590305333 
0.48999999999996235, -1.2262609933953363 
0.49999999999996125, -1.2251462827266135 
0.5099999999999602, -1.2247534899504406 
0.519999999999959, -1.2247297501429473 
0.529999999999958, -1.2247794767948095 
0.5399999999999568, -1.2247223217372731 
0.5499999999999557, -1.2244500268433902 
0.5599999999999546, -1.2238587666340472 
0.5699999999999535, -1.222785658857252 
0.5799999999999524, -1.220942976674683 
0.5899999999999513, -1.217843559342484 
0.5999999999999502, -1.2127445959637895 
0.6099999999999491, -1.204714959405357 
0.619999999999948, -1.193025123570697 
0.6299999999999469, -1.177976201616165 
0.6399999999999458, -1.161706534666593 
0.6499999999999447, -1.1477608841821594 
0.6599999999999436, -1.138945638810758 
0.6699999999999425, -1.1354509678935538 
0.6799999999999414, -1.1353769846512332 
0.6899999999999403, -1.136620968725089 
0.6999999999999392, -1.1379416471429298 
0.7099999999999381, -1.1388916518194334 
0.719999999999937, -1.1394135667369778 
0.7299999999999359, -1.1395612550798107 
0.7399999999999348, -1.1393786597458142 
0.7499999999999337, -1.1388561693699202 
0.7599999999999326, -1.137907681520069 
0.7699999999999315, -1.1363445174768714 
0.7799999999999304, -1.1338494320954142 
0.7899999999999293, -1.1299990505890531 
0.7999999999999282, -1.1244714673381142 
0.8099999999999271, -1.117637934177857 
0.819999999999926, -1.1114069341369313 
0.8299999999999249, -1.1091525857750617 
0.8399999999999238, -1.113407973534905 
0.8499999999999227, -1.1231513695783428 
0.8599999999999216, -1.1345318869906307 
0.8699999999999205, -1.1441826881551074 
0.8799999999999194, -1.15091750167634 
0.8899999999999183, -1.1550782184054664 
0.8999999999999172, -1.1574406924154328 
0.9099999999999161, -1.1586656381409708 
0.919999999999915, -1.1591845863407326 
0.9299999999999139, -1.159242059826593 
0.9399999999999128, -1.1589574121781738 
0.9499999999999117, -1.158372985069601 
0.9599999999999106, -1.1574980635318934 
0.9699999999999095, -1.156380096168466 
0.9799999999999084, -1.1552492946063153 
0.9899999999999073, -1.1547463944667518 
0.9999999999999062, -1.1560577973397486 
1.0099999999999052, -1.1605399122783902 
1.019999999999904, -1.1687280429488032 
1.029999999999903, -1.1796210293614964 
1.039999999999902, -1.191168552268692 
1.0499999999999008, -1.2014547445209591 
1.0599999999998997, -1.2094521077171332 
1.0699999999998986, -1.2150293625254345 
1.0799999999998975, -1.2185799238561288 
1.0899999999998964, -1.2206504254693673 
1.0999999999998953, -1.2217242685496235 
1.1099999999998942, -1.2221509297424926 
1.119999999999893, -1.2221565723701402 
1.129999999999892, -1.221884148161276 
1.1399999999998909, -1.221440501909808 
1.1499999999998898, -1.2209452607417948 
1.1599999999998887, -1.2205710991068526 
1.1699999999998876, -1.2205416735202577 
1.1799999999998865, -1.2210538474085513 
1.1899999999998854, -1.2221648774492473 
1.1999999999998843, -1.2237548326360805 
1.2099999999998832, -1.2256006140468092 
1.219999999999882, -1.227478300141779 
1.229999999999881, -1.2292182880086442 
1.2399999999998799, -1.2307118245986257 
1.2499999999998788, -1.231897526130493 
1.2599999999998777, -1.2327472163699684 
1.2699999999998766, -1.233257106717622 
1.2799999999998755, -1.233443133847214 
1.2899999999998744, -1.2333372337521786 
1.2999999999998733, -1.2329832782754409 
1.3099999999998722, -1.232434553962122 
1.319999999999871, -1.2317549004073647 
1.32999999999987, -1.231021433682737 
1.3399999999998689, -1.230321849356774 
1.3499999999998678, -1.2297410166686433 
1.3599999999998666, -1.229341455296019 
1.3699999999998655, -1.2291478022028277 
1.3799999999998644, -1.2291397869382155 
1.3899999999998633, -1.2292554607957187 
1.3999999999998622, -1.229407234299067 
1.4099999999998611, -1.2295039499575977 
1.41999999999986, -1.2294649413077123 
1.429999999999859, -1.2292213507235048 
1.4399999999998578, -1.2287120361738613 
1.4499999999998567, -1.2278825690699964 
1.4599999999998556, -1.2266897705726358 
1.4699999999998545, -1.2251089036090386 
1.4799999999998534, -1.223140207354992 
1.4899999999998523, -1.220815329089703 
1.4999999999998512, -1.2182076419425514 
1.5099999999998501, -1.215448574217225 
1.519999999999849, -1.212742304109733 
1.529999999999848, -1.2103537921681378 
1.5399999999998468, -1.2085369909727754 
1.5499999999998457, -1.207413791338419 
1.5599999999998446, -1.2069000679201953 
1.5699999999998435, -1.2067645336403334 
1.5799999999998424, -1.2067605590852963 
1.5899999999998413, -1.2067068157085075 
1.5999999999998402, -1.2064837893673477 
1.6099999999998391, -1.2059887977862815 
1.619999999999838, -1.2050849322124195 
1.629999999999837, -1.2035522547582007 
1.6399999999998358, -1.201043593659414 
1.6499999999998347, -1.19706505067061 
1.6599999999998336, -1.1910345184255517 
1.6699999999998325, -1.1824922766374948 
1.6799999999998314, -1.1714859443719186 
1.6899999999998303, -1.1589759109133582 
1.6999999999998292, -1.1468715033214545 
1.709999999999828, -1.137320564721644 
1.719999999999827, -1.1315221559797217 
1.729999999999826, -1.1291288943939275 
1.7399999999998248, -1.1288359217132882 
1.7499999999998237, -1.1293815958269462 
1.7599999999998226, -1.1300226006175838 
1.7699999999998215, -1.1304611590141334 
1.7799999999998204, -1.130622250348815 
1.7899999999998193, -1.1304949504255912 
1.7999999999998182, -1.130051538268087 
1.809999999999817, -1.129202341832686 
1.819999999999816, -1.127752060352633 
1.8299999999998149, -1.1253398816583533 
1.8399999999998138, -1.12137056252408 
1.8499999999998127, -1.1150063368649112 
1.8599999999998116, -1.1054154123976778 
1.8699999999998105, -1.0925388601604993 
1.8799999999998094, -1.0781663722901142 
1.8899999999998083, -1.0659541260346557 
1.8999999999998072, -1.059201903255493 
1.909999999999806, -1.0583186074125914 
1.919999999999805, -1.0610583368149509 
1.9299999999998039, -1.0647984296165123 
1.9399999999998028, -1.0680197735254198 
1.9499999999998017, -1.0702839309451497 
1.9599999999998006, -1.071679803400564 
1.9699999999997995, -1.0724249021490795 
1.9799999999997984, -1.0727018689518946 
1.9899999999997973, -1.0726192166656996 
1.9999999999997962, -1.0722110799026896 
2.0099999999998173, -1.0714389687944825 
2.0199999999998384, -1.0701852498715998 
2.0299999999998595, -1.0682443004607913 
2.0399999999998806, -1.0653420464870595 
2.0499999999999017, -1.061263030333317 
2.059999999999923, -1.056208671121629 
2.069999999999944, -1.0513798401049528 
2.079999999999965, -1.0492218059769811 
2.089999999999986, -1.052291637083656 
2.100000000000007, -1.0609889489028208 
2.1100000000000283, -1.072742056553376 
2.1200000000000494, -1.084028022154057 
2.1300000000000705, -1.0927337407205258 
2.1400000000000916, -1.0985489719353958 
2.1500000000001127, -1.1020824426664295 
2.160000000000134, -1.1040775728415313 
2.170000000000155, -1.1051009940328507 
2.180000000000176, -1.105509663282464 
2.190000000000197, -1.1055013019696858 
2.2000000000002182, -1.105166110625086 
2.2100000000002393, -1.104523203211325 
2.2200000000002604, -1.1035517732353495 
2.2300000000002815, -1.1022444452427647 
2.2400000000003026, -1.1007316811485692 
2.2500000000003237, -1.0995261597295358 
2.260000000000345, -1.0998141407807878 
2.270000000000366, -1.1033982095209018 
2.280000000000387, -1.1117694533727558 
2.290000000000408, -1.1246780566411032 
2.3000000000004293, -1.1397648460189607 
2.3100000000004504, -1.1539605198736456 
2.3200000000004715, -1.1652156758275902 
2.3300000000004926, -1.173039739628437 
2.3400000000005137, -1.1779656932166926 
2.3500000000005348, -1.1808303762783674 
2.360000000000556, -1.18236097488596 
2.370000000000577, -1.1830609347384495 
2.380000000000598, -1.1832386945381073 
2.390000000000619, -1.1830712056407977 
2.4000000000006403, -1.1826639546977502 
2.4100000000006614, -1.1821075940597294 
2.4200000000006825, -1.1815416139079409 
2.4300000000007036, -1.1812177197399771 
2.4400000000007247, -1.1815072915496747 
2.450000000000746, -1.1827752529154263 
2.460000000000767, -1.1851585019830462 
2.470000000000788, -1.1884527321277742 
2.480000000000809, -1.1922257585840064 
2.49000000000083, -1.1960237001769898 
2.5000000000008513, -1.1994998425021506 
2.5100000000008724, -1.202441022092046 
2.5200000000008935, -1.2047473684893883 
2.5300000000009146, -1.2064063179259998 
2.5400000000009357, -1.2074691147021992 
2.550000000000957, -1.2080258338001444 
2.560000000000978, -1.2081800134013196 
2.570000000000999, -1.2080303451610486 
2.58000000000102, -1.2076654952464154 
2.5900000000010412, -1.2071716576923717 
2.6000000000010624, -1.2066452630277793 
2.6100000000010835, -1.2061967744944062 
2.6200000000011046, -1.2059324144207095 
2.6300000000011257, -1.2059191885957383 
2.6400000000011468, -1.2061607142140054 
2.650000000001168, -1.2066030493154742 
2.660000000001189, -1.2071599138477482 
2.67000000000121, -1.2077377301359429 
2.680000000001231, -1.2082524844243048 
2.6900000000012523, -1.208637985457186 
2.7000000000012734, -1.2088470374840623 
2.7100000000012945, -1.208848793164303 
2.7200000000013156, -1.2086255698228314 
2.7300000000013367, -1.2081706294823054 
2.740000000001358, -1.2074872409745039 
2.750000000001379, -1.2065892965542453 
2.7600000000014, -1.2055037989418036 
2.770000000001421, -1.204275009044819 
2.780000000001442, -1.2029687876606396 
2.7900000000014633, -1.2016740279573315 
2.8000000000014844, -1.2004969302671402 
2.8100000000015055, -1.1995432175517018 
2.8200000000015266, -1.198885795588534 
2.8300000000015477, -1.1985294276226581 
2.840000000001569, -1.1984012340582235 
2.85000000000159, -1.198381160784307 
2.860000000001611, -1.1983459014915323 
2.870000000001632, -1.1981909072385875 
2.8800000000016532, -1.197824442751125 
2.8900000000016743, -1.197149635686038 
2.9000000000016954, -1.1960507423910207 
2.9100000000017165, -1.1943936490053266 
2.9200000000017377, -1.1920452246775546 
2.9300000000017588, -1.1889088001643893 
2.94000000000178, -1.1849656993943787 
2.950000000001801, -1.1803137206386718 
2.960000000001822, -1.175200714852557 
2.970000000001843, -1.1700447476978353 
2.9800000000018643, -1.165399215801871 
2.9900000000018854, -1.161801711627878 
3.0000000000019065, -1.1595308062336238 
3.0100000000019276, -1.1584604949651185 
3.0200000000019487, -1.158176960453114 
3.03000000000197, -1.1582390671150702 
3.040000000001991, -1.158341722380805 
3.050000000002012, -1.1583207404311242 
3.060000000002033, -1.1580854571649508 
3.070000000002054, -1.1575500510043748 
3.0800000000020753, -1.156577533740121 
3.0900000000020964, -1.1549249802437225 
3.1000000000021175, -1.152182034934587 
3.1100000000021386, -1.1477210992635323 
3.1200000000021597, -1.140733940136631 
3.130000000002181, -1.1304961620910998 
3.140000000002202, -1.116956592201814 
3.150000000002223, -1.1014052569851376 
3.160000000002244, -1.086481119414725 
3.1700000000022652, -1.0749784885535003 
3.1800000000022863, -1.0682197015668784 
3.1900000000023074, -1.0655617861410351 
3.2000000000023285, -1.065350498232696 
3.2100000000023496, -1.0660995727196079 
3.2200000000023707, -1.0669579885454161 
3.230000000002392, -1.0675901926917548 
3.240000000002413, -1.0679198907739518 
3.250000000002434, -1.0679535402153788 
3.260000000002455, -1.0676937372045274 
3.2700000000024763, -1.0670979520955595 
3.2800000000024974, -1.066046817904867 
3.2900000000025185, -1.0643012540650987 
3.3000000000025396, -1.0614403920086748 
3.3100000000025607, -1.056797128413818 
3.3200000000025818, -1.0494720883245012 
3.330000000002603, -1.0386135735168551 
3.340000000002624, -1.0241517463887735 
3.350000000002645, -1.007698749473656 
3.360000000002666, -0.9924922658446332 
3.3700000000026873, -0.9816541063184369 
3.3800000000027084, -0.9762188038842556 
3.3900000000027295, -0.9749955382724647 
3.4000000000027506, -0.9759841457301228 
3.4100000000027717, -0.9776208538112318 
3.420000000002793, -0.9791047068404041 
3.430000000002814, -0.9801753550130472 
3.440000000002835, -0.9808234070415717 
3.450000000002856, -0.9811109921412934 
3.460000000002877, -0.9810914063938487 
3.4700000000028983, -0.9807782573165452 
3.4800000000029194, -0.9801288876474901 
3.4900000000029405, -0.9790229574127045 
3.5000000000029616, -0.9772257763494314 
3.5100000000029827, -0.9743334282093101 
3.520000000003004, -0.9697163300413477 
3.530000000003025, -0.9625287594664103 
3.540000000003046, -0.9519310545741352 
3.550000000003067, -0.9376631971340595 
3.5600000000030882, -0.9207674571332547 
3.5700000000031094, -0.9036978238744178 
3.5800000000031305, -0.889262286518993 
3.5900000000031516, -0.8791524490005903 
3.6000000000031727, -0.8733832329672946 
3.6100000000031938, -0.8708558558786589 
3.620000000003215, -0.8702353226648635 
3.630000000003236, -0.8704868787193124 
3.640000000003257, -0.870993523002675 
3.650000000003278, -0.8714570523803422 
3.6600000000032993, -0.8717610646024749 
3.6700000000033204, -0.8718695764910322 
3.6800000000033415, -0.8717677465046327 
3.6900000000033626, -0.8714296071296228 
3.7000000000033837, -0.8707980634918883 
3.710000000003405, -0.8697687384053087 
3.720000000003426, -0.8681771536317868 
3.730000000003447, -0.8657992494406997 
3.740000000003468, -0.8623866249366344 
3.750000000003489, -0.8577557297122202 
3.7600000000035103, -0.8519118882406873 
3.7700000000035314, -0.8451292124367171 
3.7800000000035525, -0.8379075893006004 
3.7900000000035736, -0.8308244679246733 
3.8000000000035947, -0.8243814487740815 
3.810000000003616, -0.8189188069955277 
3.820000000003637, -0.8145982459566049 
3.830000000003658, -0.8114228750352938 
3.840000000003679, -0.8092733598067582 
3.8500000000037002, -0.8079530721353445 
3.8600000000037213, -0.8072365483490493 
3.8700000000037424, -0.806911289853303 
3.8800000000037635, -0.8068034818913054 
3.8900000000037847, -0.806785185319247 
3.9000000000038058, -0.8067679252883797 
3.910000000003827, -0.806690433707155 
3.920000000003848, -0.8065069945415365 
3.930000000003869, -0.8061803072081549 
3.94000000000389, -0.8056806627491024 
3.9500000000039113, -0.8049909841846523 
3.9600000000039324, -0.804114033067884 
3.9700000000039535, -0.80307543249279 
3.9800000000039746, -0.8019180155983996 
3.9900000000039957, -0.8006897732383955 
4.000000000004016, -0.7994329233304492 
4.010000000003993, -0.798179881083864 
4.02000000000397, -0.7969560316358402 
4.030000000003946, -0.7957853608753065 
4.040000000003923, -0.7946951021462774 
4.0500000000039, -0.7937174869141235 
4.0600000000038765, -0.7928882780693127 
4.070000000003853, -0.7922426080713554 
4.08000000000383, -0.7918092667823309 
4.090000000003807, -0.7916051751902539 
4.100000000003783, -0.7916319480599479 
4.11000000000376, -0.7918758147522086 
4.120000000003737, -0.7923108986047442 
4.130000000003713, -0.7929045863652158 
4.14000000000369, -0.7936230628057694 
4.150000000003667, -0.7944351889593891 
4.1600000000036434, -0.7953134500633774 
4.17000000000362, -0.796231428538759 
4.180000000003597, -0.7971584334428017 
4.1900000000035735, -0.7980539104266408 
4.20000000000355, -0.7988662002259858 
4.210000000003527, -0.799539469309855 
4.220000000003504, -0.800027388208368 
4.23000000000348, -0.8003058172746135 
4.240000000003457, -0.8003765902335624 
4.250000000003434, -0.8002617350622584 
4.26000000000341, -0.7999943967532186 
4.270000000003387, -0.799613301219072 
4.280000000003364, -0.7991640757769585 
4.2900000000033405, -0.798707633099124 
4.300000000003317, -0.7983341535734483 
4.310000000003294, -0.7981794056945934 
4.320000000003271, -0.798437125155854 
4.330000000003247, -0.7993581643174614 
4.340000000003224, -0.8012275077069914 
4.350000000003201, -0.8043163302773705 
4.360000000003177, -0.808815162865949 
4.370000000003154, -0.8147597070057155 
4.380000000003131, -0.8219628337166427 
4.390000000003107, -0.8299751744722398 
4.400000000003084, -0.8381168871553232 
4.410000000003061, -0.8456238638463296 
4.4200000000030375, -0.8518813417410614 
4.430000000003014, -0.8566104539137462 
4.440000000002991, -0.8598792697214351 
4.450000000002968, -0.8619617746273918 
4.460000000002944, -0.8631753382070612 
4.470000000002921, -0.8637846850446206 
4.480000000002898, -0.8639742758205798 
4.490000000002874, -0.8638559525826952 
4.500000000002851, -0.8634859747456357 
4.510000000002828, -0.8628811860180339 
4.520000000002804, -0.8620348746088456 
4.530000000002781, -0.8609402176337794 
4.540000000002758, -0.859636435111617 
4.5500000000027345, -0.8582985893229823 
4.560000000002711, -0.857382971762506 
4.570000000002688, -0.8577850870836372 
4.580000000002665, -0.8608426422256896 
4.590000000002641, -0.8679082879190849 
4.600000000002618, -0.8794216579256874 
4.610000000002595, -0.8941043329005224 
4.620000000002571, -0.9093064952584271 
4.630000000002548, -0.9224861711664433 
4.640000000002525, -0.9324065243554871 
4.6500000000025015, -0.9391393543617994 
4.660000000002478, -0.9433920253197776 
4.670000000002455, -0.9459381518745751 
4.6800000000024315, -0.9473777672386262 
4.690000000002408, -0.9481079081931378 
4.700000000002385, -0.9483655120074438 
4.710000000002362, -0.9482747480043153 
4.720000000002338, -0.9478784890997455 
4.730000000002315, -0.9471520628383479 
4.740000000002292, -0.9460021436504167 
4.750000000002268, -0.9442558491933578 
4.760000000002245, -0.9416521992370266 
4.770000000002222, -0.9378665381180742 
4.7800000000021985, -0.932626971996732 
4.790000000002175, -0.9259833207790205 
4.800000000002152, -0.9186667151200606 
4.810000000002129, -0.9121980716437319 
4.820000000002105, -0.9083147421565201 
4.830000000002082, -0.9079009607532376 
4.840000000002059, -0.9104053406954451 
4.850000000002035, -0.9143568032857103 
4.860000000002012, -0.9183587076630868 
4.870000000001989, -0.9216388449790267 
4.880000000001965, -0.9240008478419265 
4.890000000001942, -0.9255491574398185 
4.900000000001919, -0.9264708352452864 
4.9100000000018955, -0.9269308083297112 
4.920000000001872, -0.9270394619825097 
4.930000000001849, -0.9268486656152828 
4.940000000001826, -0.9263513726250997 
