t, s[1].omega / s[0].omega 
0, -1.280012120252158 
0.009999999999999995, -1.2809970160492958 
0.019999999999999934, -1.2815554548790289 
0.029999999999999874, -1.2817361957142555 
0.04000000000000012, -1.2815993582592378 
0.050000000000000405, -1.2812099196411475 
0.06000000000000069, -1.280637022988695 
0.07000000000000098, -1.2799587645328594 
0.08000000000000126, -1.2792652935481434 
0.09000000000000155, -1.278650466563655 
0.10000000000000184, -1.2781918108481363 
0.11000000000000212, -1.2779312727705374 
0.12000000000000241, -1.2778655875724125 
0.130000000000002, -1.2779455746907198 
0.1400000000000009, -1.2780870925167498 
0.1499999999999998, -1.2781933977349627 
0.1599999999999987, -1.27817454717984 
0.1699999999999976, -1.2779520545200365 
0.1799999999999965, -1.2774533098125391 
0.1899999999999954, -1.2766070624169263 
0.1999999999999943, -1.2753462480960842 
0.2099999999999932, -1.2736173099513541 
0.2199999999999921, -1.271392232938087 
0.229999999999991, -1.268682506069007 
0.2399999999999899, -1.2655596932240514 
0.2499999999999888, -1.2621870752052948 
0.2599999999999877, -1.2588506542770905 
0.2699999999999866, -1.2559416078036476 
0.2799999999999855, -1.2538262759907421 
0.2899999999999844, -1.2526399716134031 
0.2999999999999833, -1.2522020875611457 
0.3099999999999822, -1.2521636001578893 
0.3199999999999811, -1.2522144128143493 
0.32999999999998, -1.2521618747833023 
0.3399999999999789, -1.251891880683771 
0.3499999999999778, -1.2512971743343178 
0.35999999999997667, -1.2502083698759319 
0.36999999999997557, -1.248320882487212 
0.37999999999997447, -1.2451082368845778 
0.38999999999997337, -1.2397497736898535 
0.39999999999997227, -1.2311987604930983 
0.40999999999997117, -1.218653813129551 
0.41999999999997006, -1.2026090178545419 
0.42999999999996896, -1.1858284129056043 
0.43999999999996786, -1.172520265208401 
0.44999999999996676, -1.1653853189410568 
0.45999999999996566, -1.1637463926457545 
0.46999999999996456, -1.1649899214174748 
0.47999999999996346, -1.1669099880812293 
0.48999999999996235, -1.1684863340840543 
0.49999999999996125, -1.1694894505946656 
0.5099999999999602, -1.1699844055369124 
0.519999999999959, -1.1700763636545155 
0.529999999999958, -1.1698245892536403 
0.5399999999999568, -1.169219942455093 
0.5499999999999557, -1.1681753553019896 
0.5599999999999546, -1.1665210434046909 
0.5699999999999535, -1.1640376224245153 
0.5799999999999524, -1.160629691394821 
0.5899999999999513, -1.1568054124368146 
0.5999999999999502, -1.1544051507452862 
0.6099999999999491, -1.1566203482177622 
0.619999999999948, -1.165870211852545 
0.6299999999999469, -1.1808612215909762 
0.6399999999999458, -1.1970505810697276 
0.6499999999999447, -1.2103953900499609 
0.6599999999999436, -1.21954800780243 
0.6699999999999425, -1.2251136024740883 
0.6799999999999414, -1.228231011038503 
0.6899999999999403, -1.2298439071499312 
0.6999999999999392, -1.2305610980918922 
0.7099999999999381, -1.2307303442259176 
0.719999999999937, -1.2305364586228889 
0.7299999999999359, -1.2300789043785618 
0.7399999999999348, -1.2294403048718952 
0.7499999999999337, -1.2287698773134372 
0.7599999999999326, -1.2283811831403315 
0.7699999999999315, -1.228780951070517 
0.7799999999999304, -1.2304824290465581 
0.7899999999999293, -1.2336449644480763 
0.7999999999999282, -1.2379041819915524 
0.8099999999999271, -1.2425955041589123 
0.819999999999926, -1.2470969699897885 
0.8299999999999249, -1.251000984272614 
0.8399999999999238, -1.254115025788959 
0.8499999999999227, -1.2564034163571223 
0.8599999999999216, -1.2579308593315226 
0.8699999999999205, -1.2588164774597748 
0.8799999999999194, -1.2591960542326945 
0.8899999999999183, -1.259195918466316 
0.8999999999999172, -1.2589232269484645 
0.9099999999999161, -1.2584723195718306 
0.919999999999915, -1.257940266970455 
0.9299999999999139, -1.2574377035399977 
0.9399999999999128, -1.2570780438404427 
0.9499999999999117, -1.2569434018021441 
0.9599999999999106, -1.257053990452746 
0.9699999999999095, -1.257367952495047 
0.9799999999999084, -1.257804829302257 
0.9899999999999073, -1.2582708574985024 
0.9999999999999062, -1.2586772892027376 
1.0099999999999052, -1.2589509156052154 
1.019999999999904, -1.2590366187802169 
1.029999999999903, -1.2588949222998207 
1.039999999999902, -1.2584990554540432 
1.0499999999999008, -1.2578335993717824 
1.0599999999998997, -1.2568944842506347 
1.0699999999998986, -1.2556902824516356 
1.0799999999998975, -1.2542458469878968 
1.0899999999998964, -1.2526093202680246 
1.0999999999998953, -1.25086184395358 
1.1099999999998942, -1.2491258860491974 
1.119999999999893, -1.2475615795170092 
1.129999999999892, -1.2463330521021552 
1.1399999999998909, -1.2455392182494769 
1.1499999999998898, -1.245152466345276 
1.1599999999998887, -1.245030977184075 
1.1699999999998876, -1.2449964429327742 
1.1799999999998865, -1.2448981882732526 
1.1899999999998854, -1.2446205565353883 
1.1999999999998843, -1.2440520063959508 
1.2099999999998832, -1.2430443870672632 
1.219999999999882, -1.2413765358003117 
1.229999999999881, -1.2387334550578197 
1.2399999999998799, -1.2347238435590298 
1.2499999999998788, -1.228969682186198 
1.2599999999998777, -1.2212913571971984 
1.2699999999998766, -1.2119661281992922 
1.2799999999998755, -1.2019454205945281 
1.2899999999998744, -1.1927807129308023 
1.2999999999998733, -1.1860114092020493 
1.3099999999998722, -1.182275017665963 
1.319999999999871, -1.1810113644709936 
1.32999999999987, -1.1810927855556819 
1.3399999999998689, -1.181592105647077 
1.3499999999998678, -1.1820282726671771 
1.3599999999998666, -1.182231079392414 
1.3699999999998655, -1.1821564775179296 
1.3799999999998644, -1.181771917225864 
1.3899999999998633, -1.1809936561006293 
1.3999999999998622, -1.1796363720681196 
1.4099999999998611, -1.1773504748559116 
1.41999999999986, -1.17355183574174 
1.429999999999859, -1.1674222326441226 
1.4399999999998578, -1.1582119611893913 
1.4499999999998567, -1.1461561458793696 
1.4599999999998556, -1.1336757567765912 
1.4699999999998545, -1.1250131087295376 
1.4799999999998534, -1.1230887551702422 
1.4899999999998523, -1.126877273827353 
1.4999999999998512, -1.1329079079348208 
1.5099999999998501, -1.1383933142081637 
1.519999999999849, -1.14231314903054 
1.529999999999848, -1.1447519630605685 
1.5399999999998468, -1.1461135690662647 
1.5499999999998457, -1.146758035226785 
1.5599999999998446, -1.146919050576349 
1.5699999999998435, -1.146717440054797 
1.5799999999998424, -1.1461885541450303 
1.5899999999998413, -1.145305354637411 
1.5999999999998402, -1.1440112550277872 
1.6099999999998391, -1.1423074549574257 
1.619999999999838, -1.1404725624650758 
1.629999999999837, -1.1394463451035026 
1.6399999999998358, -1.1410875423619367 
1.6499999999998347, -1.1475344799850395 
1.6599999999998336, -1.159427496797836 
1.6699999999998325, -1.1747143386378394 
1.6799999999998314, -1.1898552987030608 
1.6899999999998303, -1.2021538542132362 
1.6999999999998292, -1.2107729340591697 
1.709999999999828, -1.2161982379088905 
1.719999999999827, -1.219343436001368 
1.729999999999826, -1.221021919282703 
1.7399999999998248, -1.2217974212620866 
1.7499999999998237, -1.2220136828292216 
1.7599999999998226, -1.2218670172202637 
1.7699999999998215, -1.221474220631884 
1.7799999999998204, -1.2209346681390325 
1.7899999999998193, -1.22039610422789 
1.7999999999998182, -1.2201113776775032 
1.809999999999817, -1.220424204724551 
1.819999999999816, -1.221622717965103 
1.8299999999998149, -1.2237442114615782 
1.8399999999998138, -1.2265342528336816 
1.8499999999998127, -1.2295995844893046 
1.8599999999998116, -1.2325835989095728 
1.8699999999998105, -1.2352424628034917 
1.8799999999998094, -1.237440487656853 
1.8899999999998083, -1.2391217501399983 
1.8999999999998072, -1.2402866090554725 
1.909999999999806, -1.2409754089016376 
1.919999999999805, -1.2412538386394139 
1.9299999999998039, -1.2411984897280897 
1.9399999999998028, -1.2408867911580423 
1.9499999999998017, -1.2403957371507748 
1.9599999999998006, -1.2398084284699433 
1.9699999999997995, -1.2392198166140864 
1.9799999999997984, -1.238729267309356 
1.9899999999997973, -1.2384168665779602 
1.9999999999997962, -1.2383190171143208 
2.0099999999998173, -1.2384212573048292 
2.0199999999998384, -1.2386677254085066 
2.0299999999998595, -1.238977532703554 
2.0399999999998806, -1.2392630481955123 
2.0499999999999017, -1.239444999912036 
2.059999999999923, -1.2394589793551165 
2.069999999999944, -1.2392546238217261 
2.079999999999965, -1.238793358569079 
2.089999999999986, -1.238048246753682 
2.100000000000007, -1.2370054820174439 
2.1100000000000283, -1.2356662092198283 
2.1200000000000494, -1.2340492968102366 
2.1300000000000705, -1.232197196952491 
2.1400000000000916, -1.2301860346178923 
2.1500000000001127, -1.2281373182199267 
2.160000000000134, -1.2262212986307317 
2.170000000000155, -1.224632004705677 
2.180000000000176, -1.2235187220696764 
2.190000000000197, -1.2229044714214994 
2.2000000000002182, -1.2226682999127394 
2.2100000000002393, -1.2226170093608597 
2.2200000000002604, -1.2225724720963016 
2.2300000000002815, -1.2224033228392386 
2.2400000000003026, -1.2220036377894896 
2.2500000000003237, -1.2212519045330257 
2.260000000000345, -1.2199699404562954 
2.270000000000366, -1.217890059437837 
2.280000000000387, -1.2146455209518834 
2.290000000000408, -1.2098155367704542 
2.3000000000004293, -1.2030613091870868 
2.3100000000004504, -1.1943599566504413 
2.3200000000004715, -1.1842691742041174 
2.3300000000004926, -1.1740437644462622 
2.3400000000005137, -1.1653398121832343 
2.3500000000005348, -1.1594362315265134 
2.360000000000556, -1.1565104862745343 
2.370000000000577, -1.1557211967487604 
2.380000000000598, -1.1559627506794228 
2.390000000000619, -1.1564557618997606 
2.4000000000006403, -1.1568316793036817 
2.4100000000006614, -1.1569681030758843 
2.4200000000006825, -1.156829888272997 
2.4300000000007036, -1.1563766032612606 
2.4400000000007247, -1.1555083038510428 
2.450000000000746, -1.1540149607998509 
2.460000000000767, -1.151509343967213 
2.470000000000788, -1.147350735222766 
2.480000000000809, -1.1406387512888605 
2.49000000000083, -1.130500766903403 
2.5000000000008513, -1.1169621738170983 
2.5100000000008724, -1.1021107230927476 
2.5200000000008935, -1.08994832022008 
2.5300000000009146, -1.0837689332329243 
2.5400000000009357, -1.0835693097321644 
2.550000000000957, -1.0867274747716786 
2.560000000000978, -1.0905648492655642 
2.570000000000999, -1.0936972968849876 
2.58000000000102, -1.0958166076017832 
2.5900000000010412, -1.0970757032807292 
2.6000000000010624, -1.0977084870772518 
2.6100000000010835, -1.0978929073624173 
2.6200000000011046, -1.0977258702675532 
2.6300000000011257, -1.0972278526038566 
2.6400000000011468, -1.0963463805144678 
2.650000000001168, -1.09495472089675 
2.660000000001189, -1.0928639381508665 
2.67000000000121, -1.0899042855755565 
2.680000000001231, -1.0861859455261875 
2.6900000000012523, -1.0826183417864956 
2.7000000000012734, -1.0813766540577125 
2.7100000000012945, -1.0852967276961925 
2.7200000000013156, -1.095629680238687 
2.7300000000013367, -1.1102291865778224 
2.740000000001358, -1.1249322386418266 
2.750000000001379, -1.1366480956739355 
2.7600000000014, -1.14459524731098 
2.770000000001421, -1.1494419909450682 
2.780000000001442, -1.1521846690825508 
2.7900000000014633, -1.1536204854472007 
2.8000000000014844, -1.1542613149336134 
2.8100000000015055, -1.1543990562864759 
2.8200000000015266, -1.1541839201640343 
2.8300000000015477, -1.1536834952332524 
2.840000000001569, -1.1529329081585622 
2.85000000000159, -1.1520039003491547 
2.860000000001611, -1.1511259232906705 
2.870000000001632, -1.1508515667128105 
2.8800000000016532, -1.152115708331625 
2.8900000000016743, -1.1559073163738902 
2.9000000000016954, -1.1625669045382754 
2.9100000000017165, -1.1713538584072984 
2.9200000000017377, -1.1808063391033374 
2.9300000000017588, -1.1895058188224503 
2.94000000000178, -1.1965794539168129 
2.950000000001801, -1.2017674928481366 
2.960000000001822, -1.2052406602559194 
2.970000000001843, -1.2073651317983987 
2.9800000000018643, -1.2085241022235511 
2.9900000000018854, -1.2090278335051665 
3.0000000000019065, -1.2090945052699003 
3.0100000000019276, -1.2088694277507017 
3.0200000000019487, -1.2084599237056606 
3.03000000000197, -1.2079758266098364 
3.040000000001991, -1.2075650794375625 
3.050000000002012, -1.2074185443030765 
3.060000000002033, -1.2077155682682974 
3.070000000002054, -1.2085327471019347 
3.0800000000020753, -1.2097990627351234 
3.0900000000020964, -1.2113411441007835 
3.1000000000021175, -1.212965978281591 
3.1100000000021386, -1.2145153018359034 
3.1200000000021597, -1.2158797025186945 
3.130000000002181, -1.216991578388337 
3.140000000002202, -1.2178138145972137 
3.150000000002223, -1.2183315286709597 
3.160000000002244, -1.2185479107819914 
3.1700000000022652, -1.2184820472632683 
3.1800000000022863, -1.2181665920384632 
3.1900000000023074, -1.2176455678811424 
3.2000000000023285, -1.2169743206486465 
3.2100000000023496, -1.2162216695909123 
3.2200000000023707, -1.2154696095685824 
3.230000000002392, -1.214804399051153 
3.240000000002413, -1.214299259894418 
3.250000000002434, -1.2139966337206585 
3.260000000002455, -1.213896615499897 
3.2700000000024763, -1.2139544908889914 
3.2800000000024974, -1.2140913544085374 
3.2900000000025185, -1.2142155544681157 
3.3000000000025396, -1.2142416251005643 
3.3100000000025607, -1.2140966574046799 
3.3200000000025818, -1.2137174596099705 
3.330000000002603, -1.2130477389906833 
3.340000000002624, -1.2120405096921858 
3.350000000002645, -1.2106645764072077 
3.360000000002666, -1.2089111349149169 
3.3700000000026873, -1.2067988626551946 
3.3800000000027084, -1.2043801863137058 
3.3900000000027295, -1.201752452236666 
3.4000000000027506, -1.1990725307368444 
3.4100000000027717, -1.1965613479457002 
3.420000000002793, -1.194470811708441 
3.430000000002814, -1.192994694176203 
3.440000000002835, -1.192165910199637 
3.450000000002856, -1.1918370826475253 
3.460000000002877, -1.1917727903748987 
3.4700000000028983, -1.1917602452414648 
3.4800000000029194, -1.1916515099981986 
3.4900000000029405, -1.1913415478395477 
3.5000000000029616, -1.1907232779254915 
3.5100000000029827, -1.1896423469263726 
3.520000000003004, -1.1878566768073573 
3.530000000003025, -1.185009200534701 
3.540000000003046, -1.1806418826143283 
3.550000000003067, -1.1742987984227544 
3.5600000000030882, -1.1657530143648223 
3.5700000000031094, -1.1553151461066942 
3.5800000000031305, -1.1440529623697133 
3.5900000000031516, -1.1336505587189725 
3.6000000000031727, -1.1257451995254253 
3.6100000000031938, -1.1210698115045452 
3.620000000003215, -1.119162553918803 
3.630000000003236, -1.1189167992855757 
3.640000000003257, -1.1193268417161737 
3.650000000003278, -1.1198054052480528 
3.6600000000032993, -1.1201092981291434 
3.6700000000033204, -1.1201655771798174 
3.6800000000033415, -1.1199467082021881 
3.6900000000033626, -1.119401660274193 
3.7000000000033837, -1.118410135416376 
3.710000000003405, -1.116732048933669 
3.720000000003426, -1.1139380896341593 
3.730000000003447, -1.1093347367456037 
3.740000000003468, -1.1019683037835122 
3.750000000003489, -1.0909191258636286 
3.7600000000035103, -1.076117818319062 
3.7700000000035314, -1.0593771457293493 
3.7800000000035525, -1.0443115172070636 
3.7900000000035736, -1.0342559688924409 
3.8000000000035947, -1.0300101947624112 
3.810000000003616, -1.0299120202589682 
3.820000000003637, -1.0316613103412333 
3.830000000003658, -1.033678336153054 
3.840000000003679, -1.0352861598303198 
3.8500000000037002, -1.0363481277992956 
3.8600000000037213, -1.0369308168272715 
3.8700000000037424, -1.037130269146833 
3.8800000000037635, -1.037007446606249 
3.8900000000037847, -1.0365674850301 
3.9000000000038058, -1.0357459804972577 
3.910000000003827, -1.0343853693724756 
3.920000000003848, -1.0321951164394314 
3.930000000003869, -1.0287037985657466 
3.94000000000389, -1.0232488205866848 
3.9500000000039113, -1.015124899183322 
3.9600000000039324, -1.0040650344955906 
3.9700000000039535, -0.9910082809695859 
3.9800000000039746, -0.9784379132635055 
3.9900000000039957, -0.9693169637752783 
4.000000000004016, -0.9651357143367152 
4.010000000003993, -0.9651255557602989 
4.02000000000397, -0.9673288764688971 
4.030000000003946, -0.9700344211306426 
4.040000000003923, -0.9723424336926605 
4.0500000000039, -0.973994257582698 
4.0600000000038765, -0.9750359919224832 
4.070000000003853, -0.9755946238886993 
4.08000000000383, -0.9757799052206918 
4.090000000003807, -0.975653412515174 
4.100000000003783, -0.9752197581990043 
4.11000000000376, -0.9744167757222953 
4.120000000003737, -0.973093296932953 
4.130000000003713, -0.9709684761144091 
4.14000000000369, -0.9675748754251309 
4.150000000003667, -0.9622140151912403 
4.1600000000036434, -0.954015905268033 
4.17000000000362, -0.9422703130050986 
4.180000000003597, -0.9271173382221436 
4.1900000000035735, -0.910201291240669 
4.20000000000355, -0.8943814382671192 
4.210000000003527, -0.8822615435068368 
4.220000000003504, -0.8748173832511379 
4.23000000000348, -0.8713538415651648 
4.240000000003457, -0.8704373089181215 
4.250000000003434, -0.870760567611824 
4.26000000000341, -0.8714808450486041 
4.270000000003387, -0.8721762230893727 
4.280000000003364, -0.8726841401501583 
4.2900000000033405, -0.8729641899950649 
4.300000000003317, -0.8730154992425916 
4.310000000003294, -0.872834012128159 
4.320000000003271, -0.8723895715096355 
4.330000000003247, -0.8716090281385906 
4.340000000003224, -0.8703590499459362 
4.350000000003201, -0.8684307858430771 
4.360000000003177, -0.8655413154450473 
4.370000000003154, -0.8613816576661921 
4.380000000003131, -0.8557372534852437 
4.390000000003107, -0.8486518949694053 
4.400000000003084, -0.8405233404072302 
4.410000000003061, -0.8320263404038322 
4.4200000000030375, -0.8238995489966128 
4.430000000003014, -0.8167402709626564 
4.440000000002991, -0.8109027374010713 
4.450000000002968, -0.8064941306324899 
4.460000000002944, -0.8034233119572202 
4.470000000002921, -0.8014696921092446 
4.480000000002898, -0.8003550852241919 
4.490000000002874, -0.799805212583338 
4.500000000002851, -0.7995897258116491 
4.510000000002828, -0.799537166772623 
4.520000000002804, -0.7995302944739505 
4.530000000002781, -0.7994915169089327 
4.540000000002758, -0.7993669557421346 
4.5500000000027345, -0.799114299038999 
4.560000000002711, -0.7986969630990572 
4.570000000002688, -0.798085486724787 
4.580000000002665, -0.7972649486864756 
4.590000000002641, -0.796243591565622 
4.600000000002618, -0.7950553006663922 
4.610000000002595, -0.7937517565747785 
4.620000000002571, -0.7923882130138613 
4.630000000002548, -0.7910117885673744 
4.640000000002525, -0.7896579181677444 
4.6500000000025015, -0.7883539034545002 
4.660000000002478, -0.7871249485410693 
4.670000000002455, -0.7859987329502987 
4.6800000000024315, -0.785006778765407 
4.690000000002408, -0.784182531465827 
4.700000000002385, -0.7835569594238116 
4.710000000002362, -0.7831530765470649 
4.720000000002338, -0.7829812066375059 
4.730000000002315, -0.7830366985774527 
4.740000000002292, -0.7833009657933979 
4.750000000002268, -0.7837454591027812 
4.760000000002245, -0.7843371157410556 
4.770000000002222, -0.7850434358461371 
4.7800000000021985, -0.7858355986537366 
4.790000000002175, -0.7866885684425325 
4.800000000002152, -0.7875778084150997 
4.810000000002129, -0.788473439565988 
4.820000000002105, -0.789334766946933 
4.830000000002082, -0.7901098795260315 
4.840000000002059, -0.7907437061750758 
4.850000000002035, -0.7911921553001551 
4.860000000002012, -0.7914340679879694 
4.870000000001989, -0.791473705950919 
4.880000000001965, -0.7913342309321854 
4.890000000001942, -0.7910488511772533 
4.900000000001919, -0.7906560830222775 
4.9100000000018955, -0.7902019573804396 
4.920000000001872, -0.7897492039975549 
4.930000000001849, -0.7893920079828418 
