t, s[1].omega / s[0].omega 
0, -0.6600077143192283 
0.009999999999999995, -0.6607749127920901 
0.019999999999999934, -0.6614921727883936 
0.029999999999999874, -0.6620954415188589 
0.04000000000000012, -0.6625332565535641 
0.050000000000000405, -0.6627799193163038 
0.06000000000000069, -0.66283624675171 
0.07000000000000098, -0.6627206424685756 
0.08000000000000126, -0.662458471016556 
0.09000000000000155, -0.6620757231217411 
0.10000000000000184, -0.6615989970594174 
0.11000000000000212, -0.6610621101480103 
0.12000000000000241, -0.6605203916379154 
0.130000000000002, -0.6600754406075396 
0.1400000000000009, -0.6599142585987348 
0.1499999999999998, -0.6603647354840713 
0.1599999999999987, -0.6619593471165464 
0.1699999999999976, -0.6654715404593221 
0.1799999999999965, -0.6718376979478323 
0.1899999999999954, -0.6818305749224993 
0.1999999999999943, -0.695441285624363 
0.2099999999999932, -0.7113316099087702 
0.2199999999999921, -0.7271108218929323 
0.229999999999991, -0.7405660873128619 
0.2399999999999899, -0.7507043011994264 
0.2499999999999888, -0.7577105863433863 
0.2599999999999877, -0.7622983388634499 
0.2699999999999866, -0.7652016788655047 
0.2799999999999855, -0.7669849670078134 
0.2899999999999844, -0.7680304324767582 
0.2999999999999833, -0.7685790843267118 
0.3099999999999822, -0.7687723619458514 
0.3199999999999811, -0.7686808452764289 
0.32999999999998, -0.7683191297548021 
0.3399999999999789, -0.7676483068573208 
0.3499999999999778, -0.766567156931945 
0.35999999999997667, -0.7648940889308682 
0.36999999999997557, -0.7623482279162725 
0.37999999999997447, -0.7585547856853301 
0.38999999999997337, -0.7531228196414954 
0.39999999999997227, -0.7458350531978952 
0.40999999999997117, -0.7368879141788296 
0.41999999999997006, -0.7269770215594025 
0.42999999999996896, -0.7170797562260277 
0.43999999999996786, -0.7080803950729331 
0.44999999999996676, -0.7005211518116949 
0.45999999999996566, -0.6945785901508388 
0.46999999999996456, -0.6901696362604486 
0.47999999999996346, -0.687073531782574 
0.48999999999996235, -0.6850209839591784 
0.49999999999996125, -0.6837476288337225 
0.5099999999999602, -0.683022033392352 
0.519999999999959, -0.682657186366955 
0.529999999999958, -0.6825113166647925 
0.5399999999999568, -0.6824822531016703 
0.5499999999999557, -0.6824988319274586 
0.5599999999999546, -0.6825121994053873 
0.5699999999999535, -0.6824890336668392 
0.5799999999999524, -0.6824077961581552 
0.5899999999999513, -0.6822579993263059 
0.5999999999999502, -0.6820409662381071 
0.6099999999999491, -0.681769199851345 
0.619999999999948, -0.681461829707008 
0.6299999999999469, -0.6811365321829668 
0.6399999999999458, -0.6808018272549533 
0.6499999999999447, -0.6804543038726947 
0.6599999999999436, -0.6800822764159598 
0.6699999999999425, -0.679673287775096 
0.6799999999999414, -0.6792211066585231 
0.6899999999999403, -0.6787295217496545 
0.6999999999999392, -0.6782133573688585 
0.7099999999999381, -0.6776989434763834 
0.719999999999937, -0.6772259653588728 
0.7299999999999359, -0.6768512823206798 
0.7399999999999348, -0.6766540584008363 
0.7499999999999337, -0.6767407497717955 
0.7599999999999326, -0.6772481350720628 
0.7699999999999315, -0.6783426107305079 
0.7799999999999304, -0.6802141325136717 
0.7899999999999293, -0.6830626862347037 
0.7999999999999282, -0.6870730313275883 
0.8099999999999271, -0.6923699865853602 
0.819999999999926, -0.6989463062112697 
0.8299999999999249, -0.7065699998332945 
0.8399999999999238, -0.7147195055274173 
0.8499999999999227, -0.7226397664761782 
0.8599999999999216, -0.7295708582105631 
0.8699999999999205, -0.7350329531767426 
0.8799999999999194, -0.7389491388008576 
0.8899999999999183, -0.7415404199266581 
0.8999999999999172, -0.7431335975078901 
0.9099999999999161, -0.7440254444030598 
0.919999999999915, -0.7444323573091062 
0.9299999999999139, -0.7444900865457829 
0.9399999999999128, -0.7442683586119394 
0.9499999999999117, -0.7437828492159709 
0.9599999999999106, -0.7429984299983099 
0.9699999999999095, -0.7418215114953015 
0.9799999999999084, -0.7400794250542068 
0.9899999999999073, -0.7374845487970153 
0.9999999999999062, -0.7335852202763525 
1.0099999999999052, -0.7277263550892505 
1.019999999999904, -0.719100966717253 
1.029999999999903, -0.7070566379140489 
1.039999999999902, -0.6917438598313982 
1.0499999999999008, -0.674674431935238 
1.0599999999998997, -0.6583251602069574 
1.0699999999998986, -0.6448288516796777 
1.0799999999998975, -0.6350385036073971 
1.0899999999998964, -0.628651903162444 
1.0999999999998953, -0.6248427475084725 
1.1099999999998942, -0.6227569046862115 
1.119999999999893, -0.6217231977851685 
1.129999999999892, -0.621282293763272 
1.1399999999998909, -0.6211451236053699 
1.1499999999998898, -0.6211395066643915 
1.1599999999998887, -0.6211660169988589 
1.1699999999998876, -0.6211669342513972 
1.1799999999998865, -0.6211063926309385 
1.1899999999998854, -0.6209590126230473 
1.1999999999998843, -0.6207051043009946 
1.2099999999998832, -0.620331318663102 
1.219999999999882, -0.6198352806444616 
1.229999999999881, -0.6192308868566135 
1.2399999999998799, -0.6185491946947759 
1.2499999999998788, -0.6178314440150381 
1.2599999999998777, -0.6171164109710399 
1.2699999999998766, -0.6164290978324077 
1.2799999999998755, -0.6157767656701739 
1.2899999999998744, -0.6151530402972993 
1.2999999999998733, -0.6145463542065912 
1.3099999999998722, -0.6139480526550289 
1.319999999999871, -0.613357513577861 
1.32999999999987, -0.6127844396304571 
1.3399999999998689, -0.6122500956251437 
1.3499999999998678, -0.6117892253869376 
1.3599999999998666, -0.6114535128446958 
1.3699999999998655, -0.6113166224373534 
1.3799999999998644, -0.6114803543219193 
1.3899999999998633, -0.6120811669632241 
1.3999999999998622, -0.6132959693367032 
1.4099999999998611, -0.6153451520094977 
1.41999999999986, -0.6184883681839782 
1.429999999999859, -0.6230033740602015 
1.4399999999998578, -0.6291304457914512 
1.4499999999998567, -0.6369614225846829 
1.4599999999998556, -0.6462756774478327 
1.4699999999998545, -0.6564041712943107 
1.4799999999998534, -0.6662967624032909 
1.4899999999998523, -0.6748913259541689 
1.4999999999998512, -0.6815612527793256 
1.5099999999998501, -0.6862650891366295 
1.519999999999849, -0.689345784742536 
1.529999999999848, -0.6912467951072067 
1.5399999999998468, -0.6923440738582327 
1.5499999999998457, -0.6929004200295423 
1.5599999999998446, -0.6930777991130597 
1.5699999999998435, -0.6929613202277076 
1.5799999999998424, -0.6925763234269106 
1.5899999999998413, -0.6918937902615214 
1.5999999999998402, -0.6908229759219663 
1.6099999999998391, -0.6891904456316429 
1.619999999999838, -0.6867071872784466 
1.629999999999837, -0.6829382141159652 
1.6399999999998358, -0.6773225990641969 
1.6499999999998347, -0.6693355469404214 
1.6599999999998336, -0.658846988459929 
1.6699999999998325, -0.646487925969182 
1.6799999999998314, -0.6335969894606561 
1.6899999999998303, -0.6216362942764111 
1.6999999999998292, -0.6115825594950748 
1.709999999999828, -0.6037547932335912 
1.719999999999827, -0.5980024289157513 
1.729999999999826, -0.5939635302092676 
1.7399999999998248, -0.5912394014121964 
1.7499999999998237, -0.5894762749876794 
1.7599999999998226, -0.5883902799962202 
1.7699999999998215, -0.5877663212256852 
1.7799999999998204, -0.5874475793595063 
1.7899999999998193, -0.5873230677820207 
1.7999999999998182, -0.5873161857812831 
1.809999999999817, -0.587375364664992 
1.819999999999816, -0.5874672033790864 
1.8299999999998149, -0.5875721451702601 
1.8399999999998138, -0.5876823218640843 
1.8499999999998127, -0.5878004645364625 
1.8599999999998116, -0.5879379537974553 
1.8699999999998105, -0.5881099937209192 
1.8799999999998094, -0.5883274204685358 
1.8899999999998083, -0.5885874769842274 
1.8999999999998072, -0.5888681899915005 
1.909999999999806, -0.5891306856685014 
1.919999999999805, -0.5893298863823505 
1.9299999999998039, -0.589428333493561 
1.9399999999998028, -0.5894054044283717 
1.9499999999998017, -0.5892580592292649 
1.9599999999998006, -0.5889955727139701 
1.9699999999997995, -0.5886334979358876 
1.9799999999997984, -0.5881907188558488 
1.9899999999997973, -0.5876912249575492 
1.9999999999997962, -0.5871714692322157 
2.0099999999998173, -0.5866948969972337 
2.0199999999998384, -0.5863765373142193 
2.0299999999998595, -0.586420998229386 
2.0399999999998806, -0.5871735950756763 
2.0499999999999017, -0.5891690550371955 
2.059999999999923, -0.5931225105947994 
2.069999999999944, -0.5997436634888879 
2.079999999999965, -0.6092547107244605 
2.089999999999986, -0.6207924829782091 
2.100000000000007, -0.6324335550512439 
2.1100000000000283, -0.6422949684492043 
2.1200000000000494, -0.6496349609036505 
2.1300000000000705, -0.654760620247609 
2.1400000000000916, -0.6582939056385637 
2.1500000000001127, -0.6607388203024737 
2.160000000000134, -0.6624247870088535 
2.170000000000155, -0.6635646226827746 
2.180000000000176, -0.6643016190155288 
2.190000000000197, -0.6647330850211338 
2.2000000000002182, -0.6649214180277889 
2.2100000000002393, -0.6648996661953246 
2.2200000000002604, -0.6646740093688069 
2.2300000000002815, -0.6642241551624468 
2.2400000000003026, -0.6635033218985227 
2.2500000000003237, -0.6624416892544522 
2.260000000000345, -0.6609599688347225 
2.270000000000366, -0.6589991922166152 
2.280000000000387, -0.6565622558409261 
2.290000000000408, -0.6537434579078987 
2.3000000000004293, -0.6507166618681743 
2.3100000000004504, -0.6476816614596561 
2.3200000000004715, -0.6448050953503223 
2.3300000000004926, -0.6421911418680477 
2.3400000000005137, -0.6398857750418837 
2.3500000000005348, -0.637897120430523 
2.360000000000556, -0.6362155517411421 
2.370000000000577, -0.6348267083492369 
2.380000000000598, -0.6337174236013481 
2.390000000000619, -0.6328769834970218 
2.4000000000006403, -0.6322961629171946 
2.4100000000006614, -0.631965790186581 
2.4200000000006825, -0.6318758793963744 
2.4300000000007036, -0.6320157905006059 
2.4400000000007247, -0.6323754154783947 
2.450000000000746, -0.6329470286339507 
2.460000000000767, -0.6337271453736464 
2.470000000000788, -0.6347174098383485 
2.480000000000809, -0.6359230897362216 
2.49000000000083, -0.6373473615692338 
2.5000000000008513, -0.6389799552771779 
2.5100000000008724, -0.640781226837492 
2.5200000000008935, -0.6426682259424746 
2.5300000000009146, -0.6445152128771046 
2.5400000000009357, -0.6461787245716095 
2.550000000000957, -0.6475400606008807 
2.560000000000978, -0.6485391288974852 
2.570000000000999, -0.6491781827919227 
2.58000000000102, -0.6494995124470164 
2.5900000000010412, -0.6495571443806002 
2.6000000000010624, -0.6493970447475624 
2.6100000000010835, -0.6490481074301907 
2.6200000000011046, -0.6485200634603754 
2.6300000000011257, -0.6478044403825558 
2.6400000000011468, -0.6468767707875114 
2.650000000001168, -0.6456999868322957 
2.660000000001189, -0.6442291740441449 
2.67000000000121, -0.6424145049448493 
2.680000000001231, -0.6401883676488339 
2.6900000000012523, -0.637406380004464 
2.7000000000012734, -0.6337293547548227 
2.7100000000012945, -0.6285819595440504 
2.7200000000013156, -0.6215307708096198 
2.7300000000013367, -0.6130463711900566 
2.740000000001358, -0.6046325954163778 
2.750000000001379, -0.5978107656852978 
2.7600000000014, -0.5931886031487752 
2.770000000001421, -0.5905130841410262 
2.780000000001442, -0.5891946499328304 
2.7900000000014633, -0.5886821199176486 
2.8000000000014844, -0.5885858126498122 
2.8100000000015055, -0.588667422673811 
2.8200000000015266, -0.5887936497875279 
2.8300000000015477, -0.5888937180521459 
2.840000000001569, -0.5889298386697447 
2.85000000000159, -0.5888790728836941 
2.860000000001611, -0.5887233453790979 
2.870000000001632, -0.5884454214691474 
2.8800000000016532, -0.5880300018550202 
2.8900000000016743, -0.5874694032294512 
2.9000000000016954, -0.5867716649840095 
2.9100000000017165, -0.5859659717371181 
2.9200000000017377, -0.585099526750821 
2.9300000000017588, -0.5842248896947049 
2.94000000000178, -0.5833842948131432 
2.950000000001801, -0.5825998097427812 
2.960000000001822, -0.5818733255064685 
2.970000000001843, -0.5811940040136281 
2.9800000000018643, -0.5805479709375285 
2.9900000000018854, -0.5799260233192811 
3.0000000000019065, -0.5793279082104815 
3.0100000000019276, -0.5787641895432674 
3.0200000000019487, -0.5782576624689222 
3.03000000000197, -0.5778459016464252 
3.040000000001991, -0.577585746967025 
3.050000000002012, -0.5775599518033945 
3.060000000002033, -0.577885914227861 
3.070000000002054, -0.578726128246325 
3.0800000000020753, -0.5802992496193076 
3.0900000000020964, -0.5828885432583881 
3.1000000000021175, -0.5868392744705907 
3.1100000000021386, -0.592526302855267 
3.1200000000021597, -0.6002593583239215 
3.130000000002181, -0.6100940338596867 
3.140000000002202, -0.6215797769255995 
3.150000000002223, -0.6336335764185678 
3.160000000002244, -0.6448149497464208 
3.1700000000022652, -0.6539627193648323 
3.1800000000022863, -0.6606637622464784 
3.1900000000023074, -0.665174926986049 
3.2000000000023285, -0.6680367466542524 
3.2100000000023496, -0.6697687559990627 
3.2200000000023707, -0.6707553010359324 
3.230000000002392, -0.6712448996552768 
3.240000000002413, -0.6713827756681303 
3.250000000002434, -0.671240276046263 
3.260000000002455, -0.6708318349520428 
3.2700000000024763, -0.6701191750574473 
3.2800000000024974, -0.6690040442326645 
3.2900000000025185, -0.6673120466983858 
3.3000000000025396, -0.6647765226015745 
3.3100000000025607, -0.661048232915123 
3.3200000000025818, -0.6557789084875364 
3.330000000002603, -0.6488134757180004 
3.340000000002624, -0.6404139633260985 
3.350000000002645, -0.6312991282532525 
3.360000000002666, -0.6223813399762845 
3.3700000000026873, -0.6144006088625853 
3.3800000000027084, -0.6077391448529197 
3.3900000000027295, -0.602460473836384 
3.4000000000027506, -0.5984402310481297 
3.4100000000027717, -0.5954794050139942 
3.420000000002793, -0.5933701172668028 
3.430000000002814, -0.5919247242416578 
3.440000000002835, -0.5909850007268307 
3.450000000002856, -0.5904226159905233 
3.460000000002877, -0.5901364594593119 
3.4700000000028983, -0.5900490819868038 
3.4800000000029194, -0.5901030939732788 
3.4900000000029405, -0.5902579183211558 
3.5000000000029616, -0.5904871877950654 
3.5100000000029827, -0.5907769043379236 
3.520000000003004, -0.5911240212067673 
3.530000000003025, -0.5915343842648382 
3.540000000003046, -0.5920184166332391 
3.550000000003067, -0.5925833744061368 
3.5600000000030882, -0.5932230232429574 
3.5700000000031094, -0.5939086889634124 
3.5800000000031305, -0.5945878203620634 
3.5900000000031516, -0.5951943114103633 
3.6000000000031727, -0.5956674554728532 
3.6100000000031938, -0.5959688202896947 
3.620000000003215, -0.596087409042055 
3.630000000003236, -0.5960329339108509 
3.640000000003257, -0.5958244721798172 
3.650000000003278, -0.5954814059059188 
3.6600000000032993, -0.595019356451382 
3.6700000000033204, -0.5944510373467907 
3.6800000000033415, -0.5937917392079958 
3.6900000000033626, -0.5930703511909601 
3.7000000000033837, -0.5923479771663918 
3.710000000003405, -0.5917452867643305 
3.720000000003426, -0.5914719924947105 
3.730000000003447, -0.5918281307199263 
3.740000000003468, -0.5931035629413477 
3.750000000003489, -0.5952926976159526 
3.7600000000035103, -0.5977431238588167 
3.7700000000035314, -0.5992905793640383 
3.7800000000035525, -0.5992132567358536 
3.7900000000035736, -0.5979528171760449 
3.8000000000035947, -0.5965389744744908 
3.810000000003616, -0.5956419555754343 
3.820000000003637, -0.5953576050037099 
3.830000000003658, -0.5954924671821948 
3.840000000003679, -0.5958222902803908 
3.8500000000037002, -0.5961893403735774 
3.8600000000037213, -0.5965059908304526 
3.8700000000037424, -0.596731061351296 
3.8800000000037635, -0.5968470614019216 
3.8900000000037847, -0.5968446938257803 
3.9000000000038058, -0.5967137886907263 
3.910000000003827, -0.5964390213697894 
3.920000000003848, -0.5959999161602568 
3.930000000003869, -0.5953757976981954 
3.94000000000389, -0.5945560001442053 
3.9500000000039113, -0.5935524533407861 
3.9600000000039324, -0.5924070541972863 
3.9700000000039535, -0.5911858817544121 
3.9800000000039746, -0.5899606869172092 
3.9900000000039957, -0.5887884326870034 
4.000000000004016, -0.5877004402547535 
4.010000000003993, -0.5867041337463946 
4.02000000000397, -0.5857925372040846 
4.030000000003946, -0.5849550069054918 
4.040000000003923, -0.5841852047741877 
4.0500000000039, -0.5834855375551594 
4.0600000000038765, -0.5828692660025384 
4.070000000003853, -0.5823618900092049 
4.08000000000383, -0.5820028782250238 
4.090000000003807, -0.581848131627051 
4.100000000003783, -0.5819731573424881 
4.11000000000376, -0.5824767819256068 
4.120000000003737, -0.583485121392066 
4.130000000003713, -0.5851550417778623 
4.14000000000369, -0.587674828647988 
4.150000000003667, -0.5912563062486887 
4.1600000000036434, -0.5961065969628695 
4.17000000000362, -0.6023614690664456 
4.180000000003597, -0.6099676687107026 
4.1900000000035735, -0.6185439326461536 
4.20000000000355, -0.6273354208903188 
4.210000000003527, -0.6354042013633394 
4.220000000003504, -0.6420112835551484 
4.23000000000348, -0.6468903575997806 
4.240000000003457, -0.6502039475443401 
4.250000000003434, -0.652309985564959 
4.26000000000341, -0.6535646522679857 
4.270000000003387, -0.6542385695648926 
4.280000000003364, -0.6545083312178404 
4.2900000000033405, -0.6544736734552551 
4.300000000003317, -0.654174329749064 
4.310000000003294, -0.6535978902828652 
4.320000000003271, -0.6526765416070646 
4.330000000003247, -0.6512721735108682 
4.340000000003224, -0.6491517882251149 
4.350000000003201, -0.6459653056336473 
4.360000000003177, -0.6412635154946856 
4.370000000003154, -0.6346258846427031 
4.380000000003131, -0.6259377512194615 
4.390000000003107, -0.6156739593177909 
4.400000000003084, -0.6048680641682906 
4.410000000003061, -0.5946762740339365 
4.4200000000030375, -0.5859062260168202 
4.430000000003014, -0.5788656708598883 
4.440000000002991, -0.5734905832586918 
4.450000000002968, -0.5695379008465635 
4.460000000002944, -0.5667210168562911 
4.470000000002921, -0.5647757768041552 
4.480000000002898, -0.563482694305536 
4.490000000002874, -0.5626687308352194 
4.500000000002851, -0.5622017054553374 
4.510000000002828, -0.56198308789315 
4.520000000002804, -0.5619412752332418 
4.530000000002781, -0.5620259979941102 
4.540000000002758, -0.5622040399309219 
4.5500000000027345, -0.5624562880563284 
4.560000000002711, -0.5627758704390855 
4.570000000002688, -0.5631666069529055 
4.580000000002665, -0.5636403029068694 
4.590000000002641, -0.564211110109129 
4.600000000002618, -0.5648860701307113 
4.610000000002595, -0.5656534475090969 
4.620000000002571, -0.5664738941768654 
4.630000000002548, -0.5672815204457063 
4.640000000002525, -0.56799870714364 
4.6500000000025015, -0.5685589812896543 
4.660000000002478, -0.5689244559630342 
4.670000000002455, -0.5690882368868663 
4.6800000000024315, -0.5690641620690657 
4.690000000002408, -0.5688730914690641 
4.700000000002385, -0.5685326048968936 
4.710000000002362, -0.5680517065465029 
4.720000000002338, -0.5674292189055115 
4.730000000002315, -0.5666541951699824 
4.740000000002292, -0.5657070770482647 
4.750000000002268, -0.5645596460812735 
4.760000000002245, -0.5631676834338852 
4.770000000002222, -0.5614390319283863 
4.7800000000021985, -0.5591424466382761 
4.790000000002175, -0.5557351280867647 
4.800000000002152, -0.5502455235773835 
4.810000000002129, -0.5416713994881316 
4.820000000002105, -0.5301153689083536 
4.830000000002082, -0.5174324501248682 
4.840000000002059, -0.5060688478191183 
4.850000000002035, -0.49743407472570045 
4.860000000002012, -0.4916066740799475 
4.870000000001989, -0.48798230503579687 
4.880000000001965, -0.4858585293829136 
4.890000000001942, -0.4846773610492323 
4.900000000001919, -0.48405834554229593 
4.9100000000018955, -0.4837607885497997 
4.920000000001872, -0.4836382517735493 
