t, s[1].omega / s[0].omega 
0, -0.8999976050964088 
0.009999999999999995, -0.8997064126812923 
0.019999999999999934, -0.8993123540296877 
0.029999999999999874, -0.8988159790828198 
0.04000000000000012, -0.8982235805774131 
0.050000000000000405, -0.8975516222338822 
0.06000000000000069, -0.896829266952432 
0.07000000000000098, -0.8960991832040003 
0.08000000000000126, -0.8954167186489078 
0.09000000000000155, -0.8948461856507743 
0.10000000000000184, -0.8944527753893109 
0.11000000000000212, -0.8942908177828779 
0.12000000000000241, -0.8943922671489725 
0.130000000000002, -0.8947603151072722 
0.1400000000000009, -0.8953706374262571 
0.1499999999999998, -0.8961790114890154 
0.1599999999999987, -0.8971316279973551 
0.1699999999999976, -0.8981741778310596 
0.1799999999999965, -0.8992570032028533 
0.1899999999999954, -0.9003353828507382 
0.1999999999999943, -0.9013659788702977 
0.2099999999999932, -0.9023025523004339 
0.2199999999999921, -0.9030954701962972 
0.229999999999991, -0.9036981409337363 
0.2399999999999899, -0.9040783169043213 
0.2499999999999888, -0.9042271131328897 
0.2599999999999877, -0.9041598286204525 
0.2699999999999866, -0.9039097891487102 
0.2799999999999855, -0.9035217735625756 
0.2899999999999844, -0.9030506513093671 
0.2999999999999833, -0.9025662799552897 
0.3099999999999822, -0.9021610536279578 
0.3199999999999811, -0.9019529653213805 
0.32999999999998, -0.9020762993306233 
0.3399999999999789, -0.9026573339730535 
0.3499999999999778, -0.9037832170196184 
0.35999999999997667, -0.9054796228165152 
0.36999999999997557, -0.9077077835439825 
0.37999999999997447, -0.9103778473327097 
0.38999999999997337, -0.913366368549225 
0.39999999999997227, -0.9165276248263474 
0.40999999999997117, -0.9196974628263836 
0.41999999999997006, -0.9226978053761223 
0.42999999999996896, -0.9253535695660572 
0.43999999999996786, -0.9275253698656571 
0.44999999999996676, -0.9291431724353503 
0.45999999999996566, -0.9302170023062354 
0.46999999999996456, -0.930816574895565 
0.47999999999996346, -0.9310360724269783 
0.48999999999996235, -0.9309661113738287 
0.49999999999996125, -0.9306830687318604 
0.5099999999999602, -0.9302547557710901 
0.519999999999959, -0.9297586246572443 
0.529999999999958, -0.9293091692036178 
0.5399999999999568, -0.9290876562202515 
0.5499999999999557, -0.92935730978331 
0.5599999999999546, -0.9304388670717595 
0.5699999999999535, -0.9326336849935005 
0.5799999999999524, -0.9361196263122551 
0.5899999999999513, -0.9408748411111452 
0.5999999999999502, -0.9466666378592461 
0.6099999999999491, -0.9530953511605451 
0.619999999999948, -0.9596619145000534 
0.6299999999999469, -0.9658462022546678 
0.6399999999999458, -0.9712009851658694 
0.6499999999999447, -0.975447554790043 
0.6599999999999436, -0.9785249869831013 
0.6699999999999425, -0.9805566710031002 
0.6799999999999414, -0.9817589014785556 
0.6899999999999403, -0.9823524906717145 
0.6999999999999392, -0.9825146774879274 
0.7099999999999381, -0.9823698817563811 
0.719999999999937, -0.9820032040435931 
0.7299999999999359, -0.9814862918523698 
0.7399999999999348, -0.9809145647339067 
0.7499999999999337, -0.9804569906086229 
0.7599999999999326, -0.9804072370412873 
0.7699999999999315, -0.9811975189130353 
0.7799999999999304, -0.9833202445721911 
0.7899999999999293, -0.9871480865411204 
0.7999999999999282, -0.9927430617454955 
0.8099999999999271, -0.9997833507966014 
0.819999999999926, -1.007645322208152 
0.8299999999999249, -1.0155710168906147 
0.8399999999999238, -1.0228428893611838 
0.8499999999999227, -1.0289308822708154 
0.8599999999999216, -1.0335852315916858 
0.8699999999999205, -1.036838118087733 
0.8799999999999194, -1.0389125107276336 
0.8899999999999183, -1.0400966091948343 
0.8999999999999172, -1.0406507872302293 
0.9099999999999161, -1.040769755136425 
0.919999999999915, -1.040585194527197 
0.9299999999999139, -1.040188648895388 
0.9399999999999128, -1.0396653554505222 
0.9499999999999117, -1.0391381923723222 
0.9599999999999106, -1.038816129860746 
0.9699999999999095, -1.0390191989426318 
0.9799999999999084, -1.0401302604194531 
0.9899999999999073, -1.0424542499152623 
0.9999999999999062, -1.0460606286836114 
1.0099999999999052, -1.0507319313387065 
1.019999999999904, -1.0560488671246189 
1.029999999999903, -1.0615269873344997 
1.039999999999902, -1.0667203901505076 
1.0499999999999008, -1.0712782423241485 
1.0599999999998997, -1.0749770282976763 
1.0699999999998986, -1.0777373785840907 
1.0799999999998975, -1.0796126535013026 
1.0899999999998964, -1.0807437894504157 
1.0999999999998953, -1.0813005187232159 
1.1099999999998942, -1.0814371919349486 
1.119999999999893, -1.0812759231545652 
1.129999999999892, -1.080913406215371 
1.1399999999998909, -1.0804430382637076 
1.1499999999998898, -1.0799839260809352 
1.1599999999998887, -1.0797023874222251 
1.1699999999998876, -1.079801514876387 
1.1799999999998865, -1.0804626462097264 
1.1899999999998854, -1.0817657030515535 
1.1999999999998843, -1.0836508299896301 
1.2099999999998832, -1.0859509182064833 
1.219999999999882, -1.0884595603719052 
1.229999999999881, -1.0909843665884764 
1.2399999999998799, -1.0933685061530145 
1.2499999999998788, -1.0954913246159028 
1.2599999999998777, -1.0972642522110694 
1.2699999999998766, -1.098631330799985 
1.2799999999998755, -1.0995737496811715 
1.2899999999998744, -1.1001109288384718 
1.2999999999998733, -1.100292541920267 
1.3099999999998722, -1.1001845703743165 
1.319999999999871, -1.0998582830079666 
1.32999999999987, -1.0993885650689204 
1.3399999999998689, -1.0988607414552967 
1.3499999999998678, -1.098377459752133 
1.3599999999998666, -1.0980528300192245 
1.3699999999998655, -1.097986935560152 
1.3799999999998644, -1.0982323910181129 
1.3899999999998633, -1.0987773207514562 
1.3999999999998622, -1.0995559654076603 
1.4099999999998611, -1.1004749576809891 
1.41999999999986, -1.101438031428425 
1.429999999999859, -1.1023614591406818 
1.4399999999998578, -1.103180254185153 
1.4499999999998567, -1.1038477526595913 
1.4599999999998556, -1.1043319005498304 
1.4699999999998545, -1.104611493450682 
1.4799999999998534, -1.1046746495617987 
1.4899999999998523, -1.104519933285221 
1.4999999999998512, -1.1041585730305645 
1.5099999999998501, -1.1036159333314774 
1.519999999999849, -1.1029321228581337 
1.529999999999848, -1.102162658793555 
1.5399999999998468, -1.1013781689954234 
1.5499999999998457, -1.1006592097655985 
1.5599999999998446, -1.1000833539995265 
1.5699999999998435, -1.099707843902618 
1.5799999999998424, -1.0995555312705705 
1.5899999999998413, -1.099609377985335 
1.5999999999998402, -1.0998166607248714 
1.6099999999998391, -1.100102000424894 
1.619999999999838, -1.1003846620099593 
1.629999999999837, -1.1005924587563547 
1.6399999999998358, -1.1006680362171997 
1.6499999999998347, -1.1005696513043524 
1.6599999999998336, -1.1002704825120793 
1.6699999999998325, -1.0997579397053359 
1.6799999999998314, -1.0990322031402964 
1.6899999999998303, -1.0981039182522951 
1.6999999999998292, -1.096992743700199 
1.709999999999828, -1.0957284269943117 
1.719999999999827, -1.094354228102603 
1.729999999999826, -1.0929306270254247 
1.7399999999998248, -1.091536244364032 
1.7499999999998237, -1.0902628221726773 
1.7599999999998226, -1.089201918744504 
1.7699999999998215, -1.0884230642927384 
1.7799999999998204, -1.0879488666858517 
1.7899999999998193, -1.0877412178832988 
1.7999999999998182, -1.0877117924100665 
1.809999999999817, -1.0877515653855618 
1.819999999999816, -1.0877580242062823 
1.8299999999998149, -1.087645437341443 
1.8399999999998138, -1.0873411458967985 
1.8499999999998127, -1.0867793740134373 
1.8599999999998116, -1.0859014494231405 
1.8699999999998105, -1.084664215604003 
1.8799999999998094, -1.0830513406855007 
1.8899999999998083, -1.0810795348487163 
1.8999999999998072, -1.0787965064012908 
1.909999999999806, -1.0762753435737393 
1.919999999999805, -1.0736122434402326 
1.9299999999998039, -1.0709292987031376 
1.9399999999998028, -1.0683765815239092 
1.9499999999998017, -1.0661224606467654 
1.9599999999998006, -1.0643216611713169 
1.9699999999997995, -1.0630640971668288 
1.9799999999997984, -1.06233283915715 
1.9899999999997973, -1.062008048481321 
1.9999999999997962, -1.061918959727885 
2.0099999999998173, -1.0619029610030088 
2.0199999999998384, -1.061833771075619 
2.0299999999998595, -1.061615996906009 
2.0399999999998806, -1.0611645302659096 
2.0499999999999017, -1.0603857626983209 
2.059999999999923, -1.059170685149715 
2.069999999999944, -1.0574058871972294 
2.079999999999965, -1.0550026546746956 
2.089999999999986, -1.0519328156028964 
2.100000000000007, -1.048251655486122 
2.1100000000000283, -1.0440969525720483 
2.1200000000000494, -1.0396726592888421 
2.1300000000000705, -1.035232337085049 
2.1400000000000916, -1.0310636619040796 
2.1500000000001127, -1.0274580009419467 
2.160000000000134, -1.0246497426813104 
2.170000000000155, -1.0227393256611088 
2.180000000000176, -1.0216513728933145 
2.190000000000197, -1.021171674141129 
2.2000000000002182, -1.0210412548548389 
2.2100000000002393, -1.0210388814142946 
2.2200000000002604, -1.0210099940985216 
2.2300000000002815, -1.0208515496035897 
2.2400000000003026, -1.0204809185968557 
2.2500000000003237, -1.019807519059086 
2.260000000000345, -1.018715084480006 
2.270000000000366, -1.0170605360318938 
2.280000000000387, -1.0146967692018256 
2.290000000000408, -1.0115200120108738 
2.3000000000004293, -1.0075236466177904 
2.3100000000004504, -1.0028269068242908 
2.3200000000004715, -0.9976622008335317 
2.3300000000004926, -0.9923364586717822 
2.3400000000005137, -0.9871910517569402 
2.3500000000005348, -0.9825648298032335 
2.360000000000556, -0.9787465053795209 
2.370000000000577, -0.9759113657773474 
2.380000000000598, -0.9740683306076633 
2.390000000000619, -0.9730607034064152 
2.4000000000006403, -0.9726332226786282 
2.4100000000006614, -0.9725238518444905 
2.4200000000006825, -0.9725252004896892 
2.4300000000007036, -0.9724967671322808 
2.4400000000007247, -0.9723450881108704 
2.450000000000746, -0.9719953602165792 
2.460000000000767, -0.9713682673102765 
2.470000000000788, -0.9703680455580436 
2.480000000000809, -0.96888650412443 
2.49000000000083, -0.9668266768731757 
2.5000000000008513, -0.9641410209022749 
2.5100000000008724, -0.9608643558980118 
2.5200000000008935, -0.9571187614901809 
2.5300000000009146, -0.9530879731811408 
2.5400000000009357, -0.9489819999213098 
2.550000000000957, -0.9450121390691238 
2.560000000000978, -0.9413780539763398 
2.570000000000999, -0.9382551198040773 
2.58000000000102, -0.9357719849157776 
2.5900000000010412, -0.9339814842822657 
2.6000000000010624, -0.9328423349714157 
2.6100000000010835, -0.9322298953554127 
2.6200000000011046, -0.9319755471300212 
2.6300000000011257, -0.9319126665171236 
2.6400000000011468, -0.9319055490304416 
2.650000000001168, -0.9318544859061323 
2.660000000001189, -0.9316854988795875 
2.67000000000121, -0.9313368214589154 
2.680000000001231, -0.9307507859654708 
2.6900000000012523, -0.9298755270021376 
2.7000000000012734, -0.9286763536504044 
2.7100000000012945, -0.9271503853697995 
2.7200000000013156, -0.9253335604851276 
2.7300000000013367, -0.9232933872881792 
2.740000000001358, -0.9211123712193668 
2.750000000001379, -0.9188736644779751 
2.7600000000014, -0.9166557629496198 
2.770000000001421, -0.9145343117980881 
2.780000000001442, -0.9125847551762949 
2.7900000000014633, -0.9108805080424572 
2.8000000000014844, -0.909484598470374 
2.8100000000015055, -0.908436532381604 
2.8200000000015266, -0.9077397909765909 
2.8300000000015477, -0.90735712839606 
2.840000000001569, -0.9072179708447082 
2.85000000000159, -0.9072351155180789 
2.860000000001611, -0.9073223127670301 
2.870000000001632, -0.9074054069556675 
2.8800000000016532, -0.9074256913014274 
2.8900000000016743, -0.907339078773169 
2.9000000000016954, -0.907115388288422 
2.9100000000017165, -0.9067393177845862 
2.9200000000017377, -0.9062111958218082 
2.9300000000017588, -0.9055444809525237 
2.94000000000178, -0.9047596719024588 
2.950000000001801, -0.903878107894176 
2.960000000001822, -0.9029196455285474 
2.970000000001843, -0.9019049877435272 
2.9800000000018643, -0.9008602532570075 
2.9900000000018854, -0.8998207881308034 
3.0000000000019065, -0.8988322953316159 
3.0100000000019276, -0.8979482843627207 
3.0200000000019487, -0.8972235169505444 
3.03000000000197, -0.8967044179973526 
3.040000000001991, -0.896419160432622 
3.050000000002012, -0.8963709719417607 
3.060000000002033, -0.8965372862314716 
3.070000000002054, -0.8968751101809997 
3.0800000000020753, -0.8973305122076656 
3.0900000000020964, -0.8978487045626992 
3.1000000000021175, -0.898381615057278 
3.1100000000021386, -0.8988915695816619 
3.1200000000021597, -0.8993512083109705 
3.130000000002181, -0.8997403979546925 
3.140000000002202, -0.9000415382842502 
3.150000000002223, -0.9002358495719525 
3.160000000002244, -0.9003035883014203 
3.1700000000022652, -0.9002289078029575 
3.1800000000022863, -0.9000064297867763 
3.1900000000023074, -0.8996453973772353 
3.2000000000023285, -0.8991701151493725 
3.2100000000023496, -0.8986189148431194 
3.2200000000023707, -0.8980442563549376 
3.230000000002392, -0.897513799763075 
3.240000000002413, -0.897109107578021 
3.250000000002434, -0.8969178846421949 
3.260000000002455, -0.897018923901953 
3.2700000000024763, -0.8974647268730983 
3.2800000000024974, -0.8982700757915166 
3.2900000000025185, -0.899411811096766 
3.3000000000025396, -0.9008382360550243 
3.3100000000025607, -0.9024818830848187 
3.3200000000025818, -0.9042693774711615 
3.330000000002603, -0.9061251139554564 
3.340000000002624, -0.9079693060191882 
3.350000000002645, -0.9097148098963153 
3.360000000002666, -0.9112696065281293 
3.3700000000026873, -0.9125496763589771 
3.3800000000027084, -0.9134984823485734 
3.3900000000027295, -0.9141007611204619 
3.4000000000027506, -0.9143807254231289 
3.4100000000027717, -0.9143874045089934 
3.420000000002793, -0.9141787870144784 
3.430000000002814, -0.9138143786608438 
3.440000000002835, -0.913358973416378 
3.450000000002856, -0.9128955376023015 
3.460000000002877, -0.9125417718984854 
3.4700000000028983, -0.9124605298849386 
3.4800000000029194, -0.9128508109466775 
3.4900000000029405, -0.9139113070455368 
3.5000000000029616, -0.9157862494224434 
3.5100000000029827, -0.9185202924079015 
3.520000000003004, -0.9220448505319269 
3.530000000003025, -0.9261945153907167 
3.540000000003046, -0.9307343941756662 
3.550000000003067, -0.9353835937965774 
3.5600000000030882, -0.9398379983593893 
3.5700000000031094, -0.9438071426483482 
3.5800000000031305, -0.9470696955327516 
3.5900000000031516, -0.9495240206293631 
3.6000000000031727, -0.9511977403857748 
3.6100000000031938, -0.9522080553479233 
3.620000000003215, -0.9527026364967351 
3.630000000003236, -0.9528155297699581 
3.640000000003257, -0.9526501602556545 
3.650000000003278, -0.9522840492409731 
3.6600000000032993, -0.9517878087449103 
3.6700000000033204, -0.9512556614658987 
3.6800000000033415, -0.9508457808909745 
3.6900000000033626, -0.9508193843315633 
3.7000000000033837, -0.951548675621301 
3.710000000003405, -0.9534552063642195 
3.720000000003426, -0.9568737219344859 
3.730000000003447, -0.9619035676446555 
3.740000000003468, -0.968336349531134 
3.750000000003489, -0.9756924986814383 
3.7600000000035103, -0.983329049743942 
3.7700000000035314, -0.9905719183243773 
3.7800000000035525, -0.9968527388527996 
3.7900000000035736, -1.001827479441538 
3.8000000000035947, -1.0054268670473596 
3.810000000003616, -1.0078056987639132 
3.820000000003637, -1.0092271544056375 
3.830000000003658, -1.0099557860100141 
3.840000000003679, -1.0102013297936856 
3.8500000000037002, -1.0101089573316786 
3.8600000000037213, -1.0097751294585735 
3.8700000000037424, -1.0092758170621443 
3.8800000000037635, -1.0087053060755566 
3.8900000000037847, -1.0082269918474056 
3.9000000000038058, -1.0081246529098455 
3.910000000003827, -1.008813316588604 
3.920000000003848, -1.0107534376331233 
3.930000000003869, -1.0142668804933856 
3.94000000000389, -1.0193611753732017 
3.9500000000039113, -1.0256915839653507 
3.9600000000039324, -1.0326727916515148 
3.9700000000039535, -1.0396447744494466 
3.9800000000039746, -1.0460133721909899 
3.9900000000039957, -1.051349789892294 
4.000000000004016, -1.0554492168600953 
4.010000000003993, -1.0583308031891867 
4.02000000000397, -1.060172128861358 
4.030000000003946, -1.0612126923048024 
4.040000000003923, -1.0616764022681562 
4.0500000000039, -1.0617363427740723 
4.0600000000038765, -1.0615149182508885 
4.070000000003853, -1.0611044935495262 
4.08000000000383, -1.0605998737902733 
4.090000000003807, -1.0601378396805252 
4.100000000003783, -1.0599299194762881 
4.11000000000376, -1.060255799759569 
4.120000000003737, -1.0613865977629564 
4.130000000003713, -1.063463305872806 
4.14000000000369, -1.066420316312706 
4.150000000003667, -1.070015063692971 
4.1600000000036434, -1.0739252869432083 
4.17000000000362, -1.0778359149631025 
4.180000000003597, -1.0814817693199428 
4.1900000000035735, -1.0846604683230574 
4.20000000000355, -1.0872393443305388 
4.210000000003527, -1.0891636335915191 
4.220000000003504, -1.0904560332488291 
4.23000000000348, -1.0911978747905648 
4.240000000003457, -1.0914975640871063 
4.250000000003434, -1.0914627379135542 
4.26000000000341, -1.091188173696167 
4.270000000003387, -1.090760938415215 
4.280000000003364, -1.0902770725704998 
4.2900000000033405, -1.089858746197216 
4.300000000003317, -1.0896546392968487 
4.310000000003294, -1.0898087643892416 
4.320000000003271, -1.0904073670948133 
4.330000000003247, -1.0914424154626714 
4.340000000003224, -1.0928208591455477 
4.350000000003201, -1.0944067489694045 
4.360000000003177, -1.0960627325310617 
4.370000000003154, -1.0976726464727347 
4.380000000003131, -1.0991467081233592 
4.390000000003107, -1.100417833848476 
4.400000000003084, -1.1014367733860975 
4.410000000003061, -1.1021707256413271 
4.4200000000030375, -1.1026058483350631 
4.430000000003014, -1.102749986250386 
4.440000000002991, -1.1026315499672665 
4.450000000002968, -1.1022947202692233 
4.460000000002944, -1.1017953486271912 
4.470000000002921, -1.1012010982641138 
4.480000000002898, -1.100593847049977 
4.490000000002874, -1.100066786118 
4.500000000002851, -1.099709430708029 
4.510000000002828, -1.0995840890715358 
4.520000000002804, -1.099707990196124 
4.530000000002781, -1.1000518399995511 
4.540000000002758, -1.1005523063327332 
4.5500000000027345, -1.10112967296792 
4.560000000002711, -1.1017042493873768 
4.570000000002688, -1.1022078390777539 
4.580000000002665, -1.1025887648673047 
4.590000000002641, -1.1028117371168586 
4.600000000002618, -1.1028551619207994 
4.610000000002595, -1.1027079306551646 
4.620000000002571, -1.1023670849820904 
4.630000000002548, -1.1018373839397182 
4.640000000002525, -1.1011329040700404 
4.6500000000025015, -1.1002797981026502 
4.660000000002478, -1.0993191211772155 
4.670000000002455, -1.0983084925926216 
4.6800000000024315, -1.0973203840502745 
4.690000000002408, -1.0964345309685966 
4.700000000002385, -1.0957243155674232 
4.710000000002362, -1.0952402226793807 
4.720000000002338, -1.0949950176964285 
4.730000000002315, -1.094956710439662 
4.740000000002292, -1.095055425551219 
4.750000000002268, -1.0952027694348772 
4.760000000002245, -1.095312236036659 
4.770000000002222, -1.0953101569056205 
4.7800000000021985, -1.0951371312381588 
4.790000000002175, -1.0947467131366064 
4.800000000002152, -1.0941064945527903 
4.810000000002129, -1.093201255191098 
4.820000000002105, -1.0920345694262015 
4.830000000002082, -1.0906269305747522 
4.840000000002059, -1.0890125729639348 
4.850000000002035, -1.087238718849487 
4.860000000002012, -1.0853685381388254 
4.870000000001989, -1.0834854978538417 
4.880000000001965, -1.081694390489637 
4.890000000001942, -1.0801132708418346 
4.900000000001919, -1.0788513198372367 
4.9100000000018955, -1.077974364898361 
4.920000000001872, -1.0774744806099572 
4.930000000001849, -1.0772681271188467 
