t, s[1].omega / s[0].omega 
0, -0.8201545622894792 
0.009999999999999995, -0.8350214089907734 
0.019999999999999934, -0.8475894492956663 
0.029999999999999874, -0.8569942808392776 
0.04000000000000012, -0.8633829439178988 
0.050000000000000405, -0.8674253029504506 
0.06000000000000069, -0.8698467710441526 
0.07000000000000098, -0.8712131050448967 
0.08000000000000126, -0.871900431910942 
0.09000000000000155, -0.8721343455392894 
0.10000000000000184, -0.8720346530233186 
0.11000000000000212, -0.8716458955323722 
0.12000000000000241, -0.8709517451316773 
0.130000000000002, -0.8698758324451268 
0.1400000000000009, -0.8682724155294282 
0.1499999999999998, -0.8659130810136251 
0.1599999999999987, -0.8624843347336919 
0.1699999999999976, -0.8576271735748241 
0.1799999999999965, -0.8510644361443879 
0.1899999999999954, -0.8428417629544315 
0.1999999999999943, -0.833606154561773 
0.2099999999999932, -0.824675338180518 
0.2199999999999921, -0.8176074105903932 
0.229999999999991, -0.8133840150466549 
0.2399999999999899, -0.8119119934174979 
0.2499999999999888, -0.8123119414292684 
0.2599999999999877, -0.8135774581837779 
0.2699999999999866, -0.8149965447750102 
0.2799999999999855, -0.8162118330008346 
0.2899999999999844, -0.8171071816380469 
0.2999999999999833, -0.8176833629823183 
0.3099999999999822, -0.8179776644934593 
0.3199999999999811, -0.818023137823988 
0.32999999999998, -0.8178298237627736 
0.3399999999999789, -0.817374049928722 
0.3499999999999778, -0.8165880069780254 
0.35999999999997667, -0.815347268373231 
0.36999999999997557, -0.8134608690711135 
0.37999999999997447, -0.8106796486615202 
0.38999999999997337, -0.806749565025824 
0.39999999999997227, -0.8015262041867954 
0.40999999999997117, -0.7951101300332473 
0.41999999999997006, -0.7878977832485639 
0.42999999999996896, -0.780477784827628 
0.43999999999996786, -0.7734383444649613 
0.44999999999996676, -0.7672175219917394 
0.45999999999996566, -0.7620553488030255 
0.46999999999996456, -0.7580180143081495 
0.47999999999996346, -0.7550455946837692 
0.48999999999996235, -0.7529978801326214 
0.49999999999996125, -0.7516930975908012 
0.5099999999999602, -0.7509400830394322 
0.519999999999959, -0.750562847606181 
0.529999999999958, -0.7504153373613117 
0.5399999999999568, -0.75038591984758 
0.5499999999999557, -0.7503939620609945 
0.5599999999999546, -0.7503825024682723 
0.5699999999999535, -0.7503108923450001 
0.5799999999999524, -0.7501501177533776 
0.5899999999999513, -0.7498819153362186 
0.5999999999999502, -0.7495007421306987 
0.6099999999999491, -0.7490154678147835 
0.619999999999948, -0.748447063609202 
0.6299999999999469, -0.7478213143546254 
0.6399999999999458, -0.7471600568985914 
0.6499999999999447, -0.7464761743199403 
0.6599999999999436, -0.7457747587873009 
0.6699999999999425, -0.7450585931997066 
0.6799999999999414, -0.7443342376295428 
0.6899999999999403, -0.7436162307274966 
0.6999999999999392, -0.7429291204429227 
0.7099999999999381, -0.7423080933520482 
0.719999999999937, -0.7417985816163397 
0.7299999999999359, -0.7414544468009556 
0.7399999999999348, -0.7413341848661534 
0.7499999999999337, -0.7414953157312425 
0.7599999999999326, -0.7419882002040615 
0.7699999999999315, -0.7428510814199027 
0.7799999999999304, -0.7441075624433632 
0.7899999999999293, -0.7457661467088401 
0.7999999999999282, -0.7478196618647762 
0.8099999999999271, -0.7502413171472246 
0.819999999999926, -0.7529748449157414 
0.8299999999999249, -0.7559199805364243 
0.8399999999999238, -0.7589220673197569 
0.8499999999999227, -0.761781754094729 
0.8599999999999216, -0.7642958192483909 
0.8699999999999205, -0.7663156804714845 
0.8799999999999194, -0.767786673350166 
0.8899999999999183, -0.7687425086433337 
0.8999999999999172, -0.7692666633416009 
0.9099999999999161, -0.7694513384933007 
0.919999999999915, -0.7693726774773478 
0.9299999999999139, -0.7690829268384294 
0.9399999999999128, -0.7686132274407899 
0.9499999999999117, -0.7679827966324461 
0.9599999999999106, -0.7672151582462384 
0.9699999999999095, -0.76636694701977 
0.9799999999999084, -0.7655784574834831 
0.9899999999999073, -0.7651538411702794 
0.9999999999999062, -0.7656626822350598 
1.0099999999999052, -0.7680078811448234 
1.019999999999904, -0.7733255988678134 
1.029999999999903, -0.7825436971331599 
1.039999999999902, -0.7956242035333024 
1.0499999999999008, -0.8110437279764428 
1.0599999999998997, -0.8262883782172041 
1.0699999999998986, -0.8391846734348052 
1.0799999999998975, -0.8488169179937113 
1.0899999999998964, -0.8553929400975229 
1.0999999999998953, -0.8596166001851774 
1.1099999999998942, -0.8622116574093204 
1.119999999999893, -0.863734902513191 
1.129999999999892, -0.8645593600760428 
1.1399999999998909, -0.8649133627160996 
1.1499999999998898, -0.8649219433491826 
1.1599999999998887, -0.8646343398008736 
1.1699999999998876, -0.8640352028251101 
1.1799999999998865, -0.863039575388336 
1.1899999999998854, -0.861470544138573 
1.1999999999998843, -0.8590183642143872 
1.2099999999998832, -0.8551875163334552 
1.219999999999882, -0.8492667455172794 
1.229999999999881, -0.8404190181455917 
1.2399999999998799, -0.828041503948209 
1.2499999999998788, -0.8124058451600019 
1.2599999999998777, -0.7951141518452572 
1.2699999999998766, -0.778658478043827 
1.2799999999998755, -0.7651981733298004 
1.2899999999998744, -0.7556473750025867 
1.2999999999998733, -0.7497140677861327 
1.3099999999998722, -0.7464936408749586 
1.319999999999871, -0.7450145326990188 
1.32999999999987, -0.744509989037718 
1.3399999999998689, -0.7444719114850626 
1.3499999999998678, -0.7446025259519009 
1.3599999999998666, -0.744742802490366 
1.3699999999998655, -0.7448121088049285 
1.3799999999998644, -0.7447668283387243 
1.3899999999998633, -0.7445748999484705 
1.3999999999998622, -0.7442014515180025 
1.4099999999998611, -0.7436027427775189 
1.41999999999986, -0.7427286086847017 
1.429999999999859, -0.7415350557047148 
1.4399999999998578, -0.7400055069277991 
1.4499999999998567, -0.7381708094090401 
1.4599999999998556, -0.7361124919347664 
1.4699999999998545, -0.7339425688542722 
1.4799999999998534, -0.7317719481503202 
1.4899999999998523, -0.7296871978646311 
1.4999999999998512, -0.7277448055303875 
1.5099999999998501, -0.7259782037798828 
1.519999999999849, -0.7244082869328666 
1.529999999999848, -0.7230512008230694 
1.5399999999998468, -0.7219215499938784 
1.5499999999998457, -0.7210318017257531 
1.5599999999998446, -0.7203896232144271 
1.5699999999998435, -0.719994976091626 
1.5799999999998424, -0.7198384551302901 
1.5899999999998413, -0.7199017019752809 
1.5999999999998402, -0.7201598777393314 
1.6099999999998391, -0.7205854275963899 
1.619999999999838, -0.7211519915600537 
1.629999999999837, -0.7218373254467922 
1.6399999999998358, -0.7226242413681923 
1.6499999999998347, -0.7234986692699575 
1.6599999999998336, -0.7244442826696541 
1.6699999999998325, -0.7254344831324328 
1.6799999999998314, -0.7264251966877939 
1.6899999999998303, -0.7273543252415627 
1.6999999999998292, -0.7281522258304163 
1.709999999999828, -0.7287603089406172 
1.719999999999827, -0.7291470326638149 
1.729999999999826, -0.7293115937950516 
1.7399999999998248, -0.7292755663950174 
1.7499999999998237, -0.7290707145869786 
1.7599999999998226, -0.728730791739548 
1.7699999999998215, -0.7282906112986207 
1.7799999999998204, -0.7277928216903996 
1.7899999999998193, -0.7273027507496074 
1.7999999999998182, -0.7269325867114909 
1.809999999999817, -0.7268758165081268 
1.819999999999816, -0.7274491062671055 
1.8299999999998149, -0.729129587836554 
1.8399999999998138, -0.7325596634322333 
1.8499999999998127, -0.738471492706504 
1.8599999999998116, -0.7474730877332045 
1.8699999999998105, -0.7596781252340169 
1.8799999999998094, -0.7743148451250154 
1.8899999999998083, -0.7896735033039632 
1.8999999999998072, -0.8036997477148576 
1.909999999999806, -0.8149293394616107 
1.919999999999805, -0.8229755385386811 
1.9299999999998039, -0.8282782244442165 
1.9399999999998028, -0.8315698158480096 
1.9499999999998017, -0.833513895401798 
1.9599999999998006, -0.8345878055127678 
1.9699999999997995, -0.8350948769463351 
1.9799999999997984, -0.8352100848049426 
1.9899999999997973, -0.8350187302685104 
1.9999999999997962, -0.8345386836710504 
2.0099999999998173, -0.8337264318895878 
2.0199999999998384, -0.8324679498097417 
2.0299999999998595, -0.8305542879613197 
2.0399999999998806, -0.8276430993055772 
2.0499999999999017, -0.8232175229683261 
2.059999999999923, -0.8165845001724484 
2.069999999999944, -0.8070128546882508 
2.079999999999965, -0.7941442335880231 
2.089999999999986, -0.7786226487717928 
2.100000000000007, -0.7623833393101825 
2.1100000000000283, -0.747932483308884 
2.1200000000000494, -0.7370249275949103 
2.1300000000000705, -0.7299962439411825 
2.1400000000000916, -0.726129270371351 
2.1500000000001127, -0.7243716195154507 
2.160000000000134, -0.7238105282472345 
2.170000000000155, -0.7238223969442688 
2.180000000000176, -0.7240416171144326 
2.190000000000197, -0.724277398790227 
2.2000000000002182, -0.7244388341472946 
2.2100000000002393, -0.7244833603406245 
2.2200000000002604, -0.7243855321234919 
2.2300000000002815, -0.724119292440218 
2.2400000000003026, -0.7236488113481525 
2.2500000000003237, -0.7229263942484219 
2.260000000000345, -0.7218990840542172 
2.270000000000366, -0.7205260260051862 
2.280000000000387, -0.7188032196611567 
2.290000000000408, -0.7167821939919684 
2.3000000000004293, -0.7145660311403639 
2.3100000000004504, -0.7122807947618516 
2.3200000000004715, -0.7100406627809668 
2.3300000000004926, -0.7079273746876924 
2.3400000000005137, -0.7059891904519816 
2.3500000000005348, -0.704251214353226 
2.360000000000556, -0.7027271395122419 
2.370000000000577, -0.7014270651514116 
2.380000000000598, -0.7003604685781559 
2.390000000000619, -0.6995355978687545 
2.4000000000006403, -0.6989571054146964 
2.4100000000006614, -0.6986235932449301 
2.4200000000006825, -0.6985263130209426 
2.4300000000007036, -0.698649648452626 
2.4400000000007247, -0.6989733010961382 
2.450000000000746, -0.6994755019935547 
2.460000000000767, -0.7001362447635682 
2.470000000000788, -0.700939445510514 
2.480000000000809, -0.7018729000502333 
2.49000000000083, -0.7029249219066361 
2.5000000000008513, -0.7040771042595818 
2.5100000000008724, -0.705294590985419 
2.5200000000008935, -0.7065186450854044 
2.5300000000009146, -0.7076688305622525 
2.5400000000009357, -0.7086590891865832 
2.550000000000957, -0.7094218436184304 
2.560000000000978, -0.709925554773208 
2.570000000000999, -0.7101753546413916 
2.58000000000102, -0.7101999492600334 
2.5900000000010412, -0.710035920272994 
2.6000000000010624, -0.709717770698981 
2.6100000000010835, -0.7092760435341023 
2.6200000000011046, -0.7087430650050386 
2.6300000000011257, -0.7081666543125202 
2.6400000000011468, -0.7076343417839681 
2.650000000001168, -0.7073122018922509 
2.660000000001189, -0.7075008480475058 
2.67000000000121, -0.708701922146523 
2.680000000001231, -0.7116644275180016 
2.6900000000012523, -0.7173366107727179 
2.7000000000012734, -0.7266050018248695 
2.7100000000012945, -0.7397488734842127 
2.7200000000013156, -0.7558290315802785 
2.7300000000013367, -0.7726502824342233 
2.740000000001358, -0.7877217131900605 
2.750000000001379, -0.7995018742531184 
2.7600000000014, -0.8077871291357708 
2.770000000001421, -0.8132059681675725 
2.780000000001442, -0.8165839837047713 
2.7900000000014633, -0.818610637566891 
2.8000000000014844, -0.8197650097501935 
2.8100000000015055, -0.8203487094255812 
2.8200000000015266, -0.8205368146582399 
2.8300000000015477, -0.8204164869279774 
2.840000000001569, -0.820008074855398 
2.85000000000159, -0.8192697413430515 
2.860000000001611, -0.8180860833854231 
2.870000000001632, -0.8162397448254282 
2.8800000000016532, -0.8133674032606454 
2.8900000000016743, -0.8089166709040742 
2.9000000000016954, -0.8021619088709884 
2.9100000000017165, -0.792396692405291 
2.9200000000017377, -0.7793945944500034 
2.9300000000017588, -0.763938613469646 
2.94000000000178, -0.7478462642657083 
2.950000000001801, -0.7332089340611538 
2.960000000001822, -0.7214530154630125 
2.970000000001843, -0.712984153365745 
2.9800000000018643, -0.7074402912934721 
2.9900000000018854, -0.7041250877667964 
3.0000000000019065, -0.7023260541898102 
3.0100000000019276, -0.7014641726947753 
3.0200000000019487, -0.7011275769270715 
3.03000000000197, -0.7010491128886153 
3.040000000001991, -0.7010666147499915 
3.050000000002012, -0.7010850958955379 
3.060000000002033, -0.7010476837582666 
3.070000000002054, -0.7009160436908056 
3.0800000000020753, -0.7006591004217548 
3.0900000000020964, -0.7002490581140027 
3.1000000000021175, -0.6996641868738855 
3.1100000000021386, -0.6988968145953971 
3.1200000000021597, -0.6979618299810371 
3.130000000002181, -0.6968984881766962 
3.140000000002202, -0.6957613196403379 
3.150000000002223, -0.6946042677121336 
3.160000000002244, -0.6934676393856757 
3.1700000000022652, -0.692374322859611 
3.1800000000022863, -0.691334463423644 
3.1900000000023074, -0.6903535894498279 
3.2000000000023285, -0.689439719005444 
3.2100000000023496, -0.6886076116627534 
3.2200000000023707, -0.6878803694958926 
3.230000000002392, -0.6872891815398134 
3.240000000002413, -0.686871740384335 
3.250000000002434, -0.6866696038964963 
3.260000000002455, -0.6867248988763838 
3.2700000000024763, -0.6870770883253705 
3.2800000000024974, -0.6877606421060367 
3.2900000000025185, -0.6888040638920463 
3.3000000000025396, -0.6902298181010403 
3.3100000000025607, -0.6920534904401958 
3.3200000000025818, -0.694279383791287 
3.330000000002603, -0.6968894195178724 
3.340000000002624, -0.699824232699402 
3.350000000002645, -0.7029619186080042 
3.360000000002666, -0.7061105420044161 
3.3700000000026873, -0.7090352468564637 
3.3800000000027084, -0.7115224193978666 
3.3900000000027295, -0.7134464788455988 
3.4000000000027506, -0.7147931487489274 
3.4100000000027717, -0.7156301438235959 
3.420000000002793, -0.7160569214671728 
3.430000000002814, -0.7161658084051467 
3.440000000002835, -0.7160237736478405 
3.450000000002856, -0.71566861522866 
3.460000000002877, -0.7151113968674145 
3.4700000000028983, -0.7143407732061581 
3.4800000000029194, -0.7133288840315631 
3.4900000000029405, -0.7120416265810419 
3.5000000000029616, -0.7104581335967504 
3.5100000000029827, -0.7086026513967125 
3.520000000003004, -0.7065794545260029 
3.530000000003025, -0.7045713239858538 
3.540000000003046, -0.7027415881607652 
3.550000000003067, -0.7010713376035036 
3.5600000000030882, -0.6993825732571884 
3.5700000000031094, -0.6976902534050069 
3.5800000000031305, -0.6963891848654076 
3.5900000000031516, -0.6958786219169144 
3.6000000000031727, -0.6961751846307002 
3.6100000000031938, -0.6969823954032888 
3.620000000003215, -0.6979579083228817 
3.630000000003236, -0.6988672232144234 
3.640000000003257, -0.6995979256302747 
3.650000000003278, -0.7001177705531413 
3.6600000000032993, -0.7004317263425919 
3.6700000000033204, -0.7005535523884685 
3.6800000000033415, -0.7004899197314439 
3.6900000000033626, -0.7002317446315981 
3.7000000000033837, -0.6997491351414463 
3.710000000003405, -0.6989894254248048 
3.720000000003426, -0.6978813387244018 
3.730000000003447, -0.6963510817060713 
3.740000000003468, -0.6943537939242657 
3.750000000003489, -0.6919112509448387 
3.7600000000035103, -0.6891305897636683 
3.7700000000035314, -0.6861824043950279 
3.7800000000035525, -0.6832482067772736 
3.7900000000035736, -0.6804727050205015 
3.8000000000035947, -0.677945413778499 
3.810000000003616, -0.6757085012705615 
3.820000000003637, -0.67377468304408 
3.830000000003658, -0.6721428141750666 
3.840000000003679, -0.6708069177934316 
3.8500000000037002, -0.669759408353048 
3.8600000000037213, -0.6689908815864458 
3.8700000000037424, -0.6684887258690116 
3.8800000000037635, -0.6682361395766523 
3.8900000000037847, -0.66821237532165 
3.9000000000038058, -0.6683943261908177 
3.910000000003827, -0.6687590341127961 
3.920000000003848, -0.6692864162411577 
3.930000000003869, -0.669961417697304 
3.94000000000389, -0.6707747169099335 
3.9500000000039113, -0.6717209067042121 
3.9600000000039324, -0.6727930155227452 
3.9700000000039535, -0.6739731128631044 
3.9800000000039746, -0.6752213868128816 
3.9900000000039957, -0.6764699676647515 
4.000000000004016, -0.6776294139811265 
4.010000000003993, -0.6786100281765964 
4.02000000000397, -0.6793479732742826 
4.030000000003946, -0.679819797003466 
4.040000000003923, -0.6800379710900527 
4.0500000000039, -0.6800346772715944 
4.0600000000038765, -0.6798458476109999 
4.070000000003853, -0.6795021717301348 
4.08000000000383, -0.679027802230608 
4.090000000003807, -0.6784457023589114 
4.100000000003783, -0.6777900535741452 
4.11000000000376, -0.6771287707872691 
4.120000000003737, -0.6766013662918173 
4.130000000003713, -0.6764766459476238 
4.14000000000369, -0.6772248631678097 
4.150000000003667, -0.6795683640620156 
4.1600000000036434, -0.6844146952634462 
4.17000000000362, -0.6925249634010034 
4.180000000003597, -0.7038909809311437 
4.1900000000035735, -0.7172498797715816 
4.20000000000355, -0.7304721274564159 
4.210000000003527, -0.7417351565594629 
4.220000000003504, -0.7503056167868949 
4.23000000000348, -0.7563615406442504 
4.240000000003457, -0.7604480772837725 
4.250000000003434, -0.763119017810342 
4.26000000000341, -0.7648116322769656 
4.270000000003387, -0.7658352175138938 
4.280000000003364, -0.7663939309607837 
4.2900000000033405, -0.7666126301484046 
4.300000000003317, -0.7665560837832798 
4.310000000003294, -0.7662393226215681 
4.320000000003271, -0.7656289499383873 
4.330000000003247, -0.7646358616806296 
4.340000000003224, -0.7631017194093952 
4.350000000003201, -0.7607880412715415 
4.360000000003177, -0.7573907166348659 
4.370000000003154, -0.7526167045857199 
4.380000000003131, -0.7463406482858211 
4.390000000003107, -0.738772970210127 
4.400000000003084, -0.7304867804327688 
4.410000000003061, -0.7222319158153054 
4.4200000000030375, -0.714669039376667 
4.430000000003014, -0.7082098908533948 
4.440000000002991, -0.7030087866018395 
4.450000000002968, -0.6990340716929275 
4.460000000002944, -0.6961474418264492 
4.470000000002921, -0.6941625531563609 
4.480000000002898, -0.6928824446929359 
4.490000000002874, -0.6921223885867233 
4.500000000002851, -0.6917229580052731 
4.510000000002828, -0.6915556487649331 
4.520000000002804, -0.6915226533054746 
4.530000000002781, -0.691552736367558 
4.540000000002758, -0.6915955011358647 
4.5500000000027345, -0.6916161630659902 
4.560000000002711, -0.6915922729056223 
4.570000000002688, -0.6915126992151255 
4.580000000002665, -0.6913776567817539 
4.590000000002641, -0.6911973061052713 
4.600000000002618, -0.6909868630571226 
4.610000000002595, -0.6907588807220455 
4.620000000002571, -0.6905164685312026 
4.630000000002548, -0.6902516029297375 
4.640000000002525, -0.6899496219068489 
4.6500000000025015, -0.6895970112659621 
4.660000000002478, -0.6891880531907286 
4.670000000002455, -0.6887279040896789 
4.6800000000024315, -0.6882329689343152 
4.690000000002408, -0.6877311153950245 
4.700000000002385, -0.6872637163397946 
4.710000000002362, -0.6868900159682827 
4.720000000002338, -0.686692995669864 
4.730000000002315, -0.6867850389493083 
4.740000000002292, -0.687311236666234 
4.750000000002268, -0.6884481641043416 
4.760000000002245, -0.6903962047801516 
4.770000000002222, -0.6933631868438586 
4.7800000000021985, -0.6975351672755553 
4.790000000002175, -0.7030270721922226 
4.800000000002152, -0.7098067668198798 
4.810000000002129, -0.7176033218816793 
4.820000000002105, -0.7258535048924889 
4.830000000002082, -0.7337794163670874 
4.840000000002059, -0.7406335518928389 
4.850000000002035, -0.7459757728135872 
4.860000000002012, -0.7497696638322568 
4.870000000001989, -0.7522589681650896 
4.880000000001965, -0.753775491000573 
4.890000000001942, -0.754611792304371 
4.900000000001919, -0.7549776717292552 
4.9100000000018955, -0.7550028458854915 
4.920000000001872, -0.754752142106526 
