t, s[1].omega / s[0].omega 
0, -1.0699911955395593 
0.009999999999999995, -1.0690065348951874 
0.019999999999999934, -1.067815855044286 
0.029999999999999874, -1.0664195958563523 
0.04000000000000012, -1.0648181420382041 
0.050000000000000405, -1.0630119119144354 
0.06000000000000069, -1.0610014774427854 
0.07000000000000098, -1.0587877088878062 
0.08000000000000126, -1.0563719366180988 
0.09000000000000155, -1.0537561221252632 
0.10000000000000184, -1.0509430305665617 
0.11000000000000212, -1.0479363978243774 
0.12000000000000241, -1.0447410861186504 
0.130000000000002, -1.0413632234367123 
0.1400000000000009, -1.0378103232842428 
0.1499999999999998, -1.0340913823557545 
0.1599999999999987, -1.030216954557983 
0.1699999999999976, -1.0261992003360694 
0.1799999999999965, -1.0220519104543848 
0.1899999999999954, -1.0177905033343533 
0.1999999999999943, -1.0134319948603872 
0.2099999999999932, -1.0089949393691777 
0.2199999999999921, -1.0044993404776992 
0.229999999999991, -0.9999665306024372 
0.2399999999999899, -0.9954190185565126 
0.2499999999999888, -0.9908803055062864 
0.2599999999999877, -0.9863746707854739 
0.2699999999999866, -0.9819269305023883 
0.2799999999999855, -0.9775621733854993 
0.2899999999999844, -0.9733054797164117 
0.2999999999999833, -0.9691816303171714 
0.3099999999999822, -0.9652148132359992 
0.3199999999999811, -0.9614283359079832 
0.32999999999998, -0.9578443501197398 
0.3399999999999789, -0.9544835961212735 
0.3499999999999778, -0.9513651708180697 
0.35999999999997667, -0.9485063233126165 
0.36999999999997557, -0.9459222793499548 
0.37999999999997447, -0.9436260946620948 
0.38999999999997337, -0.9416285359805008 
0.39999999999997227, -0.9399379877219685 
0.40999999999997117, -0.9385603821110156 
0.41999999999997006, -0.9374991507664191 
0.42999999999996896, -0.9367551964650799 
0.43999999999996786, -0.9363268847600562 
0.44999999999996676, -0.9362100561913701 
0.45999999999996566, -0.9363980607962349 
0.46999999999996456, -0.9368818173216281 
0.47999999999996346, -0.9376498998260399 
0.48999999999996235, -0.9386886541444948 
0.49999999999996125, -0.939982345964582 
0.5099999999999602, -0.9415133410743499 
0.519999999999959, -0.943262316811795 
0.529999999999958, -0.9452085020345746 
0.5399999999999568, -0.9473299412278917 
0.5499999999999557, -0.9496037768691874 
0.5599999999999546, -0.952006543036304 
0.5699999999999535, -0.9545144626001013 
0.5799999999999524, -0.9571037402402105 
0.5899999999999513, -0.9597508439527591 
0.5999999999999502, -0.9624327686065695 
0.6099999999999491, -0.9651272763234469 
0.619999999999948, -0.9678131098507092 
0.6299999999999469, -0.9704701764935372 
0.6399999999999458, -0.973079701428885 
0.6499999999999447, -0.9756243502139279 
0.6599999999999436, -0.9780883209616814 
0.6699999999999425, -0.9804574069721527 
0.6799999999999414, -0.982719030622721 
0.6899999999999403, -0.9848622491280097 
0.6999999999999392, -0.9868777325027054 
0.7099999999999381, -0.9887577138411208 
0.719999999999937, -0.9904959119986797 
0.7299999999999359, -0.9920874270293387 
0.7399999999999348, -0.9935286093601183 
0.7499999999999337, -0.9948169046723588 
0.7599999999999326, -0.9959506777503158 
0.7699999999999315, -0.9969290200358216 
0.7799999999999304, -0.9977515471345315 
0.7899999999999293, -0.9984181938739128 
0.7999999999999282, -0.9989290155360757 
0.8099999999999271, -0.9992840044251471 
0.819999999999926, -0.9994829308686644 
0.8299999999999249, -0.9995252170425248 
0.8399999999999238, -0.9994098506596902 
0.8499999999999227, -0.9991353436465935 
0.8599999999999216, -0.9986997385758152 
0.8699999999999205, -0.9981006630011013 
0.8799999999999194, -0.9973354291532603 
0.8899999999999183, -0.996401173917962 
0.8999999999999172, -0.9952950318387115 
0.9099999999999161, -0.9940143322536021 
0.919999999999915, -0.9925568107198419 
0.9299999999999139, -0.9909208246779636 
0.9399999999999128, -0.9891055638538958 
0.9499999999999117, -0.9871112471073846 
0.9599999999999106, -0.9849392991530527 
0.9699999999999095, -0.9825925025951413 
0.9799999999999084, -0.9800751227914424 
0.9899999999999073, -0.9773930049639248 
0.9999999999999062, -0.9745536445059431 
1.0099999999999052, -0.9715662324612009 
1.019999999999904, -0.9684416786044183 
1.029999999999903, -0.9651926144515368 
1.039999999999902, -0.9618333779518714 
1.0499999999999008, -0.9583799807036094 
1.0599999999998997, -0.9548500574588852 
1.0699999999998986, -0.9512627966286462 
1.0799999999998975, -0.9476388496341261 
1.0899999999998964, -0.9440002164270529 
1.0999999999998953, -0.9403701044187989 
1.1099999999998942, -0.9367727584718967 
1.119999999999893, -0.9332332605118324 
1.129999999999892, -0.9297772986527241 
1.1399999999998909, -0.9264309073869559 
1.1499999999998898, -0.9232201822158524 
1.1599999999998887, -0.9201709739214667 
1.1699999999998876, -0.9173085693180157 
1.1799999999998865, -0.914657366609098 
1.1899999999998854, -0.9122405542802936 
1.1999999999998843, -0.9100798026912731 
1.2099999999998832, -0.90819497717059 
1.219999999999882, -0.9066038804940695 
1.229999999999881, -0.9053220312342442 
1.2399999999998799, -0.9043624827378594 
1.2499999999998788, -0.9037356855828744 
1.2599999999998777, -0.9034493944558075 
1.2699999999998766, -0.9035086186338706 
1.2799999999998755, -0.9039156137856589 
1.2899999999998744, -0.9046699117105707 
1.2999999999998733, -0.9057683839644677 
1.3099999999998722, -0.9072053350628705 
1.319999999999871, -0.9089726210640581 
1.32999999999987, -0.9110597897284091 
1.3399999999998689, -0.9134542390195108 
1.3499999999998678, -0.9161413913402544 
1.3599999999998666, -0.919104881472253 
1.3699999999998655, -0.9223267566168507 
1.3799999999998644, -0.9257876871572034 
1.3899999999998633, -0.9294671867449693 
1.3999999999998622, -0.9333438400707197 
1.4099999999998611, -0.9373955362461552 
1.41999999999986, -0.9415997051766638 
1.429999999999859, -0.9459335537172464 
1.4399999999998578, -0.9503742978683055 
1.4499999999998567, -0.9548993868555232 
1.4599999999998556, -0.9594867147053782 
1.4699999999998545, -0.9641148149051736 
1.4799999999998534, -0.9687630339276229 
1.4899999999998523, -0.9734116797863699 
1.4999999999998512, -0.9780421423366018 
1.5099999999998501, -0.982636982704393 
1.519999999999849, -0.9871799899835864 
1.529999999999848, -0.9916562041544417 
1.5399999999998468, -0.996051905042649 
1.5499999999998457, -1.000354568052378 
1.5599999999998446, -1.0045527883824568 
1.5699999999998435, -1.0086361764796667 
1.5799999999998424, -1.0125952285962316 
1.5899999999998413, -1.016421177479408 
1.5999999999998402, -1.0201058293838206 
1.6099999999998391, -1.0236413946885423 
1.619999999999838, -1.0270203203235815 
1.629999999999837, -1.030235132850966 
1.6399999999998358, -1.0332783012866202 
1.6499999999998347, -1.0361421284844452 
1.6599999999998336, -1.03881867905428 
1.6699999999998325, -1.0412997503144676 
1.6799999999998314, -1.043576890707492 
1.6899999999998303, -1.0456414675192707 
1.6999999999998292, -1.0474847827936284 
1.709999999999828, -1.0490982332416043 
1.719999999999827, -1.0504735069778006 
1.729999999999826, -1.051602807363355 
1.7399999999998248, -1.0524790923765712 
1.7499999999998237, -1.0530963169957386 
1.7599999999998226, -1.0534496662026365 
1.7699999999998215, -1.0535357674191084 
1.7799999999998204, -1.0533528733598136 
1.7899999999998193, -1.0529010091842619 
1.7999999999998182, -1.0521820811268812 
1.809999999999817, -1.0511999470913305 
1.819999999999816, -1.0499604526341375 
1.8299999999998149, -1.0484714380080304 
1.8399999999998138, -1.0467427232582232 
1.8499999999998127, -1.0447860786563317 
1.8599999999998116, -1.0426151870313727 
1.8699999999998105, -1.0402456029425586 
1.8799999999998094, -1.0376947113496795 
1.8899999999998083, -1.0349816857489624 
1.8999999999998072, -1.0321274429610638 
1.909999999999806, -1.029154589193242 
1.919999999999805, -1.0260873499414962 
1.9299999999998039, -1.0229514750036945 
1.9399999999998028, -1.0197741095375055 
1.9499999999998017, -1.0165836228372596 
1.9599999999998006, -1.0134093883476907 
1.9699999999997995, -1.0102815112974535 
1.9799999999997984, -1.0072305040233513 
1.9899999999997973, -1.0042869132586263 
1.9999999999997962, -1.0014809079769817 
2.0099999999998173, -0.9988418403671904 
2.0199999999998384, -0.996397795709681 
2.0299999999998595, -0.9941751489434159 
2.0399999999998806, -0.9921981462727176 
2.0499999999999017, -0.9904885291551965 
2.059999999999923, -0.9890652155054683 
2.069999999999944, -0.9879440491996758 
2.079999999999965, -0.9871376243787493 
2.089999999999986, -0.986655186127494 
2.100000000000007, -0.9865026043837981 
2.1100000000000283, -0.9866824138974669 
2.1200000000000494, -0.9871939100953767 
2.1300000000000705, -0.9880332890523208 
2.1400000000000916, -0.98919381947508 
2.1500000000001127, -0.9906660355699101 
2.160000000000134, -0.9924379416236949 
2.170000000000155, -0.9944952217255005 
2.180000000000176, -0.9968214508768444 
2.190000000000197, -0.999398306380559 
2.2000000000002182, -1.0022057805135356 
2.2100000000002393, -1.0052223968327934 
2.2200000000002604, -1.0084254329199611 
2.2300000000002815, -1.0117911519543654 
2.2400000000003026, -1.0152950443614643 
2.2500000000003237, -1.0189120791479238 
2.260000000000345, -1.0226169626967452 
2.270000000000366, -1.0263844010505678 
2.280000000000387, -1.0301893603133268 
2.290000000000408, -1.0340073189289165 
2.3000000000004293, -1.03781450533294 
2.3100000000004504, -1.0415881148036448 
2.3200000000004715, -1.0453065001603918 
2.3300000000004926, -1.0489493321152195 
2.3400000000005137, -1.0524977263961626 
2.3500000000005348, -1.0559343360626987 
2.360000000000556, -1.0592434085966986 
2.370000000000577, -1.0624108083057044 
2.380000000000598, -1.0654240053093096 
2.390000000000619, -1.0682720329366224 
2.4000000000006403, -1.0709454158213505 
2.4100000000006614, -1.0734360714312885 
2.4200000000006825, -1.0757371882900748 
2.4300000000007036, -1.0778430847880827 
2.4400000000007247, -1.0797490532386418 
2.450000000000746, -1.0814511946684262 
2.460000000000767, -1.0829462506461662 
2.470000000000788, -1.0842314391311398 
2.480000000000809, -1.085304301731015 
2.49000000000083, -1.0861625697779116 
2.5000000000008513, -1.0868040561745016 
2.5100000000008724, -1.0872265789896862 
2.5200000000008935, -1.0874279213155122 
2.5300000000009146, -1.0874058300136944 
2.5400000000009357, -1.0871580538168932 
2.550000000000957, -1.0866824189841027 
2.560000000000978, -1.0859769385419074 
2.570000000000999, -1.0850399492745364 
2.58000000000102, -1.0838702692311375 
2.5900000000010412, -1.0824673677251453 
2.6000000000010624, -1.0808315396668013 
2.6100000000010835, -1.0789640765757185 
2.6200000000011046, -1.0768674276673165 
2.6300000000011257, -1.0745453458296665 
2.6400000000011468, -1.0720030148964967 
2.650000000001168, -1.069247156154947 
2.660000000001189, -1.06628611329918 
2.67000000000121, -1.063129915898226 
2.680000000001231, -1.0597903218047684 
2.6900000000012523, -1.056280838789649 
2.7000000000012734, -1.0526167251250524 
2.7100000000012945, -1.048814968007422 
2.7200000000013156, -1.0448942378065469 
2.7300000000013367, -1.0408748153677538 
2.740000000001358, -1.0367784891865628 
2.750000000001379, -1.032628419385769 
2.7600000000014, -1.028448966152513 
2.770000000001421, -1.0242654816494368 
2.780000000001442, -1.0201040663158452 
2.7900000000014633, -1.0159912927454824 
2.8000000000014844, -1.0119539027163291 
2.8100000000015055, -1.0080184851599179 
2.8200000000015266, -1.0042111445958513 
2.8300000000015477, -1.0005571705666885 
2.840000000001569, -0.9970807187199785 
2.85000000000159, -0.9938045133448284 
2.860000000001611, -0.9907495794578326 
2.870000000001632, -0.987935010148861 
2.8800000000016532, -0.9853777721388957 
2.8900000000016743, -0.983092549720862 
2.9000000000016954, -0.9810916248021051 
2.9100000000017165, -0.9793847889452019 
2.9200000000017377, -0.9779792823192931 
2.9300000000017588, -0.9768797544120675 
2.94000000000178, -0.9760882421660151 
2.950000000001801, -0.9756041627222916 
2.960000000001822, -0.9754243199161333 
2.970000000001843, -0.9755429257462878 
2.9800000000018643, -0.9759516399023868 
2.9900000000018854, -0.9766396317777366 
3.0000000000019065, -0.9775936699943525 
3.0100000000019276, -0.9787982442017975 
3.0200000000019487, -0.9802357227818869 
3.03000000000197, -0.9818865482191844 
3.040000000001991, -0.9837294695066164 
3.050000000002012, -0.9857418083418501 
3.060000000002033, -0.9878997533566443 
3.070000000002054, -0.9901786745140218 
3.0800000000020753, -0.9925534483518023 
3.0900000000020964, -0.9949987840976086 
3.1000000000021175, -0.9974895408708147 
3.1100000000021386, -1.000001027151058 
3.1200000000021597, -1.0025092752662543 
3.130000000002181, -1.0049912856058185 
3.140000000002202, -1.0074252373384953 
3.150000000002223, -1.0097906643597727 
3.160000000002244, -1.012068596804402 
3.1700000000022652, -1.0142416695951404 
3.1800000000022863, -1.0162942000998503 
3.1900000000023074, -1.0182122370579278 
3.2000000000023285, -1.0199835826098087 
3.2100000000023496, -1.0215977886724614 
3.2200000000023707, -1.0230461282347578 
3.230000000002392, -1.024321541590913 
3.240000000002413, -1.025418557258212 
3.250000000002434, -1.0263331874611874 
3.260000000002455, -1.027062798667472 
3.2700000000024763, -1.0276059587143473 
3.2800000000024974, -1.0279622634778256 
3.2900000000025185, -1.0281321476522223 
3.3000000000025396, -1.0281166858288233 
3.3100000000025607, -1.0279173914738684 
3.3200000000025818, -1.0275360224094685 
3.330000000002603, -1.026974401839376 
3.340000000002624, -1.026234263739866 
3.350000000002645, -1.0253171305323758 
3.360000000002666, -1.0242242294209676 
3.3700000000026873, -1.0229564517309986 
3.3800000000027084, -1.021514357193506 
3.3900000000027295, -1.0198982225821505 
3.4000000000027506, -1.0181081316368983 
3.4100000000027717, -1.0161441010025836 
3.420000000002793, -1.0140062351444488 
3.430000000002814, -1.0116949020048123 
3.440000000002835, -1.0092109206052853 
3.450000000002856, -1.006555751881951 
3.460000000002877, -1.0037316847047129 
3.4700000000028983, -1.0007420101563156 
3.4800000000029194, -0.9975911785675953 
3.4900000000029405, -0.9942849353381169 
3.5000000000029616, -0.9908304330335038 
3.5100000000029827, -0.9872363184879391 
3.520000000003004, -0.9835127945448795 
3.530000000003025, -0.9796716565922884 
3.540000000003046, -0.9757263042037694 
3.550000000003067, -0.9716917280526097 
3.5600000000030882, -0.9675844719327426 
3.5700000000031094, -0.9634225693335358 
3.5800000000031305, -0.9592254537116341 
3.5900000000031516, -0.9550138415038981 
3.6000000000031727, -0.9508095871182798 
3.6100000000031938, -0.9466355096669579 
3.620000000003215, -0.9425151920596196 
3.630000000003236, -0.9384727541959383 
3.640000000003257, -0.9345326032833796 
3.650000000003278, -0.9307191656278967 
3.6600000000032993, -0.9270566054559826 
3.6700000000033204, -0.9235685372881933 
3.6800000000033415, -0.9202777389821565 
3.6900000000033626, -0.9172058727227352 
3.7000000000033837, -0.9143732209334129 
3.710000000003405, -0.9117984433441532 
3.720000000003426, -0.909498360353654 
3.730000000003447, -0.9074877664826125 
3.740000000003468, -0.9057792762667496 
3.750000000003489, -0.9043832035256365 
3.7600000000035103, -0.9033074736948802 
3.7700000000035314, -0.9025575679256145 
3.7800000000035525, -0.9021364969987467 
3.7900000000035736, -0.9020448027899726 
3.8000000000035947, -0.9022805850300939 
3.810000000003616, -0.9028395513706053 
3.820000000003637, -0.9037150891963155 
3.830000000003658, -0.9048983581194967 
3.840000000003679, -0.9063784025371712 
3.8500000000037002, -0.9081422839407673 
3.8600000000037213, -0.9101752327657412 
3.8700000000037424, -0.9124608194202976 
3.8800000000037635, -0.914981143736093 
3.8900000000037847, -0.9177170414744396 
3.9000000000038058, -0.9206483057641822 
3.910000000003827, -0.9237539205281452 
3.920000000003848, -0.9270123021688453 
3.930000000003869, -0.9304015451214825 
3.94000000000389, -0.9338996664167161 
3.9500000000039113, -0.937484844174463 
3.9600000000039324, -0.941135644988127 
3.9700000000039535, -0.9448312354392272 
3.9800000000039746, -0.9485515734609266 
3.9900000000039957, -0.9522775758829679 
4.000000000004016, -0.9559912591709976 
4.010000000003993, -0.9596758510576662 
4.02000000000397, -0.9633158714057132 
4.030000000003946, -0.9668971812240835 
4.040000000003923, -0.9704069992841153 
4.0500000000039, -0.9738338862865545 
4.0600000000038765, -0.9771676970616762 
4.070000000003853, -0.9803995019003635 
4.08000000000383, -0.9835214788626949 
4.090000000003807, -0.9865267798207199 
4.100000000003783, -0.9894093740610164 
4.11000000000376, -0.9921638744603843 
4.120000000003737, -0.9947853524773121 
4.130000000003713, -0.9972691493637755 
4.14000000000369, -0.9996106919667733 
4.150000000003667, -1.0018053221212209 
4.1600000000036434, -1.0038481488098543 
4.17000000000362, -1.005733931882343 
4.180000000003597, -1.0074570051257152 
4.1900000000035735, -1.0090112448538764 
4.20000000000355, -1.010390087986729 
4.210000000003527, -1.0115866009326084 
4.220000000003504, -1.0125935976446303 
4.23000000000348, -1.013403802216073 
4.240000000003457, -1.0140100485699484 
4.250000000003434, -1.0144055074504614 
4.26000000000341, -1.0145839292837773 
4.270000000003387, -1.0145398907304577 
4.280000000003364, -1.0142690330020132 
4.2900000000033405, -1.013768281248586 
4.300000000003317, -1.0130360364157756 
4.310000000003294, -1.0120723336818125 
4.320000000003271, -1.0108789646103156 
4.330000000003247, -1.0094595631432408 
4.340000000003224, -1.0078196581806418 
4.350000000003201, -1.0059666974737156 
4.360000000003177, -1.0039100487109909 
4.370000000003154, -1.0016609839279338 
4.380000000003131, -0.999232652749791 
4.390000000003107, -0.9966400486127961 
4.400000000003084, -0.993899970198529 
4.410000000003061, -0.9910309781034179 
4.4200000000030375, -0.9880533445113591 
4.430000000003014, -0.9849889915979494 
4.440000000002991, -0.9818614128006662 
4.450000000002968, -0.9786955701306537 
4.460000000002944, -0.9755177605147084 
4.470000000002921, -0.9723554448122513 
4.480000000002898, -0.9692370346491137 
4.490000000002874, -0.9661916344667839 
4.500000000002851, -0.9632487390421145 
4.510000000002828, -0.9604378899572226 
4.520000000002804, -0.9577882978068015 
4.530000000002781, -0.9553284400062008 
4.540000000002758, -0.9530856465987627 
4.5500000000027345, -0.9510856881857181 
4.560000000002711, -0.9493523808216408 
4.570000000002688, -0.947907222339313 
4.580000000002665, -0.9467690731111764 
4.590000000002641, -0.9459538918565856 
4.600000000002618, -0.9454745339993362 
4.610000000002595, -0.9453406165729576 
4.620000000002571, -0.9455584500986962 
4.630000000002548, -0.9461310345515077 
4.640000000002525, -0.947058113765106 
4.6500000000025015, -0.948336280614375 
4.660000000002478, -0.9499591241626713 
4.670000000002455, -0.9519174096809259 
4.6800000000024315, -0.954199282947123 
4.690000000002408, -0.956790491351345 
4.700000000002385, -0.9596746158425209 
4.710000000002362, -0.9628333094138574 
4.720000000002338, -0.9662465393986764 
4.730000000002315, -0.9698928321374225 
4.740000000002292, -0.9737495194398301 
4.750000000002268, -0.9777929866363936 
4.760000000002245, -0.9819989218992452 
4.770000000002222, -0.9863425659921914 
4.7800000000021985, -0.9907989608126705 
4.790000000002175, -0.9953431941736204 
4.800000000002152, -0.9999506374020595 
4.810000000002129, -1.004597171643899 
4.820000000002105, -1.0092593983611082 
4.830000000002082, -1.0139148294378386 
4.840000000002059, -1.0185420525758615 
4.850000000002035, -1.023120868213828 
4.860000000002012, -1.0276323949795103 
4.870000000001989, -1.0320591415998621 
4.880000000001965, -1.0363850441781348 
4.890000000001942, -1.0405954687474142 
4.900000000001919, -1.0446771799974717 
4.9100000000018955, -1.0486182780415052 
4.920000000001872, -1.0524081060506978 
