t, s[1].omega / s[0].omega 
0, -1.149998100523694 
0.009999999999999995, -1.1496760542189455 
0.019999999999999934, -1.1490977811708727 
0.029999999999999874, -1.1482999429209224 
0.04000000000000012, -1.1473822286451454 
0.050000000000000405, -1.146504071827878 
0.06000000000000069, -1.1458457734499032 
0.07000000000000098, -1.1455353035658205 
0.08000000000000126, -1.1455048271318626 
0.09000000000000155, -1.1454990752414276 
0.10000000000000184, -1.145257890381372 
0.11000000000000212, -1.1445701325983009 
0.12000000000000241, -1.1432796275501962 
0.130000000000002, -1.1413524503721646 
0.1400000000000009, -1.138873073283125 
0.1499999999999998, -1.1359773819537866 
0.1599999999999987, -1.1329091098982764 
0.1699999999999976, -1.1302011619869943 
0.1799999999999965, -1.1285498138270404 
0.1899999999999954, -1.128035939296381 
0.1999999999999943, -1.128001825915506 
0.2099999999999932, -1.127859434556356 
0.2199999999999921, -1.1272383513411193 
0.229999999999991, -1.1256012250075351 
0.2399999999999899, -1.1219670373187651 
0.2499999999999888, -1.115227404168163 
0.2599999999999877, -1.1051297355915475 
0.2699999999999866, -1.0928286920745638 
0.2799999999999855, -1.080961882564373 
0.2899999999999844, -1.0730635844242518 
0.2999999999999833, -1.070240763310918 
0.3099999999999822, -1.0700443050972632 
0.3199999999999811, -1.0702678931986498 
0.32999999999998, -1.070190037565421 
0.3399999999999789, -1.0695217511802342 
0.3499999999999778, -1.0675683539098646 
0.35999999999997667, -1.0623539332316678 
0.36999999999997557, -1.0498236989398975 
0.37999999999997447, -1.0262423790902555 
0.38999999999997337, -0.9947870109458998 
0.39999999999997227, -0.9660359194259488 
0.40999999999997117, -0.9488552092302488 
0.41999999999997006, -0.9428307652699164 
0.42999999999996896, -0.9420165402308573 
0.43999999999996786, -0.9423417025994879 
0.44999999999996676, -0.9425312747118286 
0.45999999999996566, -0.9423208305054905 
0.46999999999996456, -0.9414649608787353 
0.47999999999996346, -0.9392882386428286 
0.48999999999996235, -0.9344162747867085 
0.49999999999996125, -0.9254507393041433 
0.5099999999999602, -0.9129633487199325 
0.519999999999959, -0.8996448696525401 
0.529999999999958, -0.8881230532856601 
0.5399999999999568, -0.8799702546022782 
0.5499999999999557, -0.8755405372949652 
0.5599999999999546, -0.873894768547637 
0.5699999999999535, -0.8735852265771098 
0.5799999999999524, -0.8736095055693794 
0.5899999999999513, -0.8735205211644901 
0.5999999999999502, -0.8730982192832382 
0.6099999999999491, -0.8721233512976964 
0.619999999999948, -0.8703980927115064 
0.6299999999999469, -0.8679732571936076 
0.6399999999999458, -0.8652047820407781 
0.6499999999999447, -0.8624631487266381 
0.6599999999999436, -0.8599554193119837 
0.6699999999999425, -0.8578019170116193 
0.6799999999999414, -0.856124212953489 
0.6899999999999403, -0.8550259318463649 
0.6999999999999392, -0.8545001835211044 
0.7099999999999381, -0.8543843431016315 
0.719999999999937, -0.8544426030021336 
0.7299999999999359, -0.8544786742362591 
0.7399999999999348, -0.8543767094344699 
0.7499999999999337, -0.8541049274796337 
0.7599999999999326, -0.8537056077684742 
0.7699999999999315, -0.8532376850708332 
0.7799999999999304, -0.8527180413201152 
0.7899999999999293, -0.8521385353117931 
0.7999999999999282, -0.8515252191404281 
0.8099999999999271, -0.8509685364509001 
0.819999999999926, -0.8506058639891028 
0.8299999999999249, -0.8505620595010608 
0.8399999999999238, -0.850884404843979 
0.8499999999999227, -0.8515289135971876 
0.8599999999999216, -0.85240186582736 
0.8699999999999205, -0.853415484596008 
0.8799999999999194, -0.8545133486048982 
0.8899999999999183, -0.8556345785912794 
0.8999999999999172, -0.8566450625005673 
0.9099999999999161, -0.8573546304509947 
0.919999999999915, -0.8576586080826278 
0.9299999999999139, -0.8576064005893109 
0.9399999999999128, -0.8573341771225587 
0.9499999999999117, -0.8570487860125051 
0.9599999999999106, -0.8571278762375271 
0.9699999999999095, -0.8581678727821453 
0.9799999999999084, -0.860741438334047 
0.9899999999999073, -0.8650356658719484 
0.9999999999999062, -0.870825220687049 
1.0099999999999052, -0.8776226911908167 
1.019999999999904, -0.8845585573222138 
1.029999999999903, -0.8903116528957606 
1.039999999999902, -0.8939351257416421 
1.0499999999999008, -0.8956455030092995 
1.0599999999998997, -0.8961991533204 
1.0699999999998986, -0.8961347139089753 
1.0799999999998975, -0.8957014460717364 
1.0899999999998964, -0.8951343060358177 
1.0999999999998953, -0.8953340439045412 
1.1099999999998942, -0.8992075568821914 
1.119999999999893, -0.9119696589231442 
1.129999999999892, -0.9367777297742075 
1.1399999999998909, -0.9689402091745749 
1.1499999999998898, -0.9974827326821466 
1.1599999999998887, -1.0147616282782164 
1.1699999999998876, -1.0223159440343823 
1.1799999999998865, -1.0249945186770768 
1.1899999999998854, -1.0257408794236687 
1.1999999999998843, -1.0256767538336125 
1.2099999999998832, -1.0251385488915956 
1.219999999999882, -1.024387463247766 
1.229999999999881, -1.024799100613553 
1.2399999999998799, -1.0306209286956365 
1.2499999999998788, -1.0462457145742223 
1.2599999999998777, -1.0688499664868907 
1.2699999999998766, -1.0905153175792832 
1.2799999999998755, -1.1056100770120547 
1.2899999999998744, -1.113465131926565 
1.2999999999998733, -1.116646993626895 
1.3099999999998722, -1.1176446950511936 
1.319999999999871, -1.1177154466694907 
1.32999999999987, -1.11736098842433 
1.3399999999998689, -1.116996796301557 
1.3499999999998678, -1.117585242804745 
1.3599999999998666, -1.1203206173913383 
1.3699999999998655, -1.124976059794097 
1.3799999999998644, -1.1301544583012189 
1.3899999999998633, -1.1348272150307466 
1.3999999999998622, -1.1385045182890543 
1.4099999999998611, -1.1409488952583053 
1.41999999999986, -1.1422050226047422 
1.429999999999859, -1.1425900107389346 
1.4399999999998578, -1.1424634915675431 
1.4499999999998567, -1.1421292910399314 
1.4599999999998556, -1.1419417151239422 
1.4699999999998545, -1.1422534669327986 
1.4799999999998534, -1.143089184801269 
1.4899999999998523, -1.1441695920414605 
1.4999999999998512, -1.1452267693270728 
1.5099999999998501, -1.1461048267551555 
1.519999999999849, -1.146729125571473 
1.529999999999848, -1.1470597136186518 
1.5399999999998468, -1.147068703784318 
1.5499999999998457, -1.1467666177525064 
1.5599999999998446, -1.1462343026424588 
1.5699999999998435, -1.14562619495398 
1.5799999999998424, -1.1451277403932516 
1.5899999999998413, -1.144865358227829 
1.5999999999998402, -1.1448603683456422 
1.6099999999998391, -1.1450088535892655 
1.619999999999838, -1.1451133209001407 
1.629999999999837, -1.1449912577702221 
1.6399999999998358, -1.144529749819608 
1.6499999999998347, -1.1436957587977647 
1.6599999999998336, -1.1425194303837165 
1.6699999999998325, -1.1410525377411183 
1.6799999999998314, -1.139370229990354 
1.6899999999998303, -1.137628216391903 
1.6999999999998292, -1.1361262326755062 
1.709999999999828, -1.1352196800931118 
1.719999999999827, -1.1349368387776435 
1.729999999999826, -1.1348935751942888 
1.7399999999998248, -1.134689568141814 
1.7499999999998237, -1.1340045320878294 
1.7599999999998226, -1.1324375202830028 
1.7699999999998215, -1.129542354121369 
1.7799999999998204, -1.1251359301690531 
1.7899999999998193, -1.1194466156486333 
1.7999999999998182, -1.113035330025825 
1.809999999999817, -1.107011575852599 
1.819999999999816, -1.1029983861925148 
1.8299999999998149, -1.1015547889077946 
1.8399999999998138, -1.1014585612032204 
1.8499999999998127, -1.1015115422989898 
1.8599999999998116, -1.1012205783762588 
1.8699999999998105, -1.1001850807787186 
1.8799999999998094, -1.0974310839744046 
1.8899999999998083, -1.090825756764853 
1.8999999999998072, -1.0776340299478948 
1.909999999999806, -1.0574891738566434 
1.919999999999805, -1.0346669214873718 
1.9299999999998039, -1.0164327082014932 
1.9399999999998028, -1.0074517151820097 
1.9499999999998017, -1.0053563519067898 
1.9599999999998006, -1.0055267398966876 
1.9699999999997995, -1.0058089894116826 
1.9799999999997984, -1.0057157676102815 
1.9899999999997973, -1.0050193629174105 
1.9999999999997962, -1.003060556090361 
2.0099999999998173, -0.9980779028084117 
2.0199999999998384, -0.9869373860075186 
2.0299999999998595, -0.9677415567655487 
2.0399999999998806, -0.9439049557769228 
2.0499999999999017, -0.9222578181008831 
2.059999999999923, -0.9078875839480306 
2.069999999999944, -0.9013647730058578 
2.079999999999965, -0.8996341289689079 
2.089999999999986, -0.8995763892770288 
2.100000000000007, -0.8997219511595956 
2.1100000000000283, -0.8996257782341451 
2.1200000000000494, -0.899074892538497 
2.1300000000000705, -0.8977108903707498 
2.1400000000000916, -0.8949653708218849 
2.1500000000001127, -0.8904910752581889 
2.160000000000134, -0.8847791711771489 
2.170000000000155, -0.8788377131674231 
2.180000000000176, -0.8734380030257971 
2.190000000000197, -0.8690302507025276 
2.2000000000002182, -0.8659147317184285 
2.2100000000002393, -0.8641655116110996 
2.2200000000002604, -0.8634827428265364 
2.2300000000002815, -0.863348544191789 
2.2400000000003026, -0.8633329746958776 
2.2500000000003237, -0.8631828401733519 
2.260000000000345, -0.8627459296791715 
2.270000000000366, -0.8619433305601193 
2.280000000000387, -0.8608239269262038 
2.290000000000408, -0.8595455506832097 
2.3000000000004293, -0.8582473642672344 
2.3100000000004504, -0.8569954238704565 
2.3200000000004715, -0.8558367649982191 
2.3300000000004926, -0.8548495704014807 
2.3400000000005137, -0.8541340056295766 
2.3500000000005348, -0.8537619798641471 
2.360000000000556, -0.8537270440857622 
2.370000000000577, -0.8539348228531489 
2.380000000000598, -0.8542508037058201 
2.390000000000619, -0.8545668582327651 
2.4000000000006403, -0.854835725521388 
2.4100000000006614, -0.8550564808984635 
2.4200000000006825, -0.8552189025542802 
2.4300000000007036, -0.8552661745468373 
2.4400000000007247, -0.8551373552220286 
2.450000000000746, -0.8548370208149304 
2.460000000000767, -0.8544552765548784 
2.470000000000788, -0.8541665030052734 
2.480000000000809, -0.8542147459506623 
2.49000000000083, -0.854823028042049 
2.5000000000008513, -0.856070847569214 
2.5100000000008724, -0.8578861167709766 
2.5200000000008935, -0.8601413806192069 
2.5300000000009146, -0.8627113913812969 
2.5400000000009357, -0.8654113445647234 
2.550000000000957, -0.8678820822500253 
2.560000000000978, -0.8696848395585972 
2.570000000000999, -0.8706475939216987 
2.58000000000102, -0.8709375153247986 
2.5900000000010412, -0.8708020037927542 
2.6000000000010624, -0.8704480216971067 
2.6100000000010835, -0.8701967787239656 
2.6200000000011046, -0.8708548172525143 
2.6300000000011257, -0.8739575181426212 
2.6400000000011468, -0.8811056596973558 
2.650000000001168, -0.8926738179408277 
2.660000000001189, -0.907332019341992 
2.67000000000121, -0.9221969255358019 
2.680000000001231, -0.9336756197721902 
2.6900000000012523, -0.9401585491493714 
2.7000000000012734, -0.9429481108503782 
2.7100000000012945, -0.9438752958217353 
2.7200000000013156, -0.9439483808087354 
2.7300000000013367, -0.9435376563336958 
2.740000000001358, -0.9428059875284166 
2.750000000001379, -0.9424269818884272 
2.7600000000014, -0.945403727781041 
2.770000000001421, -0.9585542075018817 
2.780000000001442, -0.9867381283493825 
2.7900000000014633, -1.0231756805188315 
2.8000000000014844, -1.0537324961868986 
2.8100000000015055, -1.07106303361774 
2.8200000000015266, -1.0782762372863388 
2.8300000000015477, -1.0807392540412373 
2.840000000001569, -1.08137551922565 
2.85000000000159, -1.081252091240166 
2.860000000001611, -1.0807212018575378 
2.870000000001632, -1.0802443153139436 
2.8800000000016532, -1.0815152742133167 
2.8900000000016743, -1.0873761700861149 
2.9000000000016954, -1.0980066795218315 
2.9100000000017165, -1.110072859563043 
2.9200000000017377, -1.120497056361484 
2.9300000000017588, -1.127764936621677 
2.94000000000178, -1.13177216045085 
2.950000000001801, -1.1334715107875883 
2.960000000001822, -1.1339321786693541 
2.970000000001843, -1.1337992152564458 
2.9800000000018643, -1.1334494101952728 
2.9900000000018854, -1.1333808134040984 
3.0000000000019065, -1.1342706078304106 
3.0100000000019276, -1.13625945307921 
3.0200000000019487, -1.1387545289443066 
3.03000000000197, -1.1411784283305697 
3.040000000001991, -1.1432524409768285 
3.050000000002012, -1.1448402394370867 
3.060000000002033, -1.145847524736135 
3.070000000002054, -1.1462648478866664 
3.0800000000020753, -1.1462070257835368 
3.0900000000020964, -1.1458626603567108 
3.1000000000021175, -1.1454702740163791 
3.1100000000021386, -1.1452915672555184 
3.1200000000021597, -1.1454503304263894 
3.130000000002181, -1.1458645902010411 
3.140000000002202, -1.1463672730056058 
3.150000000002223, -1.1467902462901427 
3.160000000002244, -1.1470133045484463 
3.1700000000022652, -1.1469841062229642 
3.1800000000022863, -1.146694195788196 
3.1900000000023074, -1.1461481864072713 
3.2000000000023285, -1.1453699479957486 
3.2100000000023496, -1.1444366877097092 
3.2200000000023707, -1.14349173087738 
3.230000000002392, -1.1427174352651979 
3.240000000002413, -1.1422774675169578 
3.250000000002434, -1.1421749241554884 
3.260000000002455, -1.142185826009151 
3.2700000000024763, -1.142032824157005 
3.2800000000024974, -1.1414881603457907 
3.2900000000025185, -1.1403667607868346 
3.3000000000025396, -1.1385860422864793 
3.3100000000025607, -1.136203732612794 
3.3200000000025818, -1.1333495448700117 
3.330000000002603, -1.130224759500481 
3.340000000002624, -1.127267483453677 
3.350000000002645, -1.1251945247404262 
3.360000000002666, -1.1243610088215166 
3.3700000000026873, -1.1242534875508245 
3.3800000000027084, -1.1241921031555528 
3.3900000000027295, -1.123771078689322 
3.4000000000027506, -1.1225545999710693 
3.4100000000027717, -1.1197195885319355 
3.420000000002793, -1.1141272887592948 
3.430000000002814, -1.1051659537178502 
3.440000000002835, -1.0935313399471935 
3.450000000002856, -1.0813154579673374 
3.460000000002877, -1.0718724519273894 
3.4700000000028983, -1.0675059291191618 
3.4800000000029194, -1.0667251257323542 
3.4900000000029405, -1.0669300214198856 
3.5000000000029616, -1.066987194315637 
3.5100000000029827, -1.0665700343880744 
3.520000000003004, -1.065213292970003 
3.530000000003025, -1.0615496345023248 
3.540000000003046, -1.0524109249174205 
3.550000000003067, -1.0336974640146632 
3.5600000000030882, -1.0057182667748408 
3.5700000000031094, -0.9764475367089942 
3.5800000000031305, -0.9556793025463989 
3.5900000000031516, -0.9465057131469639 
3.6000000000031727, -0.9444582898605822 
3.6100000000031938, -0.9445954731065178 
3.620000000003215, -0.9448716561801426 
3.630000000003236, -0.944816535736785 
3.640000000003257, -0.9442349182841705 
3.650000000003278, -0.9426471132751062 
3.6600000000032993, -0.9389425437854623 
3.6700000000033204, -0.9315922606718341 
3.6800000000033415, -0.9203204573584786 
3.6900000000033626, -0.9072316723481444 
3.7000000000033837, -0.8950883259805211 
3.710000000003405, -0.8858073071854973 
3.720000000003426, -0.8802088363759498 
3.730000000003447, -0.8777963731876678 
3.740000000003468, -0.8771851102118212 
3.750000000003489, -0.8771696718238918 
3.7600000000035103, -0.8771466493001498 
3.7700000000035314, -0.8768542929017796 
3.7800000000035525, -0.876081146721919 
3.7900000000035736, -0.8745968034309676 
3.8000000000035947, -0.872337178732982 
3.810000000003616, -0.8695785572118906 
3.820000000003637, -0.8667305400403391 
3.830000000003658, -0.8640636011420237 
3.840000000003679, -0.8617208147895863 
3.8500000000037002, -0.8598268100066722 
3.8600000000037213, -0.8585046866136818 
3.8700000000037424, -0.8577925421962254 
3.8800000000037635, -0.857565868499405 
3.8900000000037847, -0.8575880817102317 
3.9000000000038058, -0.8576364893234308 
3.910000000003827, -0.8575661795550114 
3.920000000003848, -0.8573163563059533 
3.930000000003869, -0.8569095558161843 
3.94000000000389, -0.8564121595523976 
3.9500000000039113, -0.855863101850155 
3.9600000000039324, -0.8552611764835472 
3.9700000000039535, -0.854618614994968 
3.9800000000039746, -0.8540054436739233 
3.9900000000039957, -0.8535462652136969 
4.000000000004016, -0.8533711133021118 
4.010000000003993, -0.8535480291564408 
4.02000000000397, -0.8540533319461702 
4.030000000003946, -0.8547995437805227 
4.040000000003923, -0.855690587055341 
4.0500000000039, -0.8566617270969413 
4.0600000000038765, -0.8576666780420221 
4.070000000003853, -0.8586134892794721 
4.08000000000383, -0.8593377818830483 
4.090000000003807, -0.8597038585304658 
4.100000000003783, -0.8597128024519157 
4.11000000000376, -0.8594742054843909 
4.120000000003737, -0.8591656331966007 
4.130000000003713, -0.8590962504218851 
4.14000000000369, -0.8597670385861014 
4.150000000003667, -0.8617033264882716 
4.1600000000036434, -0.8651289318653159 
4.17000000000362, -0.8698950678637226 
4.180000000003597, -0.8756443320240107 
4.1900000000035735, -0.8817848861279887 
4.20000000000355, -0.8873062972252291 
4.210000000003527, -0.8911707523888864 
4.220000000003504, -0.8931982627436226 
4.23000000000348, -0.8939611157493493 
4.240000000003457, -0.894023405666216 
4.250000000003434, -0.8936838330940883 
4.26000000000341, -0.8931520474157949 
4.270000000003387, -0.8930532577475399 
4.280000000003364, -0.8954698359912402 
4.2900000000033405, -0.9045431324494146 
4.300000000003317, -0.9237462140602953 
4.310000000003294, -0.9510869243284946 
4.320000000003271, -0.9785410569079597 
4.330000000003247, -0.9977670221528416 
4.340000000003224, -1.0072871712166194 
4.350000000003201, -1.0109532224040592 
4.360000000003177, -1.012109537158723 
4.370000000003154, -1.0122445235902275 
4.380000000003131, -1.0118450343326668 
4.390000000003107, -1.0111056744295566 
4.400000000003084, -1.0108021812613202 
4.410000000003061, -1.0141108706885051 
4.4200000000030375, -1.0265098219277902 
4.430000000003014, -1.0486927374857271 
4.440000000002991, -1.073389987752829 
4.450000000002968, -1.0926980182650772 
4.460000000002944, -1.1037405432504768 
4.470000000002921, -1.108546705177623 
4.480000000002898, -1.1102166907176603 
4.490000000002874, -1.1105707695936704 
4.500000000002851, -1.1103399941534036 
4.510000000002828, -1.1098841287229781 
4.520000000002804, -1.1099046805810167 
4.530000000002781, -1.1118149195591793 
4.540000000002758, -1.1163216443693758 
4.5500000000027345, -1.1222179926504057 
4.560000000002711, -1.127973344909276 
4.570000000002688, -1.1327498441502428 
4.580000000002665, -1.1361406730777333 
4.590000000002641, -1.1380743863989489 
4.600000000002618, -1.1388601285161852 
4.610000000002595, -1.1389407057350247 
4.620000000002571, -1.1386676195512437 
4.630000000002548, -1.1383732164866942 
4.640000000002525, -1.1384800361521585 
4.6500000000025015, -1.1392324803809786 
4.660000000002478, -1.140430794368021 
4.670000000002455, -1.1417258010933147 
4.6800000000024315, -1.1428884079827915 
4.690000000002408, -1.1438069787719527 
4.700000000002385, -1.144423899984395 
4.710000000002362, -1.1446959423484626 
4.720000000002338, -1.1446121339037125 
4.730000000002315, -1.1442320408409512 
4.740000000002292, -1.143692844593449 
4.750000000002268, -1.1431892656705145 
4.760000000002245, -1.1428907204037202 
4.770000000002222, -1.1428538916959003 
4.7800000000021985, -1.1430193526573795 
4.790000000002175, -1.1432274660430803 
4.800000000002152, -1.143292397958353 
4.810000000002129, -1.1430838343541356 
4.820000000002105, -1.1425483325997237 
4.830000000002082, -1.1416961769775844 
4.840000000002059, -1.140563751556112 
4.850000000002035, -1.1392013554998779 
4.860000000002012, -1.1377098597055395 
4.870000000001989, -1.1362874359036743 
4.880000000001965, -1.1352332961868155 
4.890000000001942, -1.1347497234157584 
4.900000000001919, -1.134660853558833 
4.9100000000018955, -1.1345827331720941 
4.920000000001872, -1.134195173335635 
4.930000000001849, -1.1331897813915643 
