t, s[1].omega / s[0].omega 
0, -1.0099972523201173 
0.009999999999999995, -1.0096649506128217 
0.019999999999999934, -1.0094388911013894 
0.029999999999999874, -1.0091095396152223 
0.04000000000000012, -1.0088586171333809 
0.050000000000000405, -1.008544067608283 
0.06000000000000069, -1.0082565553550555 
0.07000000000000098, -1.007963929641306 
0.08000000000000126, -1.007636566771728 
0.09000000000000155, -1.0073665989015428 
0.10000000000000184, -1.0070063936415936 
0.11000000000000212, -1.0067519591978904 
0.12000000000000241, -1.006373816869092 
0.130000000000002, -1.0061194543598877 
0.1400000000000009, -1.0057414673136578 
0.1499999999999998, -1.0054671320062127 
0.1599999999999987, -1.0051064157501841 
0.1699999999999976, -1.0047953198667385 
0.1799999999999965, -1.0044638744661774 
0.1899999999999954, -1.0041093364938027 
0.1999999999999943, -1.003810753285221 
0.2099999999999932, -1.0034190848764037 
0.2199999999999921, -1.003145886360019 
0.229999999999991, -1.0027347284649866 
0.2399999999999899, -1.002467443697841 
0.2499999999999888, -1.0020595419036378 
0.2599999999999877, -1.0017733170251921 
0.2699999999999866, -1.0013896949771697 
0.2799999999999855, -1.0010653366185964 
0.2899999999999844, -1.000719621821546 
0.2999999999999833, -1.0003507966967553 
0.3099999999999822, -1.0000457854003895 
0.3199999999999811, -0.9996414330873551 
0.32999999999998, -0.9993665645545606 
0.3399999999999789, -0.9989481136666379 
0.3499999999999778, -0.998679960530628 
0.35999999999997667, -0.9982727749928634 
0.36999999999997557, -0.9979848258162732 
0.37999999999997447, -0.9976099485060465 
0.38999999999997337, -0.9972846337828688 
0.39999999999997227, -0.9969533100447037 
0.40999999999997117, -0.9965880599083696 
0.41999999999997006, -0.996299155746588 
0.42999999999996896, -0.9959072513505065 
0.43999999999996786, -0.9956459837428827 
0.44999999999996676, -0.9952508886847347 
0.45999999999996566, -0.9949924457345729 
0.46999999999996456, -0.9946179903827294 
0.47999999999996346, -0.9943386171886175 
0.48999999999996235, -0.9940019926100535 
0.49999999999996125, -0.9936889282750514 
0.5099999999999602, -0.9933964050946527 
0.519999999999959, -0.9930524753360612 
0.529999999999958, -0.992797768562263 
0.5399999999999568, -0.992439907632378 
0.5499999999999557, -0.9922052011282719 
0.5599999999999546, -0.9918561780590668 
0.5699999999999535, -0.99161844293263 
0.5799999999999524, -0.9912985769230612 
0.5899999999999513, -0.9910386963760848 
0.5999999999999502, -0.9907603431876414 
0.6099999999999491, -0.9904710334954225 
0.619999999999948, -0.9902349929974017 
0.6299999999999469, -0.9899243942264042 
0.6399999999999458, -0.9897196088304537 
0.6499999999999447, -0.9894073538945719 
0.6599999999999436, -0.9892143686679377 
0.6699999999999425, -0.9889235883872947 
0.6799999999999414, -0.9887205246089645 
0.6899999999999403, -0.9884702304030021 
0.6999999999999392, -0.9882407547748594 
0.7099999999999381, -0.9880394719899164 
0.719999999999937, -0.9877813160931765 
0.7299999999999359, -0.9876248032771576 
0.7399999999999348, -0.9873519958956352 
0.7499999999999337, -0.9872239866097974 
0.7599999999999326, -0.9869636106844082 
0.7699999999999315, -0.986838755237765 
0.7799999999999304, -0.986621789676975 
0.7899999999999293, -0.9864727726238616 
0.7999999999999282, -0.9863206975921147 
0.8099999999999271, -0.9861314730872955 
0.819999999999926, -0.9860511596667548 
0.8299999999999249, -0.9858253342055783 
0.8399999999999238, -0.9858068958649188 
0.8499999999999227, -0.9855736710335585 
0.8599999999999216, -0.9855853428249717 
0.8699999999999205, -0.9853973291366147 
0.8799999999999194, -0.9853901885386959 
0.8899999999999183, -0.9852973204391179 
0.8999999999999172, -0.9852296187580536 
0.9099999999999161, -0.9852631310008718 
0.919999999999915, -0.9851175571345716 
0.9299999999999139, -0.9852879772132791 
0.9399999999999128, -0.9850868503492849 
0.9499999999999117, -0.9853624608806055 
0.9599999999999106, -0.9851877242562989 
0.9699999999999095, -0.9854768780779544 
0.9799999999999084, -0.9854370319749451 
0.9899999999999073, -0.9856350735847423 
0.9999999999999062, -0.9858198279849032 
1.0099999999999052, -0.9858585302742466 
1.019999999999904, -0.9863317031625259 
1.029999999999903, -0.9862053707570254 
1.039999999999902, -0.9869653199239954 
1.0499999999999008, -0.9867840831205456 
1.0599999999998997, -0.9876844790787485 
1.0699999999998986, -0.9876429484402303 
1.0799999999998975, -0.9884395158659436 
1.0899999999998964, -0.9887382855630195 
1.0999999999998953, -0.9892290438668256 
1.1099999999998942, -0.9900432485817091 
1.119999999999893, -0.9901443070288583 
1.129999999999892, -0.9915404807786176 
1.1399999999998909, -0.991380720769985 
1.1499999999998898, -0.9931700332815012 
1.1599999999998887, -0.993036705339059 
1.1699999999998876, -0.9947959506526941 
1.1799999999998865, -0.9949767191055575 
1.1899999999998854, -0.9962894394482055 
1.1999999999998843, -0.9970681168066535 
1.2099999999998832, -0.9977099912221346 
1.219999999999882, -0.9992312264837049 
1.229999999999881, -0.9992890718773084 
1.2399999999998799, -1.0013786040832813 
1.2499999999998788, -1.0011929408661677 
1.2599999999998777, -1.003383066130208 
1.2699999999998766, -1.0032856468579505 
1.2799999999998755, -1.0050920230552445 
1.2899999999998744, -1.0053315123925992 
1.2999999999998733, -1.0064747509845327 
1.3099999999998722, -1.0072108141332194 
1.319999999999871, -1.0076874753558132 
1.32999999999987, -1.0088737388827658 
1.3399999999998689, -1.0088850116434693 
1.3499999999998678, -1.0102866038328422 
1.3599999999998666, -1.0101072563799829 
1.3699999999998655, -1.0114140782605798 
1.3799999999998644, -1.0112751370407826 
1.3899999999998633, -1.0122432825626269 
1.3999999999998622, -1.0122876332475481 
1.4099999999998611, -1.0128384292964234 
1.41999999999986, -1.0131053203241134 
1.429999999999859, -1.0132963787253764 
1.4399999999998578, -1.0137315643479787 
1.4499999999998567, -1.013673495709282 
1.4599999999998556, -1.0141780657568262 
1.4699999999998545, -1.013993558234856 
1.4799999999998534, -1.014454225643043 
1.4899999999998523, -1.0142590076996736 
1.4999999999998512, -1.0145800404077896 
1.5099999999998501, -1.0144525200659333 
1.519999999999849, -1.0145961090204734 
1.529999999999848, -1.0145570901894616 
1.5399999999998468, -1.0145397825011115 
1.5499999999998457, -1.0145695064133795 
1.5599999999998446, -1.0144308039256476 
1.5699999999998435, -1.0144940923396346 
1.5799999999998424, -1.0142810263507933 
1.5899999999998413, -1.0143370664991807 
1.5999999999998402, -1.0141000087300183 
1.6099999999998391, -1.0141102146820153 
1.619999999999838, -1.013890806964706 
1.629999999999837, -1.0138310459240172 
1.6399999999998358, -1.013647965513955 
1.6499999999998347, -1.0135131170608025 
1.6599999999998336, -1.0133644923883909 
1.6699999999998325, -1.0131635032942419 
1.6799999999998314, -1.0130373357064224 
1.6899999999998303, -1.012787997407392 
1.6999999999998292, -1.0126675004449126 
1.709999999999828, -1.0123933149634765 
1.719999999999827, -1.0122602530912905 
1.729999999999826, -1.0119845207821458 
1.7399999999998248, -1.0118228824460092 
1.7499999999998237, -1.0115614233990007 
1.7599999999998226, -1.011359936957606 
1.7699999999998215, -1.0111190672138644 
1.7799999999998204, -1.0108736641158274 
1.7899999999998193, -1.0106524911015402 
1.7999999999998182, -1.010367855727651 
1.809999999999817, -1.0101600636955423 
1.819999999999816, -1.0098487101326448 
1.8299999999998149, -1.0096436689274901 
1.8399999999998138, -1.0093218279272629 
1.8499999999998127, -1.0091059268119054 
1.8599999999998116, -1.0087886808672777 
1.8699999999998105, -1.008547381474416 
1.8799999999998094, -1.008246012400555 
1.8899999999998083, -1.0079684271730494 
1.8999999999998072, -1.007688958282958 
1.909999999999806, -1.0073728015888332 
1.919999999999805, -1.007114831128251 
1.9299999999998039, -1.0067678999800527 
1.9399999999998028, -1.0065237289204552 
1.9499999999998017, -1.0061610443555826 
1.9599999999998006, -1.0059158085465352 
1.9699999999997995, -1.005554688695154 
1.9799999999997984, -1.0052897621906642 
1.9899999999997973, -1.004945936907862 
1.9999999999997962, -1.0046459140936446 
2.0099999999998173, -1.0043299083643122 
2.0199999999998384, -1.0039891901227718 
2.0299999999998595, -1.0037034358861792 
2.0399999999998806, -1.0033288549284576 
2.0499999999999017, -1.0030656575125252 
2.059999999999923, -1.0026741712184006 
2.069999999999944, -1.0024154819004287 
2.079999999999965, -1.0020280186261448 
2.089999999999986, -1.0017512286930028 
2.100000000000007, -1.0013867944299768 
2.1100000000000283, -1.0010743560365067 
2.1200000000000494, -1.0007450522224282 
2.1300000000000705, -1.0003914961936855 
2.1400000000000916, -1.000099271697085 
2.1500000000001127, -0.9997135222878712 
2.160000000000134, -0.9994481731797217 
2.170000000000155, -0.9990502540660182 
2.180000000000176, -0.9987903950027672 
2.190000000000197, -0.9984034313993213 
2.2000000000002182, -0.9981249249297195 
2.2100000000002393, -0.9977681014704284 
2.2200000000002604, -0.9974546367918015 
2.2300000000002815, -0.9971381633087306 
2.2400000000003026, -0.9967874707609794 
2.2500000000003237, -0.9965099444368398 
2.260000000000345, -0.9961347124907756 
2.270000000000366, -0.9958822408860915 
2.280000000000387, -0.9955043972614208 
2.290000000000408, -0.9952541698221692 
2.3000000000004293, -0.9948959402089487 
2.3100000000004504, -0.994625772606237 
2.3200000000004715, -0.9943033707273118 
2.3300000000004926, -0.9940009331351581 
2.3400000000005137, -0.993720273843745 
2.3500000000005348, -0.9933881405757853 
2.360000000000556, -0.9931431382864397 
2.370000000000577, -0.9927975129356309 
2.380000000000598, -0.9925712889734684 
2.390000000000619, -0.9922341623082999 
2.4000000000006403, -0.9920048010905994 
2.4100000000006614, -0.9916961024190332 
2.4200000000006825, -0.9914448435499897 
2.4300000000007036, -0.9911768241790503 
2.4400000000007247, -0.990896116850305 
2.450000000000746, -0.9906696784135546 
2.460000000000767, -0.9903671982131605 
2.470000000000788, -0.9901715808188462 
2.480000000000809, -0.9898667572341382 
2.49000000000083, -0.9896828057837207 
2.5000000000008513, -0.9893991836020456 
2.5100000000008724, -0.9892048690194786 
2.5200000000008935, -0.9889620405229337 
2.5300000000009146, -0.9887404633595821 
2.5400000000009357, -0.9885473672662176 
2.550000000000957, -0.9882956306581704 
2.560000000000978, -0.9881483385351995 
2.570000000000999, -0.987880180119218 
2.58000000000102, -0.9877623740117282 
2.5900000000010412, -0.9875055446176298 
2.6000000000010624, -0.9873911263462056 
2.6100000000010835, -0.9871779924704197 
2.6200000000011046, -0.9870384551832853 
2.6300000000011257, -0.9868916321457794 
2.6400000000011468, -0.9867098239472362 
2.650000000001168, -0.9866369101195164 
2.660000000001189, -0.986415598075753 
2.67000000000121, -0.9864071083206173 
2.680000000001231, -0.9861752823042705 
2.6900000000012523, -0.9861989534459377 
2.7000000000012734, -0.986010425239716 
2.7100000000012945, -0.9860156564285809 
2.7200000000013156, -0.9859223229039087 
2.7300000000013367, -0.9858654179757129 
2.740000000001358, -0.9858996900942739 
2.750000000001379, -0.9857618372784175 
2.7600000000014, -0.9859351072662133 
2.770000000001421, -0.9857365600311964 
2.780000000001442, -0.9860186884431712 
2.7900000000014633, -0.9858394449074578 
2.8000000000014844, -0.9861394436917301 
2.8100000000015055, -0.986088631563065 
2.8200000000015266, -0.9862998501213592 
2.8300000000015477, -0.9864675947199771 
2.840000000001569, -0.9865200864260806 
2.85000000000159, -0.9869693396334935 
2.860000000001611, -0.9868532447338284 
2.870000000001632, -0.987585944455684 
2.8800000000016532, -0.987401947389699 
2.8900000000016743, -0.9882826821354622 
2.9000000000016954, -0.988219064843212 
2.9100000000017165, -0.9890104185253284 
2.9200000000017377, -0.9892614195221983 
2.9300000000017588, -0.9897642671682444 
2.94000000000178, -0.9904968788334945 
2.950000000001801, -0.9906225349890316 
2.960000000001822, -0.9919072801913312 
2.970000000001843, -0.9917604329736303 
2.9800000000018643, -0.993439259880716 
2.9900000000018854, -0.9932895492536136 
3.0000000000019065, -0.9949714204939999 
3.0100000000019276, -0.9950960300801936 
3.0200000000019487, -0.9963818860833547 
3.03000000000197, -0.997047188031505 
3.040000000001991, -0.9977112685440208 
3.050000000002012, -0.9990671045848724 
3.060000000002033, -0.9991603284933008 
3.070000000002054, -1.0010788416255108 
3.0800000000020753, -1.0009024015356807 
3.0900000000020964, -1.0029701950405827 
3.1000000000021175, -1.002849798193079 
3.1100000000021386, -1.0046000429081947 
3.1200000000021597, -1.004781665982709 
3.130000000002181, -1.005925102911052 
3.140000000002202, -1.0065735851634696 
3.150000000002223, -1.007078717179567 
3.160000000002244, -1.0081742931924906 
3.1700000000022652, -1.0082113283584673 
3.1800000000022863, -1.0095498971072376 
3.1900000000023074, -1.009377109351922 
3.2000000000023285, -1.0106636146069585 
3.2100000000023496, -1.0105133292603987 
3.2200000000023707, -1.0114948616865185 
3.230000000002392, -1.0115179616097565 
3.240000000002413, -1.0120954924393772 
3.250000000002434, -1.0123429065498388 
3.260000000002455, -1.0125588714031493 
3.2700000000024763, -1.012985876668627 
3.2800000000024974, -1.012943981339125 
3.2900000000025185, -1.013455449323631 
3.3000000000025396, -1.0132769014017773 
3.3100000000025607, -1.0137581041544075 
3.3200000000025818, -1.0135616135825671 
3.330000000002603, -1.0139097115604079 
3.340000000002624, -1.01377996408249 
3.350000000002645, -1.0139485980198062 
3.360000000002666, -1.0139120932744046 
3.3700000000026873, -1.0139135259255216 
3.3800000000027084, -1.013952617963358 
3.3900000000027295, -1.0138258176274781 
3.4000000000027506, -1.013904817484876 
3.4100000000027717, -1.0136979459787108 
3.420000000002793, -1.0137739498854912 
3.430000000002814, -1.0135398769417678 
3.440000000002835, -1.0135707627352213 
3.450000000002856, -1.0133547489030323 
3.460000000002877, -1.0133129924251898 
3.4700000000028983, -1.0131364414400432 
3.4800000000029194, -1.013015460748899 
3.4900000000029405, -1.0128771209984895 
3.5000000000029616, -1.0126860702838607 
3.5100000000029827, -1.0125732386388286 
3.520000000003004, -1.0123308869687417 
3.530000000003025, -1.012225403325495 
3.540000000003046, -1.0119568370270096 
3.550000000003067, -1.0118386754904962 
3.5600000000030882, -1.0115692283713322 
3.5700000000031094, -1.0114208833342224 
3.5800000000031305, -1.0111678073934742 
3.5900000000031516, -1.010977473850133 
3.6000000000031727, -1.0107472089575569 
3.6100000000031938, -1.0105111891161158 
3.620000000003215, -1.0103020848635116 
3.630000000003236, -1.0100258937462074 
3.640000000003257, -1.0098305487665353 
3.650000000003278, -1.0095277374783882 
3.6600000000032993, -1.0093345165515213 
3.6700000000033204, -1.0090223496347375 
3.6800000000033415, -1.0088171919633142 
3.6900000000033626, -1.008511257621811 
3.7000000000033837, -1.008279856589549 
3.710000000003405, -1.0079910448685856 
3.720000000003426, -1.007723204402727 
3.730000000003447, -1.0074565499398342 
3.740000000003468, -1.0071508648945862 
3.750000000003489, -1.006904885280433 
3.7600000000035103, -1.0065699198253966 
3.7700000000035314, -1.0063362868117707 
3.7800000000035525, -1.005987339634402 
3.7900000000035736, -1.0057515423369405 
3.8000000000035947, -1.0054054932089809 
3.810000000003616, -1.0051499762494944 
3.820000000003637, -1.0048214972939349 
3.830000000003658, -1.0045319665431276 
3.840000000003679, -1.0042303173874887 
3.8500000000037002, -1.0039020913645875 
3.8600000000037213, -1.0036286483857864 
3.8700000000037424, -1.0032690439308944 
3.8800000000037635, -1.00301583613327 
3.8900000000037847, -1.0026413788062545 
3.9000000000038058, -1.0023914327344856 
3.910000000003827, -1.0020217531398863 
3.920000000003848, -1.0017542070516179 
3.930000000003869, -1.0014067596687255 
3.94000000000389, -1.001105363722568 
3.9500000000039113, -1.0007909669583035 
3.9600000000039324, -1.0004509594669162 
3.9700000000039535, -1.0001707854891253 
3.9800000000039746, -0.9998011134266435 
3.9900000000039957, -0.9995451737386574 
4.000000000004016, -0.999164843304446 
4.010000000003993, -0.9989133367711244 
4.02000000000397, -0.9985438460849942 
4.030000000003946, -0.9982744733259344 
4.040000000003923, -0.9979335840341409 
4.0500000000039, -0.997631003620009 
4.0600000000038765, -0.9973280451377469 
4.070000000003853, -0.9969902217685825 
4.08000000000383, -0.9967234993770228 
4.090000000003807, -0.9963626776420565 
4.100000000003783, -0.9961189522546393 
4.11000000000376, -0.9957559614448183 
4.120000000003737, -0.9955139558507236 
4.130000000003713, -0.9951699015798183 
4.14000000000369, -0.9949086079413975 
4.150000000003667, -0.9945989748359467 
4.1600000000036434, -0.9943063523648937 
4.17000000000362, -0.9940367397314671 
4.180000000003597, -0.9937151321041056 
4.1900000000035735, -0.9934795658807671 
4.20000000000355, -0.9931446351576771 
4.210000000003527, -0.9929269164183676 
4.220000000003504, -0.9926001965390924 
4.23000000000348, -0.9923791916665127 
4.240000000003457, -0.9920804710437999 
4.250000000003434, -0.9918375903480008 
4.26000000000341, -0.9915791091305353 
4.270000000003387, -0.9913064937636127 
4.280000000003364, -0.9910892511706733 
4.2900000000033405, -0.9907941512400479 
4.300000000003317, -0.9906075964476354 
4.310000000003294, -0.9903093531130158 
4.320000000003271, -0.9901344549029669 
4.330000000003247, -0.9898571652342277 
4.340000000003224, -0.9896715966734388 
4.350000000003201, -0.9894355345465418 
4.360000000003177, -0.989221764861878 
4.370000000003154, -0.9890363244398275 
4.380000000003131, -0.9887908064414127 
4.390000000003107, -0.9886523782055485 
4.400000000003084, -0.9883885369401565 
4.410000000003061, -0.9882807341024562 
4.4200000000030375, -0.9880269532236027 
4.430000000003014, -0.9879228981878136 
4.440000000002991, -0.9877129523622133 
4.450000000002968, -0.9875829091257486 
4.460000000002944, -0.9874406059334618 
4.470000000002921, -0.9872662784359577 
4.480000000002898, -0.9871999669626197 
4.490000000002874, -0.9869832307521017 
4.500000000002851, -0.9869838897116586 
4.510000000002828, -0.986753352616481 
4.520000000002804, -0.9867883859526839 
4.530000000002781, -0.9865988511982194 
4.540000000002758, -0.986616114563405 
4.5500000000027345, -0.9865214158619243 
4.560000000002711, -0.9864752593626612 
4.570000000002688, -0.9865090073128746 
4.580000000002665, -0.9863790975620778 
4.590000000002641, -0.986553540051334 
4.600000000002618, -0.9863579682708127 
4.610000000002595, -0.9866447326540838 
4.620000000002571, -0.9864611583842102 
4.630000000002548, -0.9867704428303663 
4.640000000002525, -0.9867083140543668 
4.6500000000025015, -0.9869317522921373 
4.660000000002478, -0.987081691630978 
4.670000000002455, -0.9871475995303155 
4.6800000000024315, -0.9875717617479336 
4.690000000002408, -0.9874664101270783 
4.700000000002385, -0.9881700508627933 
4.710000000002362, -0.9879846646659355 
4.720000000002338, -0.9888434248332871 
4.730000000002315, -0.9887595765854573 
4.740000000002292, -0.9895435501600395 
4.750000000002268, -0.989749912482124 
4.760000000002245, -0.9902624655022321 
4.770000000002222, -0.9909187714431887 
4.7800000000021985, -0.9910675058475766 
4.790000000002175, -0.9922470620513247 
4.800000000002152, -0.9921147547350532 
4.810000000002129, -0.9936872024464246 
4.820000000002105, -0.9935246560066199 
4.830000000002082, -0.9951307616305222 
4.840000000002059, -0.9952061242928965 
4.850000000002035, -0.996462813609849 
4.860000000002012, -0.997027441217393 
4.870000000001989, -0.9977087252653621 
4.880000000001965, -0.9989149160643933 
4.890000000001942, -0.9990419622862444 
4.900000000001919, -1.0008004164840052 
4.9100000000018955, -1.0006359035805086 
4.920000000001872, -1.0025849244820815 
4.930000000001849, -1.002445524334433 
