t, s[1].omega / s[0].omega 
0, -0.6299977189654562 
0.009999999999999995, -0.6297864238474586 
0.019999999999999934, -0.6295973640375426 
0.029999999999999874, -0.629402599427757 
0.04000000000000012, -0.6291695057765863 
0.050000000000000405, -0.6288734179892708 
0.06000000000000069, -0.6285049426104128 
0.07000000000000098, -0.6280711315197878 
0.08000000000000126, -0.6275942083545387 
0.09000000000000155, -0.6271123913057866 
0.10000000000000184, -0.6266857465259712 
0.11000000000000212, -0.6264083914342196 
0.12000000000000241, -0.6264275839798191 
0.130000000000002, -0.6269697445163456 
0.1400000000000009, -0.6283724319634486 
0.1499999999999998, -0.6311187543558362 
0.1599999999999987, -0.6358645030171591 
0.1699999999999976, -0.6434335246870221 
0.1799999999999965, -0.6547263613430441 
0.1899999999999954, -0.6704458664414982 
0.1999999999999943, -0.6905572243633111 
0.2099999999999932, -0.7136424200897105 
0.2199999999999921, -0.7368156481918032 
0.229999999999991, -0.7568623371875913 
0.2399999999999899, -0.7719081831488442 
0.2499999999999888, -0.7819759663954352 
0.2599999999999877, -0.7881981165477153 
0.2699999999999866, -0.7918507788839302 
0.2799999999999855, -0.7939037119525527 
0.2899999999999844, -0.7949747892731625 
0.2999999999999833, -0.7954200152597048 
0.3099999999999822, -0.7954235019322737 
0.3199999999999811, -0.7950535435108221 
0.32999999999998, -0.794285181263436 
0.3399999999999789, -0.7929926239774803 
0.3499999999999778, -0.7909083899945181 
0.35999999999997667, -0.7875380079246973 
0.36999999999997557, -0.7820181060756808 
0.37999999999997447, -0.7729415156347497 
0.38999999999997337, -0.7583219163145513 
0.39999999999997227, -0.7361781721273897 
0.40999999999997117, -0.7062213367851653 
0.41999999999997006, -0.6716486346069054 
0.42999999999996896, -0.6382774215792056 
0.43999999999996786, -0.6109560487790737 
0.44999999999996676, -0.5912941189043459 
0.45999999999996566, -0.5783770242294206 
0.46999999999996456, -0.5704137874951105 
0.47999999999996346, -0.5657402358307934 
0.48999999999996235, -0.5631229704288626 
0.49999999999996125, -0.5617378564985169 
0.5099999999999602, -0.5610636441443926 
0.519999999999959, -0.5607811796408216 
0.529999999999958, -0.5606988990979871 
0.5399999999999568, -0.560702836732369 
0.5499999999999557, -0.5607249165985587 
0.5599999999999546, -0.5607241028975578 
0.5699999999999535, -0.5606767039948043 
0.5799999999999524, -0.5605732706548018 
0.5899999999999513, -0.5604194281815336 
0.5999999999999502, -0.5602367805795849 
0.6099999999999491, -0.5600594128390278 
0.619999999999948, -0.5599238092053012 
0.6299999999999469, -0.5598548511266095 
0.6399999999999458, -0.559854179057732 
0.6499999999999447, -0.5598968825808828 
0.6599999999999436, -0.5599389043120946 
0.6699999999999425, -0.5599321591995572 
0.6799999999999414, -0.5598396524049762 
0.6899999999999403, -0.5596432478775412 
0.6999999999999392, -0.5593428068165356 
0.7099999999999381, -0.558951304712274 
0.719999999999937, -0.5584916739168349 
0.7299999999999359, -0.5579991902900345 
0.7399999999999348, -0.5575319146328936 
0.7499999999999337, -0.5571925763195582 
0.7599999999999326, -0.5571681152887396 
0.7699999999999315, -0.5577970265901209 
0.7799999999999304, -0.5596771644391701 
0.7899999999999293, -0.5638182484696207 
0.7999999999999282, -0.5717944217775662 
0.8099999999999271, -0.5857002724254998 
0.819999999999926, -0.6074407731964916 
0.8299999999999249, -0.6369329960237864 
0.8399999999999238, -0.6703242217178208 
0.8499999999999227, -0.7012876100886982 
0.8599999999999216, -0.7253064632851693 
0.8699999999999205, -0.7417605733663921 
0.8799999999999194, -0.7523039359628501 
0.8899999999999183, -0.7588656185823847 
0.8999999999999172, -0.7628941060769359 
0.9099999999999161, -0.765333248843076 
0.919999999999915, -0.7667662190210944 
0.9299999999999139, -0.7675420245554674 
0.9399999999999128, -0.7678591524873257 
0.9499999999999117, -0.7678144135396271 
0.9599999999999106, -0.7674262130786074 
0.9699999999999095, -0.766637669613874 
0.9799999999999084, -0.7653020937114314 
0.9899999999999073, -0.7631547856289627 
0.9999999999999062, -0.7597876995960169 
1.0099999999999052, -0.7546749270311579 
1.019999999999904, -0.7473299748575513 
1.029999999999903, -0.7376235526781347 
1.039999999999902, -0.7260753331314906 
1.0499999999999008, -0.7137859560248767 
1.0599999999998997, -0.7019780978577205 
1.0699999999998986, -0.6915426199216809 
1.0799999999998975, -0.6828955886135366 
1.0899999999998964, -0.676082956462054 
1.0999999999998953, -0.6709432407176517 
1.1099999999998942, -0.6672274312771821 
1.119999999999893, -0.6646654472561145 
1.129999999999892, -0.6629986948817723 
1.1399999999998909, -0.6619960762765074 
1.1499999999998898, -0.6614620538866047 
1.1599999999998887, -0.6612395466416199 
1.1699999999998876, -0.6612084906185489 
1.1799999999998865, -0.661281168275069 
1.1899999999998854, -0.6613961287902195 
1.1999999999998843, -0.6615127185575448 
1.2099999999998832, -0.6616076400386263 
1.219999999999882, -0.661673543068781 
1.229999999999881, -0.6617177338475586 
1.2399999999998799, -0.6617578920712581 
1.2499999999998788, -0.6618130002600211 
1.2599999999998777, -0.6618915783244317 
1.2699999999998766, -0.6619828867119038 
1.2799999999998755, -0.6620567359419567 
1.2899999999998744, -0.662073185924861 
1.2999999999998733, -0.6619971187899363 
1.3099999999998722, -0.6618094856164293 
1.319999999999871, -0.6615105351375259 
1.32999999999987, -0.6611171667560736 
1.3399999999998689, -0.660660186065894 
1.3499999999998678, -0.6601862193871246 
1.3599999999998666, -0.6597665820357912 
1.3699999999998655, -0.6595138796570323 
1.3799999999998644, -0.6596063808717367 
1.3899999999998633, -0.6603190541052164 
1.3999999999998622, -0.6620576571059748 
1.4099999999998611, -0.6653875610432052 
1.41999999999986, -0.6710401235899472 
1.429999999999859, -0.6798621065114508 
1.4399999999998578, -0.6926454053847202 
1.4499999999998567, -0.7097577738233958 
1.4599999999998556, -0.7305845964052414 
1.4699999999998545, -0.7531163422474585 
1.4799999999998534, -0.7743520674085353 
1.4899999999998523, -0.7916786697211934 
1.4999999999998512, -0.8040904359210858 
1.5099999999998501, -0.81213016797106 
1.519999999999849, -0.8169906375868748 
1.529999999999848, -0.8197872041721856 
1.5399999999998468, -0.8213075765294281 
1.5499999999998457, -0.8220348099387843 
1.5599999999998446, -0.8222373058622168 
1.5699999999998435, -0.8220419550582652 
1.5799999999998424, -0.8214745730766237 
1.5899999999998413, -0.8204704847268586 
1.5999999999998402, -0.8188572817125387 
1.6099999999998391, -0.8163059243071491 
1.619999999999838, -0.812241308669783 
1.629999999999837, -0.8057076974259918 
1.6399999999998358, -0.7952253944408517 
1.6499999999998347, -0.778820566837916 
1.6599999999998336, -0.7547021334560279 
1.6699999999998325, -0.7230420405521649 
1.6799999999998314, -0.6877382744779484 
1.6899999999998303, -0.6551565828656354 
1.6999999999998292, -0.6300396428845793 
1.709999999999828, -0.6133204551989656 
1.719999999999827, -0.6033617061362728 
1.729999999999826, -0.5979307464804025 
1.7399999999998248, -0.5952104290151676 
1.7499999999998237, -0.5939899013797498 
1.7599999999998226, -0.5935413785616197 
1.7699999999998215, -0.5934534150122819 
1.7799999999998204, -0.5935022589856477 
1.7899999999998193, -0.5935682894070389 
1.7999999999998182, -0.5935859881636582 
1.809999999999817, -0.5935157177606172 
1.819999999999816, -0.5933294711652294 
1.8299999999998149, -0.593006418494379 
1.8399999999998138, -0.5925359991440922 
1.8499999999998127, -0.5919255194380283 
1.8599999999998116, -0.5912061709094402 
1.8699999999998105, -0.5904300164200253 
1.8799999999998094, -0.5896556049562044 
1.8899999999998083, -0.5889290493818924 
1.8999999999998072, -0.5882712477783125 
1.909999999999806, -0.5876769600859494 
1.919999999999805, -0.5871239382793554 
1.9299999999998039, -0.5865860950301033 
1.9399999999998028, -0.5860446431514996 
1.9499999999998017, -0.5854941690082137 
1.9599999999998006, -0.5849445753952337 
1.9699999999997995, -0.5844221083966403 
1.9799999999997984, -0.5839725299537002 
1.9899999999997973, -0.5836682604130807 
1.9999999999997962, -0.5836203546961022 
2.0099999999998173, -0.5839958065643697 
2.0199999999998384, -0.5850405484851713 
2.0299999999998595, -0.5871079855343098 
2.0399999999998806, -0.5906906017041147 
2.0499999999999017, -0.5964447093116102 
2.059999999999923, -0.6051787898264355 
2.069999999999944, -0.6177360740467694 
2.079999999999965, -0.6346564508743093 
2.089999999999986, -0.655556960686192 
2.100000000000007, -0.6785368025642576 
2.1100000000000283, -0.7004444191272099 
2.1200000000000494, -0.7183948200580241 
2.1300000000000705, -0.7312408938324821 
2.1400000000000916, -0.7395497198222889 
2.1500000000001127, -0.744585727478998 
2.160000000000134, -0.7475127097771976 
2.170000000000155, -0.7491406900531167 
2.180000000000176, -0.7499626658227638 
2.190000000000197, -0.7502532797825192 
2.2000000000002182, -0.7501452887510578 
2.2100000000002393, -0.7496709040256327 
2.2200000000002604, -0.7487721143817894 
2.2300000000002815, -0.7472817409820396 
2.2400000000003026, -0.7448706769089499 
2.2500000000003237, -0.7409553953699125 
2.260000000000345, -0.7345831500683176 
2.270000000000366, -0.7244050734868929 
2.280000000000387, -0.7090262432289606 
2.290000000000408, -0.6880148592267721 
2.3000000000004293, -0.6630433397996207 
2.3100000000004504, -0.6376348668114064 
2.3200000000004715, -0.6152303916006596 
2.3300000000004926, -0.5975846182628004 
2.3400000000005137, -0.584758557611491 
2.3500000000005348, -0.5759373137127176 
2.360000000000556, -0.570112637430167 
2.370000000000577, -0.5664002540815256 
2.380000000000598, -0.5641217962828113 
2.390000000000619, -0.5627896618782315 
2.4000000000006403, -0.5620660366642772 
2.4100000000006614, -0.5617226053653056 
2.4200000000006825, -0.5616080386598185 
2.4300000000007036, -0.5616237715383756 
2.4400000000007247, -0.561706974002037 
2.450000000000746, -0.5618195315576664 
2.460000000000767, -0.561941973371427 
2.470000000000788, -0.5620709991651016 
2.480000000000809, -0.5622183505908398 
2.49000000000083, -0.5624078158709193 
2.5000000000008513, -0.5626675554183925 
2.5100000000008724, -0.5630175847191989 
2.5200000000008935, -0.5634560459595572 
2.5300000000009146, -0.5639506901951504 
2.5400000000009357, -0.5644419872147785 
2.550000000000957, -0.5648594685710684 
2.560000000000978, -0.5651438323521916 
2.570000000000999, -0.565261951407448 
2.58000000000102, -0.5652077279733665 
2.5900000000010412, -0.564992816466428 
2.6000000000010624, -0.5646360616299739 
2.6100000000010835, -0.5641577095105058 
2.6200000000011046, -0.5635804737486787 
2.6300000000011257, -0.5629384951811918 
2.6400000000011468, -0.5622971075874472 
2.650000000001168, -0.5617898360447211 
2.660000000001189, -0.5616822070610806 
2.67000000000121, -0.5624679460746946 
2.680000000001231, -0.5649693062503436 
2.6900000000012523, -0.5702977293442638 
2.7000000000012734, -0.5793113230705489 
2.7100000000012945, -0.5912587861389423 
2.7200000000013156, -0.6027144016571777 
2.7300000000013367, -0.6096111847751708 
2.740000000001358, -0.6112677298553044 
2.750000000001379, -0.6103540929311039 
2.7600000000014, -0.6093971995953171 
2.770000000001421, -0.6092369054641252 
2.780000000001442, -0.609704382605358 
2.7900000000014633, -0.610432437739079 
2.8000000000014844, -0.6111624502828721 
2.8100000000015055, -0.6117670525989763 
2.8200000000015266, -0.6122004558100466 
2.8300000000015477, -0.6124535084567555 
2.840000000001569, -0.6125260686349997 
2.85000000000159, -0.6124122576764184 
2.860000000001611, -0.6120935363735741 
2.870000000001632, -0.6115377228477494 
2.8800000000016532, -0.6107053567446676 
2.8900000000016743, -0.6095659428035256 
2.9000000000016954, -0.608122174019358 
2.9100000000017165, -0.606429737104448 
2.9200000000017377, -0.6045943501151163 
2.9300000000017588, -0.6027410018360471 
2.94000000000178, -0.6009744523942182 
2.950000000001801, -0.5993559996253435 
2.960000000001822, -0.5979042136212961 
2.970000000001843, -0.5966103702806321 
2.9800000000018643, -0.5954563327332022 
2.9900000000018854, -0.5944278926548363 
3.0000000000019065, -0.5935221193752402 
3.0100000000019276, -0.5927503026619984 
3.0200000000019487, -0.5921387378476 
3.03000000000197, -0.5917289180060485 
3.040000000001991, -0.5915777913906595 
3.050000000002012, -0.5917582564214998 
3.060000000002033, -0.5923600570212094 
3.070000000002054, -0.5934914162781059 
3.0800000000020753, -0.5952816681659823 
3.0900000000020964, -0.5978842696660842 
3.1000000000021175, -0.6014771689721001 
3.1100000000021386, -0.6062526459377401 
3.1200000000021597, -0.6123811611739692 
3.130000000002181, -0.61992777943085 
3.140000000002202, -0.6287132631257613 
3.150000000002223, -0.6381765939221944 
3.160000000002244, -0.6473962919284617 
3.1700000000022652, -0.6553983542103927 
3.1800000000022863, -0.6615838148882888 
3.1900000000023074, -0.6659025056539728 
3.2000000000023285, -0.6686776236650516 
3.2100000000023496, -0.6703309091612357 
3.2200000000023707, -0.6712160140772813 
3.230000000002392, -0.6715725630923656 
3.240000000002413, -0.6715366884803377 
3.250000000002434, -0.6711606917090189 
3.260000000002455, -0.6704218231212972 
3.2700000000024763, -0.6692123202241617 
3.2800000000024974, -0.6673033955041061 
3.2900000000025185, -0.6642719161231698 
3.3000000000025396, -0.659381232022728 
3.3100000000025607, -0.6514501798737022 
3.3200000000025818, -0.6388965615334259 
3.330000000002603, -0.6203813813622769 
3.340000000002624, -0.5962393054935752 
3.350000000002645, -0.5694388478657171 
3.360000000002666, -0.5442287334375189 
3.3700000000026873, -0.5235788411948598 
3.3800000000027084, -0.5082280289541287 
3.3900000000027295, -0.4974779658989238 
3.4000000000027506, -0.4902051187619076 
3.4100000000027717, -0.4853884389466203 
3.420000000002793, -0.4822537307154094 
3.430000000002814, -0.48025694201777325 
3.440000000002835, -0.4790281919663612 
3.450000000002856, -0.4783197042864368 
3.460000000002877, -0.4779670579572087 
3.4700000000028983, -0.4778626544942606 
3.4800000000029194, -0.4779383374788875 
3.4900000000029405, -0.4781545504091745 
3.5000000000029616, -0.47849417762614205 
3.5100000000029827, -0.4789596024485845 
3.520000000003004, -0.4795713196361432 
3.530000000003025, -0.48036573718856657 
3.540000000003046, -0.4813890458828534 
3.550000000003067, -0.48268392121051995 
3.5600000000030882, -0.4842672815578152 
3.5700000000031094, -0.48610228894726004 
3.5800000000031305, -0.48807807163378997 
3.5900000000031516, -0.4900196909899952 
3.6000000000031727, -0.4917389882132497 
3.6100000000031938, -0.49309993700794463 
3.620000000003215, -0.4940521369773695 
3.630000000003236, -0.4946160389074136 
3.640000000003257, -0.494843912974695 
3.650000000003278, -0.49478524127336154 
3.6600000000032993, -0.4944659092042241 
3.6700000000033204, -0.4938758092026104 
3.6800000000033415, -0.49295526565435777 
3.6900000000033626, -0.491570037705985 
3.7000000000033837, -0.4894623384260738 
3.710000000003405, -0.4861628334881612 
3.720000000003426, -0.48086355654276636 
3.730000000003447, -0.4723413091993147 
3.740000000003468, -0.45925167174507386 
3.750000000003489, -0.44120427297232645 
3.7600000000035103, -0.4200308241869431 
3.7700000000035314, -0.39927394905367997 
3.7800000000035525, -0.38185125106137036 
3.7900000000035736, -0.36870698993278117 
3.8000000000035947, -0.35935605071807747 
3.810000000003616, -0.35286446830914947 
3.820000000003637, -0.3483809185388284 
3.830000000003658, -0.3452763718019951 
3.840000000003679, -0.34312430855471004 
3.8500000000037002, -0.34164696143406104 
3.8600000000037213, -0.340668638711943 
3.8700000000037424, -0.34008343309761263 
3.8800000000037635, -0.3398353515180351 
3.8900000000037847, -0.33990781259010816 
3.9000000000038058, -0.3403204356654502 
3.910000000003827, -0.3411322967104002 
3.920000000003848, -0.3424519081876074 
3.930000000003869, -0.34445480551760765 
3.94000000000389, -0.3474088574750737 
3.9500000000039113, -0.35170227829856693 
3.9600000000039324, -0.3578523043803209 
3.9700000000039535, -0.36643205040008303 
3.9800000000039746, -0.3777997164174044 
3.9900000000039957, -0.3915720767873448 
4.000000000004016, -0.40619571879432764 
4.010000000003993, -0.4194147163430899 
4.02000000000397, -0.4296056552806514 
4.030000000003946, -0.43653203412437874 
4.040000000003923, -0.44087844108606544 
4.0500000000039, -0.44349174334022196 
4.0600000000038765, -0.4450178256997762 
4.070000000003853, -0.44586391710182244 
4.08000000000383, -0.446263528117589 
4.090000000003807, -0.44633966168223604 
4.100000000003783, -0.4461452083826159 
4.11000000000376, -0.4456854895596597 
4.120000000003737, -0.4449321653169925 
4.130000000003713, -0.4438380555279219 
4.14000000000369, -0.44236181638226374 
4.150000000003667, -0.44050487761364493 
4.1600000000036434, -0.4383457496811277 
4.17000000000362, -0.4360412732183179 
4.180000000003597, -0.43378017166441796 
4.1900000000035735, -0.43171771484936505 
4.20000000000355, -0.42993668431855153 
4.210000000003527, -0.42844904744034135 
4.220000000003504, -0.4272207173611468 
4.23000000000348, -0.42619856976165915 
4.240000000003457, -0.42533014337535197 
4.250000000003434, -0.4245748380549113 
4.26000000000341, -0.42390866225757823 
4.270000000003387, -0.4233255923717909 
4.280000000003364, -0.42283872157238694 
4.2900000000033405, -0.4224839904088656 
4.300000000003317, -0.4223290552868394 
4.310000000003294, -0.4224904482544578 
4.320000000003271, -0.42316402702610834 
4.330000000003247, -0.42467694566255554 
4.340000000003224, -0.42757321103818285 
4.350000000003201, -0.43274421825541454 
4.360000000003177, -0.44158982255827955 
4.370000000003154, -0.45608399419397133 
4.380000000003131, -0.478328537294355 
4.390000000003107, -0.5089022202883047 
4.400000000003084, -0.5443850887096084 
4.410000000003061, -0.5775957265356257 
4.4200000000030375, -0.602696133402559 
4.430000000003014, -0.6189326671490731 
4.440000000002991, -0.6287132487269995 
4.450000000002968, -0.634570811965453 
4.460000000002944, -0.6381503904991903 
4.470000000002921, -0.640373662109474 
4.480000000002898, -0.6417492773144585 
4.490000000002874, -0.6425653654677956 
4.500000000002851, -0.6429864862930296 
4.510000000002828, -0.6431006498460482 
4.520000000002804, -0.6429416201747269 
4.530000000002781, -0.6424981852019449 
4.540000000002758, -0.6417170229538883 
4.5500000000027345, -0.6405063043791068 
4.560000000002711, -0.6387512161378841 
4.570000000002688, -0.6363545408335887 
4.580000000002665, -0.6333021183828024 
4.590000000002641, -0.6297182626293277 
4.600000000002618, -0.6258553841147306 
4.610000000002595, -0.6220074309019862 
4.620000000002571, -0.6184105063676472 
4.630000000002548, -0.6151968787365518 
4.640000000002525, -0.6124075983599311 
4.6500000000025015, -0.6100297460882047 
4.660000000002478, -0.6080299808307771 
4.670000000002455, -0.606374831270989 
4.6800000000024315, -0.6050392945403048 
4.690000000002408, -0.6040082277081328 
4.700000000002385, -0.6032743602180856 
4.710000000002362, -0.6028354003555995 
4.720000000002338, -0.6026916541095141 
4.730000000002315, -0.6028449088514295 
4.740000000002292, -0.6032988815090021 
4.750000000002268, -0.6040611397313066 
4.760000000002245, -0.605145981850358 
4.770000000002222, -0.6065771879901755 
4.7800000000021985, -0.6083886417455584 
4.790000000002175, -0.6106194635119536 
4.800000000002152, -0.6132989542046364 
4.810000000002129, -0.6164173014730405 
4.820000000002105, -0.6198850960234066 
4.830000000002082, -0.6235022293673654 
4.840000000002059, -0.6269744154127203 
4.850000000002035, -0.6299985870173577 
4.860000000002012, -0.6323734505190638 
4.870000000001989, -0.634052061537555 
4.880000000001965, -0.6351078901362188 
4.890000000001942, -0.635662370191922 
4.900000000001919, -0.6358278593881687 
4.9100000000018955, -0.6356808252414338 
