t, s[1].omega / s[0].omega 
0, -1.0799975090744458 
0.009999999999999995, -1.0796595849122306 
0.019999999999999934, -1.0791495809925997 
0.029999999999999874, -1.078479632578173 
0.04000000000000012, -1.0776722633233975 
0.050000000000000405, -1.0767628512566092 
0.06000000000000069, -1.0758013862233364 
0.07000000000000098, -1.0748517962317157 
0.08000000000000126, -1.0739864742009442 
0.09000000000000155, -1.0732749635854408 
0.10000000000000184, -1.0727689627524184 
0.11000000000000212, -1.0724883207266256 
0.12000000000000241, -1.0724135627590958 
0.130000000000002, -1.0724896675743476 
0.1400000000000009, -1.0726408335913376 
0.1499999999999998, -1.0727885246593025 
0.1599999999999987, -1.0728636722570823 
0.1699999999999976, -1.072810541933767 
0.1799999999999965, -1.0725863202300874 
0.1899999999999954, -1.0721610713810095 
0.1999999999999943, -1.0715191365721213 
0.2099999999999932, -1.0706599798082226 
0.2199999999999921, -1.069596818593759 
0.229999999999991, -1.068354091613045 
0.2399999999999899, -1.0669663544389334 
0.2499999999999888, -1.065479869323305 
0.2599999999999877, -1.0639555868499655 
0.2699999999999866, -1.0624704106039835 
0.2799999999999855, -1.061113132165774 
0.2899999999999844, -1.0599721981246015 
0.2999999999999833, -1.0591151853182883 
0.3099999999999822, -1.0585658538073903 
0.3199999999999811, -1.0582916413607342 
0.32999999999998, -1.0582126300098598 
0.3399999999999789, -1.058227691000319 
0.3499999999999778, -1.0582400394257538 
0.35999999999997667, -1.0581687038641245 
0.36999999999997557, -1.0579467132927305 
0.37999999999997447, -1.0575151359903017 
0.38999999999997337, -1.0568212397744123 
0.39999999999997227, -1.0558238355040965 
0.40999999999997117, -1.0545028916827892 
0.41999999999997006, -1.052866759527408 
0.42999999999996896, -1.0509522744171786 
0.43999999999996786, -1.0488194509982431 
0.44999999999996676, -1.0465466187687373 
0.45999999999996566, -1.0442295106152595 
0.46999999999996456, -1.0419820904249473 
0.47999999999996346, -1.0399325395589807 
0.48999999999996235, -1.038207151584156 
0.49999999999996125, -1.036900088884496 
0.5099999999999602, -1.0360395847565296 
0.519999999999959, -1.0355729765725061 
0.529999999999958, -1.035385705098117 
0.5399999999999568, -1.03534255374829 
0.5499999999999557, -1.0353226977258019 
0.5599999999999546, -1.0352317094835772 
0.5699999999999535, -1.0349945664388107 
0.5799999999999524, -1.0345425918944826 
0.5899999999999513, -1.0338049911005835 
0.5999999999999502, -1.0327109243042707 
0.6099999999999491, -1.031203127971828 
0.619999999999948, -1.029257382509242 
0.6299999999999469, -1.0268966385126812 
0.6399999999999458, -1.0241915836415374 
0.6499999999999447, -1.021250336576292 
0.6599999999999436, -1.0182070645083376 
0.6699999999999425, -1.015215184150823 
0.6799999999999414, -1.0124411413955678 
0.6899999999999403, -1.0100489331787768 
0.6999999999999392, -1.008168927980819 
0.7099999999999381, -1.0068584904791473 
0.719999999999937, -1.006078192998848 
0.7299999999999359, -1.0057056455044466 
0.7399999999999348, -1.0055814623553045 
0.7499999999999337, -1.005556483269183 
0.7599999999999326, -1.0055147921159506 
0.7699999999999315, -1.0053710817093893 
0.7799999999999304, -1.0050555493233981 
0.7899999999999293, -1.0044991865019928 
0.7999999999999282, -1.0036273081846772 
0.8099999999999271, -1.0023655023660039 
0.819999999999926, -1.0006578583787222 
0.8299999999999249, -0.9984898007748928 
0.8399999999999238, -0.9959020388766952 
0.8499999999999227, -0.9929870981459648 
0.8599999999999216, -0.9898734578765399 
0.8699999999999205, -0.9867096203870427 
0.8799999999999194, -0.9836543988777733 
0.8899999999999183, -0.9808690076542312 
0.8999999999999172, -0.9785017147854506 
0.9099999999999161, -0.9766605663944835 
0.919999999999915, -0.9753823055934203 
0.9299999999999139, -0.974617191845797 
0.9399999999999128, -0.9742451478159572 
0.9499999999999117, -0.9741163421665441 
0.9599999999999106, -0.9740911714313489 
0.9699999999999095, -0.9740599510607784 
0.9799999999999084, -0.9739413338115736 
0.9899999999999073, -0.9736701686969551 
0.9999999999999062, -0.9731857616033711 
1.0099999999999052, -0.9724274632454074 
1.019999999999904, -0.9713406677785471 
1.029999999999903, -0.9698915464282614 
1.039999999999902, -0.9680825625759478 
1.0499999999999008, -0.9659581730278506 
1.0599999999998997, -0.9635967450205918 
1.0699999999998986, -0.9610955548010536 
1.0799999999998975, -0.958559055153915 
1.0899999999998964, -0.9560942181943425 
1.0999999999998953, -0.9538089848668637 
1.1099999999998942, -0.9518070672132091 
1.119999999999893, -0.9501748140221589 
1.129999999999892, -0.9489618703735166 
1.1399999999998909, -0.9481645169711262 
1.1499999999998898, -0.9477233615237235 
1.1599999999998887, -0.9475399217593174 
1.1699999999998876, -0.9475035432172423 
1.1799999999998865, -0.9475138444371594 
1.1899999999998854, -0.9474900714012916 
1.1999999999998843, -0.9473691884963988 
1.2099999999998832, -0.9470999643322647 
1.219999999999882, -0.9466396959364978 
1.229999999999881, -0.9459566411006188 
1.2399999999998799, -0.9450366398095976 
1.2499999999998788, -0.9438885321305642 
1.2599999999998777, -0.9425431021630475 
1.2699999999998766, -0.9410455274902159 
1.2799999999998755, -0.9394467420680177 
1.2899999999998744, -0.9377990275958522 
1.2999999999998733, -0.9361565842505334 
1.3099999999998722, -0.9345779324506054 
1.319999999999871, -0.9331262039867261 
1.32999999999987, -0.9318647545006064 
1.3399999999998689, -0.9308477617649229 
1.3499999999998678, -0.9301080770027077 
1.3599999999998666, -0.92964703554 
1.3699999999998655, -0.929431661894468 
1.3799999999998644, -0.9294018589897943 
1.3899999999998633, -0.9294845401824935 
1.3999999999998622, -0.9296078075483049 
1.4099999999998611, -0.9297097661913092 
1.41999999999986, -0.9297414200129704 
1.429999999999859, -0.929666614337143 
1.4399999999998578, -0.9294619456775131 
1.4499999999998567, -0.9291171087610989 
1.4599999999998556, -0.9286340029942487 
1.4699999999998545, -0.9280233307371699 
1.4799999999998534, -0.9273000053594845 
1.4899999999998523, -0.9264803417898186 
1.4999999999998512, -0.9255826861327499 
1.5099999999998501, -0.9246305078944973 
1.519999999999849, -0.9236557116973373 
1.529999999999848, -0.9227003115732669 
1.5399999999998468, -0.9218152350558471 
1.5499999999998457, -0.9210554051736958 
1.5599999999998446, -0.9204712114479827 
1.5699999999998435, -0.920098321461434 
1.5799999999998424, -0.9199493146068107 
1.5899999999998413, -0.9200104611610243 
1.5999999999998402, -0.9202450305065089 
1.6099999999998391, -0.92060180425586 
1.619999999999838, -0.9210254044621882 
1.629999999999837, -0.921464869131405 
1.6399999999998358, -0.9218785747356648 
1.6499999999998347, -0.922235534200375 
1.6599999999998336, -0.9225139417028515 
1.6699999999998325, -0.9226979647306013 
1.6799999999998314, -0.9227743008166606 
1.6899999999998303, -0.9227306791553319 
1.6999999999998292, -0.9225577306180537 
1.709999999999828, -0.9222532127956861 
1.719999999999827, -0.9218258147107321 
1.729999999999826, -0.9212967695160351 
1.7399999999998248, -0.9206999441116348 
1.7499999999998237, -0.9200819089082468 
1.7599999999998226, -0.9195018351334022 
1.7699999999998215, -0.9190288007753591 
1.7799999999998204, -0.9187338066792842 
1.7899999999998193, -0.9186767442441287 
1.7999999999998182, -0.9188929319463772 
1.809999999999817, -0.9193855366100587 
1.819999999999816, -0.9201271367180599 
1.8299999999998149, -0.9210685997338042 
1.8399999999998138, -0.9221504459049793 
1.8499999999998127, -0.923312103080786 
1.8599999999998116, -0.9244965164904082 
1.8699999999998105, -0.9256500371818259 
1.8799999999998094, -0.9267198120984508 
1.8899999999998083, -0.9276525910414147 
1.8999999999998072, -0.9283986167905557 
1.909999999999806, -0.928920675243716 
1.919999999999805, -0.9292032187140686 
1.9299999999998039, -0.9292551734671394 
1.9399999999998028, -0.9291050922365247 
1.9499999999998017, -0.9287935438418986 
1.9599999999998006, -0.9283689265536376 
1.9699999999997995, -0.9278895103960141 
1.9799999999997984, -0.9274300500504937 
1.9899999999997973, -0.9270875348380354 
1.9999999999997962, -0.9269784301670226 
2.0099999999998173, -0.9272218640274096 
2.0199999999998384, -0.9279117607228702 
2.0299999999998595, -0.9290909123506707 
2.0399999999998806, -0.9307408204914072 
2.0499999999999017, -0.9327902234934404 
2.059999999999923, -0.9351332641017424 
2.069999999999944, -0.9376456902030752 
2.079999999999965, -0.9401936610221575 
2.089999999999986, -0.9426380636312558 
2.100000000000007, -0.9448423584308072 
2.1100000000000283, -0.9466900017602671 
2.1200000000000494, -0.9481074613809829 
2.1300000000000705, -0.9490786752370513 
2.1400000000000916, -0.9496395744067788 
2.1500000000001127, -0.9498564938073504 
2.160000000000134, -0.9498030701611773 
2.170000000000155, -0.9495473026382453 
2.180000000000176, -0.9491518214982688 
2.190000000000197, -0.9486852354357799 
2.2000000000002182, -0.9482406708113933 
2.2100000000002393, -0.9479546131517622 
2.2200000000002604, -0.9480131861004818 
2.2300000000002815, -0.9486303008888701 
2.2400000000003026, -0.9499940141482917 
2.2500000000003237, -0.9522028716142096 
2.260000000000345, -0.9552279674655489 
2.270000000000366, -0.9589184004459576 
2.280000000000387, -0.9630363583413258 
2.290000000000408, -0.9672972208502518 
2.3000000000004293, -0.9714043834025503 
2.3100000000004504, -0.9750854139788094 
2.3200000000004715, -0.9781353308168963 
2.3300000000004926, -0.9804545116819424 
2.3400000000005137, -0.9820566834105247 
2.3500000000005348, -0.983038335421976 
2.360000000000556, -0.9835294418500631 
2.370000000000577, -0.9836533672007226 
2.380000000000598, -0.9835088923340937 
2.390000000000619, -0.983172007402979 
2.4000000000006403, -0.9827111955851031 
2.4100000000006614, -0.982212400324318 
2.4200000000006825, -0.9818098746281491 
2.4300000000007036, -0.9817111666017979 
2.4400000000007247, -0.9821918488278758 
2.450000000000746, -0.9835367105016088 
2.460000000000767, -0.9859383403129931 
2.470000000000788, -0.9894096165098244 
2.480000000000809, -0.9937654742579756 
2.49000000000083, -0.9986741229409466 
2.5000000000008513, -1.003734872439617 
2.5100000000008724, -1.0085490495095288 
2.5200000000008935, -1.0127800873142039 
2.5300000000009146, -1.0162058161915537 
2.5400000000009357, -1.018749155464414 
2.550000000000957, -1.0204666048154922 
2.560000000000978, -1.0214972415110957 
2.570000000000999, -1.0220021375573396 
2.58000000000102, -1.022123027234617 
2.5900000000010412, -1.0219682498114238 
2.6000000000010624, -1.0216194211578777 
2.6100000000010835, -1.0211511328664873 
2.6200000000011046, -1.0206594922430678 
2.6300000000011257, -1.0202936619932956 
2.6400000000011468, -1.0202735415976987 
2.650000000001168, -1.020865459370627 
2.660000000001189, -1.0223020167810164 
2.67000000000121, -1.0246816358023756 
2.680000000001231, -1.027917272411695 
2.6900000000012523, -1.0317666876845313 
2.7000000000012734, -1.0359093333935516 
2.7100000000012945, -1.0400173663703374 
2.7200000000013156, -1.0438009167154996 
2.7300000000013367, -1.0470374005667442 
2.740000000001358, -1.0495949582618056 
2.750000000001379, -1.051443765219139 
2.7600000000014, -1.05264263337093 
2.770000000001421, -1.0533027307876324 
2.780000000001442, -1.0535472066403435 
2.7900000000014633, -1.0534850357348726 
2.8000000000014844, -1.0532047207019763 
2.8100000000015055, -1.0527841845592847 
2.8200000000015266, -1.0523109352993583 
2.8300000000015477, -1.051904664510274 
2.840000000001569, -1.0517277038922752 
2.85000000000159, -1.05196383494868 
2.860000000001611, -1.0527608343284593 
2.870000000001632, -1.054167795486702 
2.8800000000016532, -1.056113863651039 
2.8900000000016743, -1.0584406247982936 
2.9000000000016954, -1.0609566049143584 
2.9100000000017165, -1.063478717691097 
2.9200000000017377, -1.0658505234737665 
2.9300000000017588, -1.0679465083664206 
2.94000000000178, -1.0696746567609323 
2.950000000001801, -1.0709823868778447 
2.960000000001822, -1.0718615085958274 
2.970000000001843, -1.0723445001535614 
2.9800000000018643, -1.0724906676775183 
2.9900000000018854, -1.0723695698198878 
3.0000000000019065, -1.0720509816921224 
3.0100000000019276, -1.0716055605769674 
3.0200000000019487, -1.07111385378006 
3.03000000000197, -1.0706756384264715 
3.040000000001991, -1.0704075089791645 
3.050000000002012, -1.0704199643395627 
3.060000000002033, -1.070781440125951 
3.070000000002054, -1.0714932889976831 
3.0800000000020753, -1.0724935935950346 
3.0900000000020964, -1.0736834039767724 
3.1000000000021175, -1.074955801675934 
3.1100000000021386, -1.076214885802004 
3.1200000000021597, -1.0773830278645584 
3.130000000002181, -1.0784003884121443 
3.140000000002202, -1.0792217721740212 
3.150000000002223, -1.0798149216534119 
3.160000000002244, -1.080161856658715 
3.1700000000022652, -1.0802615834571614 
3.1800000000022863, -1.080130892776468 
3.1900000000023074, -1.0798019861357904 
3.2000000000023285, -1.0793192596289878 
3.2100000000023496, -1.0787384630926558 
3.2200000000023707, -1.0781282268646548 
3.230000000002392, -1.0775692313391683 
3.240000000002413, -1.077144828585199 
3.250000000002434, -1.0769225336233734 
3.260000000002455, -1.0769351810561685 
3.2700000000024763, -1.0771729318386596 
3.2800000000024974, -1.0775892149448028 
3.2900000000025185, -1.0781152540266428 
3.3000000000025396, -1.0786762039741293 
3.3100000000025607, -1.0792038894413012 
3.3200000000025818, -1.0796436991693932 
3.330000000002603, -1.0799560571787807 
3.340000000002624, -1.0801146814990976 
3.350000000002645, -1.080103811607621 
3.360000000002666, -1.0799159391550521 
3.3700000000026873, -1.0795510737866443 
3.3800000000027084, -1.0790177588982341 
3.3900000000027295, -1.0783350846088058 
3.4000000000027506, -1.0775347838333553 
3.4100000000027717, -1.0766628565870324 
3.420000000002793, -1.0757796108371198 
3.430000000002814, -1.0749557183322453 
3.440000000002835, -1.0742623316863154 
3.450000000002856, -1.0737566506673555 
3.460000000002877, -1.0734676966353323 
3.4700000000028983, -1.0733876141922074 
3.4800000000029194, -1.0734725061588466 
3.4900000000029405, -1.0736537121714025 
3.5000000000029616, -1.073854671004269 
3.5100000000029827, -1.07400498767633 
3.520000000003004, -1.07404701098278 
3.530000000003025, -1.073936781266776 
3.540000000003046, -1.073643646259624 
3.550000000003067, -1.0731505495090228 
3.5600000000030882, -1.0724540480860383 
3.5700000000031094, -1.0715628328675766 
3.5800000000031305, -1.0704955312775672 
3.5900000000031516, -1.0692798826825511 
3.6000000000031727, -1.0679543547419 
3.6100000000031938, -1.066571152936947 
3.620000000003215, -1.0651980236490015 
3.630000000003236, -1.063915729990807 
3.640000000003257, -1.0628086514260702 
3.650000000003278, -1.0619478925296428 
3.6600000000032993, -1.06137031748556 
3.6700000000033204, -1.0610628905420223 
3.6800000000033415, -1.0609637453723257 
3.6900000000033626, -1.0609817952015714 
3.7000000000033837, -1.061022098226852 
3.710000000003405, -1.0610017780383298 
3.720000000003426, -1.060852567140726 
3.730000000003447, -1.0605165973486312 
3.740000000003468, -1.0599438413025803 
3.750000000003489, -1.0590953605692563 
3.7600000000035103, -1.057950709574008 
3.7700000000035314, -1.0565139590274135 
3.7800000000035525, -1.0548139632969113 
3.7900000000035736, -1.052899936488385 
3.8000000000035947, -1.0508373119289744 
3.810000000003616, -1.0487072564438988 
3.820000000003637, -1.0466083853476136 
3.830000000003658, -1.0446553075307001 
3.840000000003679, -1.0429674565882474 
3.8500000000037002, -1.0416445672122525 
3.8600000000037213, -1.0407344554757327 
3.8700000000037424, -1.040211198313465 
3.8800000000037635, -1.039982288873796 
3.8900000000037847, -1.039922597055347 
3.9000000000038058, -1.0399111879933867 
3.910000000003827, -1.0398497185688567 
3.920000000003848, -1.0396605606863778 
3.930000000003869, -1.0392756408426176 
3.94000000000389, -1.0386274135257303 
3.9500000000039113, -1.0376489036224577 
3.9600000000039324, -1.0362846015543263 
3.9700000000039535, -1.0345076222521166 
3.9800000000039746, -1.0323331644059457 
3.9900000000039957, -1.0298202188567158 
4.000000000004016, -1.027063056458409 
4.010000000003993, -1.0241812206508778 
4.02000000000397, -1.0213139100403843 
4.030000000003946, -1.0186159196496325 
4.040000000003923, -1.0162460741270274 
4.0500000000039, -1.01434044636703 
4.0600000000038765, -1.0129739760966014 
4.070000000003853, -1.012130859283102 
4.08000000000383, -1.0117082859714972 
4.090000000003807, -1.011555794819726 
4.100000000003783, -1.0115235920161694 
4.11000000000376, -1.0114910504563832 
4.120000000003737, -1.0113687082314073 
4.130000000003713, -1.0110849902593269 
4.14000000000369, -1.010571194094254 
4.150000000003667, -1.0097535853240978 
4.1600000000036434, -1.0085573895930957 
4.17000000000362, -1.0069232826713284 
4.180000000003597, -1.004829844584984 
4.1900000000035735, -1.0023090796801704 
4.20000000000355, -0.9994454668545154 
4.210000000003527, -0.9963618266476282 
4.220000000003504, -0.9932037599277713 
4.23000000000348, -0.990129799921309 
4.240000000003457, -0.987303786118989 
4.250000000003434, -0.9848801474945128 
4.26000000000341, -0.9829764921498276 
4.270000000003387, -0.981640425757386 
4.280000000003364, -0.9808306625727136 
4.2900000000033405, -0.9804302972724621 
4.300000000003317, -0.980287559717772 
4.310000000003294, -0.980258433021209 
4.320000000003271, -0.980229016229824 
4.330000000003247, -0.980115106054018 
4.340000000003224, -0.9798497911269463 
4.350000000003201, -0.979370692917837 
4.360000000003177, -0.9786143199876145 
4.370000000003154, -0.9775211601364461 
4.380000000003131, -0.976050619374592 
4.390000000003107, -0.9741983855104595 
4.400000000003084, -0.9720048911005957 
4.410000000003061, -0.9695490722866232 
4.4200000000030375, -0.9669331785873496 
4.430000000003014, -0.9642695054381536 
4.440000000002991, -0.9616742104884322 
4.450000000002968, -0.9592647898955414 
4.460000000002944, -0.9571540183828778 
4.470000000002921, -0.9554354075844481 
4.480000000002898, -0.9541619463621227 
4.490000000002874, -0.9533281212444484 
4.500000000002851, -0.9528682675083561 
4.510000000002828, -0.9526758027072788 
4.520000000002804, -0.9526330511244179 
4.530000000002781, -0.9526350830164951 
4.540000000002758, -0.9525986928890375 
4.5500000000027345, -0.9524592199173817 
4.560000000002711, -0.9521633483305536 
4.570000000002688, -0.9516650274604489 
4.580000000002665, -0.9509279407200528 
4.590000000002641, -0.9499332782680809 
4.600000000002618, -0.9486871369901623 
4.610000000002595, -0.9472211444584875 
4.620000000002571, -0.9455851108546277 
4.630000000002548, -0.9438371045723976 
4.640000000002525, -0.9420373466139758 
4.6500000000025015, -0.9402476487400214 
4.660000000002478, -0.9385333826581561 
4.670000000002455, -0.9369635777562209 
4.6800000000024315, -0.9356060701139329 
4.690000000002408, -0.9345171732980141 
4.700000000002385, -0.9337284632709407 
4.710000000002362, -0.933236222367951 
4.720000000002338, -0.9329997476357896 
4.730000000002315, -0.9329508563831622 
4.740000000002292, -0.9330101719234264 
4.750000000002268, -0.9331020492784795 
4.760000000002245, -0.9331627064097946 
4.770000000002222, -0.9331419074460842 
4.7800000000021985, -0.9330020772180653 
4.790000000002175, -0.9327182305512792 
4.800000000002152, -0.932279146099039 
4.810000000002129, -0.9316875626654981 
4.820000000002105, -0.9309573081086547 
4.830000000002082, -0.9301082051648034 
4.840000000002059, -0.9291620540338841 
4.850000000002035, -0.9281421454204045 
4.860000000002012, -0.9270758584490617 
4.870000000001989, -0.9259980143414894 
4.880000000001965, -0.9249526702409975 
4.890000000001942, -0.9239917671390578 
4.900000000001919, -0.9231698147282572 
4.9100000000018955, -0.9225350455613001 
4.920000000001872, -0.9221192618538918 
4.930000000001849, -0.92192990044579 
