t, s[1].omega / s[0].omega 
0, -0.7399976771141694 
0.009999999999999995, -0.7397540510682838 
0.019999999999999934, -0.7394807560971712 
0.029999999999999874, -0.7391605024044752 
0.04000000000000012, -0.7387759388433554 
0.050000000000000405, -0.7383193736292332 
0.06000000000000069, -0.7377980567131284 
0.07000000000000098, -0.7372354485488728 
0.08000000000000126, -0.7366716487113183 
0.09000000000000155, -0.7361653683837602 
0.10000000000000184, -0.7357972531654242 
0.11000000000000212, -0.7356721597678101 
0.12000000000000241, -0.7359172864391348 
0.130000000000002, -0.7366742954524307 
0.1400000000000009, -0.7380863676353414 
0.1499999999999998, -0.7402837234516078 
0.1599999999999987, -0.7433710921617807 
0.1699999999999976, -0.7474168934847245 
0.1799999999999965, -0.7524382456422074 
0.1899999999999954, -0.7583724616220249 
0.1999999999999943, -0.7650308556159867 
0.2099999999999932, -0.7720522247007185 
0.2199999999999921, -0.7789078430208987 
0.229999999999991, -0.7850154437047304 
0.2399999999999899, -0.7899379425069435 
0.2499999999999888, -0.7935286281510355 
0.2599999999999877, -0.7959113374864438 
0.2699999999999866, -0.7973437942913864 
0.2799999999999855, -0.7980871959979512 
0.2899999999999844, -0.798341607834769 
0.2999999999999833, -0.7982341463841791 
0.3099999999999822, -0.7978296113091778 
0.3199999999999811, -0.7971457116285052 
0.32999999999998, -0.7961695924722596 
0.3399999999999789, -0.7948835189753758 
0.3499999999999778, -0.7933193678382434 
0.35999999999997667, -0.7916762177082589 
0.36999999999997557, -0.7905417238452108 
0.37999999999997447, -0.7912111283731411 
0.38999999999997337, -0.7959094149934123 
0.39999999999997227, -0.8073781862857548 
0.40999999999997117, -0.8272520668141476 
0.41999999999997006, -0.8539178127842801 
0.42999999999996896, -0.8823976966397178 
0.43999999999996786, -0.9073162715869827 
0.44999999999996676, -0.9258958983754516 
0.45999999999996566, -0.9382328920806703 
0.46999999999996456, -0.9458219627009518 
0.47999999999996346, -0.9502678436841299 
0.48999999999996235, -0.9527718347115494 
0.49999999999996125, -0.9540988178463403 
0.5099999999999602, -0.9546918315240879 
0.519999999999959, -0.9547831922932556 
0.529999999999958, -0.9544648267083552 
0.5399999999999568, -0.9537185160915154 
0.5499999999999557, -0.9524111698581773 
0.5599999999999546, -0.9502555287965407 
0.5699999999999535, -0.9467348236457852 
0.5799999999999524, -0.9410051651958696 
0.5899999999999513, -0.9318491682190814 
0.5999999999999502, -0.9178805491464891 
0.6099999999999491, -0.8982940527662946 
0.619999999999948, -0.8741372667760618 
0.6299999999999469, -0.8490772130224918 
0.6399999999999458, -0.8280902255266639 
0.6499999999999447, -0.8144548830341826 
0.6599999999999436, -0.8080696183443221 
0.6699999999999425, -0.8066008522515687 
0.6799999999999414, -0.8075242514811958 
0.6899999999999403, -0.8091638395924727 
0.6999999999999392, -0.8107106238263931 
0.7099999999999381, -0.8118888970575542 
0.719999999999937, -0.8126651735977859 
0.7299999999999359, -0.8130824734417634 
0.7399999999999348, -0.813184472549015 
0.7499999999999337, -0.8129838320690326 
0.7599999999999326, -0.8124455492952917 
0.7699999999999315, -0.8114707822550473 
0.7799999999999304, -0.8098771398557204 
0.7899999999999293, -0.8073840658251237 
0.7999999999999282, -0.8036321587381078 
0.8099999999999271, -0.7982822365309414 
0.819999999999926, -0.7912075165048211 
0.8299999999999249, -0.7826767220579871 
0.8399999999999238, -0.7733463476993885 
0.8499999999999227, -0.7640241168620128 
0.8599999999999216, -0.7553934190746353 
0.8699999999999205, -0.747881200298972 
0.8799999999999194, -0.7416726014331803 
0.8899999999999183, -0.736782410043202 
0.8999999999999172, -0.7331195717579709 
0.9099999999999161, -0.7305295731074136 
0.919999999999915, -0.7288225851925579 
0.9299999999999139, -0.7277966159780378 
0.9399999999999128, -0.7272584263546096 
0.9499999999999117, -0.7270397513808484 
0.9599999999999106, -0.7270057521754353 
0.9699999999999095, -0.727055365758247 
0.9799999999999084, -0.7271162383811032 
0.9899999999999073, -0.7271382123951504 
0.9999999999999062, -0.7270887249216376 
1.0099999999999052, -0.7269515157154678 
1.019999999999904, -0.726727220755244 
1.029999999999903, -0.7264319877664551 
1.039999999999902, -0.7260906836650602 
1.0499999999999008, -0.7257256260505027 
1.0599999999998997, -0.7253465685858207 
1.0699999999998986, -0.724947940824926 
1.0799999999998975, -0.7245146835610347 
1.0899999999998964, -0.7240326250456107 
1.0999999999998953, -0.7234975472350115 
1.1099999999998942, -0.7229198500888885 
1.119999999999893, -0.7223258999115647 
1.129999999999892, -0.7217589349568728 
1.1399999999998909, -0.7212811722091732 
1.1499999999998898, -0.7209764415406668 
1.1599999999998887, -0.7209510699718653 
1.1699999999998876, -0.7213306624134831 
1.1799999999998865, -0.7222519765489259 
1.1899999999998854, -0.7238514844981232 
1.1999999999998843, -0.7262536742046439 
1.2099999999998832, -0.7295609014531561 
1.219999999999882, -0.7338424374521799 
1.229999999999881, -0.739115215401498 
1.2399999999998799, -0.7453068445388398 
1.2499999999998788, -0.7522001058920758 
1.2599999999998777, -0.759385740854966 
1.2699999999998766, -0.7662870375622023 
1.2799999999998755, -0.7723087554578196 
1.2899999999998744, -0.7770526796741632 
1.2999999999998733, -0.7804373820825381 
1.3099999999998722, -0.7826375961271552 
1.319999999999871, -0.783930703843762 
1.32999999999987, -0.7845747054894693 
1.3399999999998689, -0.7847572512183413 
1.3499999999998678, -0.7845916261551793 
1.3599999999998666, -0.7841291925531058 
1.3699999999998655, -0.7833729669279716 
1.3799999999998644, -0.7822902859762695 
1.3899999999998633, -0.7808319540882971 
1.3999999999998622, -0.7789755627463315 
1.4099999999998611, -0.7768236094495915 
1.41999999999986, -0.7747906205330358 
1.429999999999859, -0.7738616145327343 
1.4399999999998578, -0.7757181704640134 
1.4499999999998567, -0.7822611952086617 
1.4599999999998556, -0.7942804189010665 
1.4699999999998545, -0.81031467008281 
1.4799999999998534, -0.8273330671931894 
1.4899999999998523, -0.8425932302766043 
1.4999999999998512, -0.8546669908073712 
1.5099999999998501, -0.8633524015793224 
1.519999999999849, -0.8691683764629797 
1.529999999999848, -0.8728604449210542 
1.5399999999998468, -0.8750996831915117 
1.5499999999998457, -0.876378459734846 
1.5599999999998446, -0.8770153381301202 
1.5699999999998435, -0.8771924631030114 
1.5799999999998424, -0.8769876291776375 
1.5899999999998413, -0.8763877484079133 
1.5999999999998402, -0.8752782829367884 
1.6099999999998391, -0.8734021751148331 
1.619999999999838, -0.8702799010361746 
1.629999999999837, -0.8650938187773753 
1.6399999999998358, -0.8565982555165734 
1.6499999999998347, -0.8432598173950646 
1.6599999999998336, -0.82395636596094 
1.6699999999998325, -0.7991989998133124 
1.6799999999998314, -0.7717930687829864 
1.6899999999998303, -0.7457309420229035 
1.6999999999998292, -0.7241256543631052 
1.709999999999828, -0.708147393440587 
1.719999999999827, -0.697385353853951 
1.729999999999826, -0.6907015817974471 
1.7399999999998248, -0.6868666035863531 
1.7499999999998237, -0.6848559170723184 
1.7599999999998226, -0.6839244066897802 
1.7699999999998215, -0.6835772615092403 
1.7799999999998204, -0.6835075331861598 
1.7899999999998193, -0.6835337785218807 
1.7999999999998182, -0.6835504292476191 
1.809999999999817, -0.6834931837143166 
1.819999999999816, -0.6833177285156194 
1.8299999999998149, -0.6829896542647029 
1.8399999999998138, -0.6824840687447996 
1.8499999999998127, -0.6817926892140052 
1.8599999999998116, -0.680932811097533 
1.8699999999998105, -0.6799492253084228 
1.8799999999998094, -0.6789031944848427 
1.8899999999998083, -0.6778528550285581 
1.8999999999998072, -0.676836920811694 
1.909999999999806, -0.675870231798305 
1.919999999999805, -0.6749505732771397 
1.9299999999998039, -0.6740704162089898 
1.9399999999998028, -0.6732273564271702 
1.9499999999998017, -0.6724304472757088 
1.9599999999998006, -0.6717029265241174 
1.9699999999997995, -0.67108306130649 
1.9799999999997984, -0.67062417737434 
1.9899999999997973, -0.6703938240930591 
1.9999999999997962, -0.6704715690805678 
2.0099999999998173, -0.6709453440122034 
2.0199999999998384, -0.6719071183127505 
2.0299999999998595, -0.6734491791318573 
2.0399999999998806, -0.675661732661357 
2.0499999999999017, -0.6786305977212799 
2.059999999999923, -0.6824306038211538 
2.069999999999944, -0.6871067401271517 
2.079999999999965, -0.6926337997085115 
2.089999999999986, -0.6988533573520515 
2.100000000000007, -0.7054146548567163 
2.1100000000000283, -0.7117858066836903 
2.1200000000000494, -0.7173943373100939 
2.1300000000000705, -0.7218428749855501 
2.1400000000000916, -0.7250345609625736 
2.1500000000001127, -0.7271200224039222 
2.160000000000134, -0.7283515220698873 
2.170000000000155, -0.7289660964747465 
2.180000000000176, -0.7291358331383091 
2.190000000000197, -0.7289619888848956 
2.2000000000002182, -0.7284834219127099 
2.2100000000002393, -0.7276832036886549 
2.2200000000002604, -0.7264875204036703 
2.2300000000002815, -0.7247551598781246 
2.2400000000003026, -0.7222564420464078 
2.2500000000003237, -0.7186376790101101 
2.260000000000345, -0.7133568477791463 
2.270000000000366, -0.7055576273355968 
2.280000000000387, -0.6938874057275558 
2.290000000000408, -0.6766005924006988 
2.3000000000004293, -0.6528603798352776 
2.3100000000004504, -0.6250440600521794 
2.3200000000004715, -0.5985803469578893 
2.3300000000004926, -0.5780314183227577 
2.3400000000005137, -0.5644740706952479 
2.3500000000005348, -0.5565335606646158 
2.360000000000556, -0.552288541129587 
2.370000000000577, -0.550209153944398 
2.380000000000598, -0.549303817911114 
2.390000000000619, -0.5489911948734361 
2.4000000000006403, -0.548948715657906 
2.4100000000006614, -0.5490027727484477 
2.4200000000006825, -0.5490605475315969 
2.4300000000007036, -0.5490706606286243 
2.4400000000007247, -0.5490018417080842 
2.450000000000746, -0.5488330350837338 
2.460000000000767, -0.5485515140119982 
2.470000000000788, -0.5481566932828347 
2.480000000000809, -0.5476660550959617 
2.49000000000083, -0.5471173243308194 
2.5000000000008513, -0.5465616203097572 
2.5100000000008724, -0.5460481778174751 
2.5200000000008935, -0.5456080331902698 
2.5300000000009146, -0.5452450433410397 
2.5400000000009357, -0.5449378031074072 
2.550000000000957, -0.5446504663935302 
2.560000000000978, -0.5443468715172539 
2.570000000000999, -0.5440016336342592 
2.58000000000102, -0.5436048179129986 
2.5900000000010412, -0.5431615606166507 
2.6000000000010624, -0.5426908235103067 
2.6100000000010835, -0.5422273003616757 
2.6200000000011046, -0.5418293500720581 
2.6300000000011257, -0.5415956565424167 
2.6400000000011468, -0.541694603245511 
2.650000000001168, -0.5424127089752736 
2.660000000001189, -0.5442307681737815 
2.67000000000121, -0.5479346993395621 
2.680000000001231, -0.554749647984448 
2.6900000000012523, -0.5664166977746052 
2.7000000000012734, -0.584959403708674 
2.7100000000012945, -0.6116773753578688 
2.7200000000013156, -0.6452631133365992 
2.7300000000013367, -0.6807177966842359 
2.740000000001358, -0.7116822114362056 
2.750000000001379, -0.7345546655526839 
2.7600000000014, -0.7495659119007972 
2.770000000001421, -0.7587845420296376 
2.780000000001442, -0.7642762541602179 
2.7900000000014633, -0.7674992422307507 
2.8000000000014844, -0.7693528842674444 
2.8100000000015055, -0.7703602473454971 
2.8200000000015266, -0.7708130062966851 
2.8300000000015477, -0.7708594832150156 
2.840000000001569, -0.7705497431649855 
2.85000000000159, -0.7698502648664215 
2.860000000001611, -0.7686339835707764 
2.870000000001632, -0.7666473475698317 
2.8800000000016532, -0.7634606559803806 
2.8900000000016743, -0.7584343780880802 
2.9000000000016954, -0.7507936646643996 
2.9100000000017165, -0.7399453240817441 
2.9200000000017377, -0.726013556120777 
2.9300000000017588, -0.7101608433207344 
2.94000000000178, -0.6942044911615716 
2.950000000001801, -0.6797818253795207 
2.960000000001822, -0.667809855090089 
2.970000000001843, -0.6584954812179131 
2.9800000000018643, -0.651610006834788 
2.9900000000018854, -0.6467437653250925 
3.0000000000019065, -0.6434567995187657 
3.0100000000019276, -0.6413482338088138 
3.0200000000019487, -0.6400816436593642 
3.03000000000197, -0.6393899104909861 
3.040000000001991, -0.6390705379353261 
3.050000000002012, -0.6389762758899614 
3.060000000002033, -0.6390038382090311 
3.070000000002054, -0.6390829225156849 
3.0800000000020753, -0.6391673330005415 
3.0900000000020964, -0.6392293538043179 
3.1000000000021175, -0.6392574196574017 
3.1100000000021386, -0.6392554614381111 
3.1200000000021597, -0.6392406872160341 
3.130000000002181, -0.639236730425647 
3.140000000002202, -0.6392622390489369 
3.150000000002223, -0.6393193149045671 
3.160000000002244, -0.6393881233186945 
3.1700000000022652, -0.6394316270105301 
3.1800000000022863, -0.6394087162497041 
3.1900000000023074, -0.6392885404890529 
3.2000000000023285, -0.639058568118468 
3.2100000000023496, -0.6387246503241465 
3.2200000000023707, -0.6383074170421431 
3.230000000002392, -0.6378407729082933 
3.240000000002413, -0.6373763030065336 
3.250000000002434, -0.6369955046254347 
3.260000000002455, -0.6368312274200439 
3.2700000000024763, -0.6370997507356808 
3.2800000000024974, -0.6381442075665074 
3.2900000000025185, -0.6404870160427945 
3.3000000000025396, -0.6448807687941217 
3.3100000000025607, -0.6523273977363796 
3.3200000000025818, -0.6639943479638053 
3.330000000002603, -0.6808964977569238 
3.340000000002624, -0.7032148345565505 
3.350000000002645, -0.7294258491888368 
3.360000000002666, -0.7561034144236094 
3.3700000000026873, -0.7793084239895227 
3.3800000000027084, -0.7967087078263042 
3.3900000000027295, -0.8082980637653533 
3.4000000000027506, -0.8154196092110768 
3.4100000000027717, -0.8195820112549427 
3.420000000002793, -0.8219223278846952 
3.430000000002814, -0.8231598529488362 
3.440000000002835, -0.8237081755901052 
3.450000000002856, -0.8237842674641478 
3.460000000002877, -0.8234769251857637 
3.4700000000028983, -0.8227771411692986 
3.4800000000029194, -0.8215764945696262 
3.4900000000029405, -0.8196328719211919 
3.5000000000029616, -0.8164945106101887 
3.5100000000029827, -0.8113699694443841 
3.520000000003004, -0.8029547134574804 
3.530000000003025, -0.7893363395746046 
3.540000000003046, -0.7683759896679913 
3.550000000003067, -0.7391512708320456 
3.5600000000030882, -0.7040370563457122 
3.5700000000031094, -0.6687868267942411 
3.5800000000031305, -0.6391627456921828 
3.5900000000031516, -0.617703664849292 
3.6000000000031727, -0.6037935499554297 
3.6100000000031938, -0.5954811555596196 
3.620000000003215, -0.5908296756726885 
3.630000000003236, -0.5883915223464388 
3.640000000003257, -0.5872161354746883 
3.650000000003278, -0.5867219242357373 
3.6600000000032993, -0.5865681572380892 
3.6700000000033204, -0.5865604870890709 
3.6800000000033415, -0.5865889652517857 
3.6900000000033626, -0.5865899390114618 
3.7000000000033837, -0.5865241545872621 
3.710000000003405, -0.5863660167226745 
3.720000000003426, -0.5861010264118796 
3.730000000003447, -0.5857288333001484 
3.740000000003468, -0.5852677561805809 
3.750000000003489, -0.5847547982066121 
3.7600000000035103, -0.5842368957695669 
3.7700000000035314, -0.583755502590488 
3.7800000000035525, -0.5833323556133557 
3.7900000000035736, -0.5829638026604137 
3.8000000000035947, -0.5826257416715911 
3.810000000003616, -0.5822857521948823 
3.820000000003637, -0.5819160802442271 
3.830000000003658, -0.5815020155492788 
3.840000000003679, -0.581044389172898 
3.8500000000037002, -0.5805590848710926 
3.8600000000037213, -0.5800777441974158 
3.8700000000037424, -0.5796528373398667 
3.8800000000037635, -0.5793691121378465 
3.8900000000037847, -0.5793631953140357 
3.9000000000038058, -0.5798535785015837 
3.910000000003827, -0.5811835779314338 
3.920000000003848, -0.583878618829295 
3.930000000003869, -0.588712538345013 
3.94000000000389, -0.5967558533636657 
3.9500000000039113, -0.6093239570583168 
3.9600000000039324, -0.6276469594557068 
3.9700000000039535, -0.6520467300667014 
3.9800000000039746, -0.6807978262990353 
3.9900000000039957, -0.709855565802517 
4.000000000004016, -0.7346967105872925 
4.010000000003993, -0.7529220440471044 
4.02000000000397, -0.7648372469279581 
4.030000000003946, -0.772084271412379 
4.040000000003923, -0.7763183316713353 
4.0500000000039, -0.7787220468979799 
4.0600000000038765, -0.7800228549126647 
4.070000000003853, -0.7806344986656543 
4.08000000000383, -0.7807747238832404 
4.090000000003807, -0.7805352151902498 
4.100000000003783, -0.7799120228917341 
4.11000000000376, -0.7788042447374586 
4.120000000003737, -0.7769811874920529 
4.130000000003713, -0.7740122256154236 
4.14000000000369, -0.7691596453275733 
4.150000000003667, -0.7612822177855187 
4.1600000000036434, -0.7489309195995422 
4.17000000000362, -0.7309695306872039 
4.180000000003597, -0.7077618987889046 
4.1900000000035735, -0.681892386198211 
4.20000000000355, -0.6571151690469657 
4.210000000003527, -0.6363182902511137 
4.220000000003504, -0.6205465083847718 
4.23000000000348, -0.6094325346215608 
4.240000000003457, -0.6020157270203829 
4.250000000003434, -0.5972847347486099 
4.26000000000341, -0.5943979099138088 
4.270000000003387, -0.5927254131359941 
4.280000000003364, -0.591822959558506 
4.2900000000033405, -0.5913891600438282 
4.300000000003317, -0.5912254276824843 
4.310000000003294, -0.5912037076995892 
4.320000000003271, -0.5912425601306853 
4.330000000003247, -0.591290807497701 
4.340000000003224, -0.5913177537781726 
4.350000000003201, -0.5913088540079221 
4.360000000003177, -0.5912650076475887 
4.370000000003154, -0.5912022955373867 
4.380000000003131, -0.5911482108893592 
4.390000000003107, -0.5911321894833022 
4.400000000003084, -0.5911725023774822 
4.410000000003061, -0.5912652823172968 
4.4200000000030375, -0.5913817522697405 
4.430000000003014, -0.5914762848968447 
4.440000000002991, -0.5915019552890373 
4.450000000002968, -0.5914252618909714 
4.460000000002944, -0.591232745752929 
4.470000000002921, -0.590929058666241 
4.480000000002898, -0.5905318151460834 
4.490000000002874, -0.5900691287494855 
4.500000000002851, -0.5895835086320569 
4.510000000002828, -0.5891445285423101 
4.520000000002804, -0.5888735670587549 
4.530000000002781, -0.5889863317400867 
4.540000000002758, -0.5898615912035146 
4.5500000000027345, -0.5921447684051264 
4.560000000002711, -0.5968842243510686 
4.570000000002688, -0.605652624837159 
4.580000000002665, -0.6204806400379362 
4.590000000002641, -0.6432193395563963 
4.600000000002618, -0.6739741799223488 
4.610000000002595, -0.7093849001549908 
4.620000000002571, -0.7432758618742005 
4.630000000002548, -0.7703965346919717 
4.640000000002525, -0.7892155097394383 
4.6500000000025015, -0.8011107443766017 
4.660000000002478, -0.8082541672475584 
4.670000000002455, -0.8124322787146914 
4.6800000000024315, -0.8148240346103203 
4.690000000002408, -0.8161349917784957 
4.700000000002385, -0.8167648964159262 
4.710000000002362, -0.8169248573184278 
4.720000000002338, -0.8167032595325143 
4.730000000002315, -0.8160931446757166 
4.740000000002292, -0.814988575753979 
4.750000000002268, -0.8131496070689309 
4.760000000002245, -0.8101306933146214 
4.770000000002222, -0.8051768757882902 
4.7800000000021985, -0.7971455908964117 
4.790000000002175, -0.7846440313460554 
4.800000000002152, -0.7666820354519376 
4.810000000002129, -0.7437841786682297 
4.820000000002105, -0.7185315966308956 
4.830000000002082, -0.6944821409393602 
4.840000000002059, -0.6743330581021298 
4.850000000002035, -0.6590776572310557 
4.860000000002012, -0.6483882644610145 
4.870000000001989, -0.6413489891366672 
4.880000000001965, -0.6369649172505468 
4.890000000001942, -0.6343886275242661 
4.900000000001919, -0.6329775804350731 
4.9100000000018955, -0.6322780840554436 
4.920000000001872, -0.6319858511178748 
