t, s[1].omega / s[0].omega 
0, -0.2999978061501882 
0.009999999999999995, -0.29987243433499744 
0.019999999999999934, -0.2999155745578472 
0.029999999999999874, -0.3000782146699097 
0.04000000000000012, -0.3002913099214968 
0.050000000000000405, -0.3004831521940128 
0.06000000000000069, -0.30059588439210533 
0.07000000000000098, -0.30059302675927213 
0.08000000000000126, -0.3004558954094646 
0.09000000000000155, -0.3001731256237361 
0.10000000000000184, -0.2997281030168849 
0.11000000000000212, -0.29908540449344756 
0.12000000000000241, -0.2981730905967205 
0.130000000000002, -0.29685417562086486 
0.1400000000000009, -0.29487858262681577 
0.1499999999999998, -0.2918136885432468 
0.1599999999999987, -0.2869934026042067 
0.1699999999999976, -0.2796389458613644 
0.1799999999999965, -0.26938496853767113 
0.1899999999999954, -0.25702975584706816 
0.1999999999999943, -0.24450042903154595 
0.2099999999999932, -0.23364823490338557 
0.2199999999999921, -0.22526265353519942 
0.229999999999991, -0.21919207604597063 
0.2399999999999899, -0.21491269166032995 
0.2499999999999888, -0.2119016994129491 
0.2599999999999877, -0.20975907687273052 
0.2699999999999866, -0.2082102619815755 
0.2799999999999855, -0.20707753492635966 
0.2899999999999844, -0.2062525012835788 
0.2999999999999833, -0.20567720236504128 
0.3099999999999822, -0.205334159922096 
0.3199999999999811, -0.20524493929794468 
0.32999999999998, -0.20547822072978014 
0.3399999999999789, -0.20617091842289637 
0.3499999999999778, -0.20756965538207117 
0.35999999999997667, -0.21010401169638362 
0.36999999999997557, -0.2144994870086526 
0.37999999999997447, -0.22188974155224309 
0.38999999999997337, -0.2336727289650804 
0.39999999999997227, -0.25031348075738924 
0.40999999999997117, -0.26830507005710286 
0.41999999999997006, -0.27880259509670363 
0.42999999999996896, -0.27557194011227665 
0.43999999999996786, -0.2631483604723625 
0.44999999999996676, -0.24994063371214015 
0.45999999999996566, -0.23998778924402342 
0.46999999999996456, -0.2334732182056347 
0.47999999999996346, -0.22942724674928935 
0.48999999999996235, -0.22694983234946128 
0.49999999999996125, -0.22543712984428077 
0.5099999999999602, -0.22452359026098007 
0.519999999999959, -0.22399698700814435 
0.529999999999958, -0.22373869259417445 
0.5399999999999568, -0.22368859383636389 
0.5499999999999557, -0.22382673306189957 
0.5599999999999546, -0.22416581053245482 
0.5699999999999535, -0.2247513202410231 
0.5799999999999524, -0.22566784494154532 
0.5899999999999513, -0.2270507481673459 
0.5999999999999502, -0.2291014565812528 
0.6099999999999491, -0.23209898994930298 
0.619999999999948, -0.23638454788644622 
0.6299999999999469, -0.24226701472906748 
0.6399999999999458, -0.24978787596191868 
0.6499999999999447, -0.2584075114531551 
0.6599999999999436, -0.26696554548830903 
0.6699999999999425, -0.2742299562491689 
0.6799999999999414, -0.2795888711010522 
0.6899999999999403, -0.2831541374256083 
0.6999999999999392, -0.2853764030428472 
0.7099999999999381, -0.28670207099521133 
0.719999999999937, -0.2874509546319504 
0.7299999999999359, -0.2878209643431024 
0.7399999999999348, -0.2879243994693662 
0.7499999999999337, -0.28781944534049114 
0.7599999999999326, -0.28753187473274344 
0.7699999999999315, -0.2870709890371283 
0.7799999999999304, -0.28644434875509905 
0.7899999999999293, -0.2856729414319831 
0.7999999999999282, -0.28480327062633337 
0.8099999999999271, -0.2839087588324708 
0.819999999999926, -0.2830760458701211 
0.8299999999999249, -0.28238227552210693 
0.8399999999999238, -0.2818759738357117 
0.8499999999999227, -0.28156891223220276 
0.8599999999999216, -0.28143761786634486 
0.8699999999999205, -0.28143104310569955 
0.8799999999999194, -0.28148310548744765 
0.8899999999999183, -0.2815281317738434 
0.8999999999999172, -0.2815137586513462 
0.9099999999999161, -0.2814057333129125 
0.919999999999915, -0.28118384530550233 
0.9299999999999139, -0.2808324735290514 
0.9399999999999128, -0.28032902231157675 
0.9499999999999117, -0.27963020927427096 
0.9599999999999106, -0.2786522245324707 
0.9699999999999095, -0.27723690103996906 
0.9799999999999084, -0.2750936203620493 
0.9899999999999073, -0.27171660418793625 
0.9999999999999062, -0.26633576540288073 
1.0099999999999052, -0.25810654924057264 
1.019999999999904, -0.24679619647490553 
1.029999999999903, -0.23358054708475962 
1.039999999999902, -0.22069782670169627 
1.0499999999999008, -0.2099570884281659 
1.0599999999998997, -0.2019042337686741 
1.0699999999998986, -0.1961944640417186 
1.0799999999998975, -0.1922215528155435 
1.0899999999998964, -0.1894472846978406 
1.0999999999998953, -0.18748113748519496 
1.1099999999998942, -0.1860630457096731 
1.119999999999893, -0.18502824315311656 
1.129999999999892, -0.18427860462949253 
1.1399999999998909, -0.18376439151437607 
1.1499999999998898, -0.18347550805813287 
1.1599999999998887, -0.18344167400815872 
1.1699999999998876, -0.18374278494653007 
1.1799999999998865, -0.18453351296402815 
1.1899999999998854, -0.18608961981538583 
1.1999999999998843, -0.18888424240906734 
1.2099999999998832, -0.19368268996232532 
1.219999999999882, -0.20153473685438295 
1.229999999999881, -0.21317639110333492 
1.2399999999998799, -0.226845273574445 
1.2499999999998788, -0.23534390011842943 
1.2599999999998777, -0.2299222411806296 
1.2699999999998766, -0.21203930315953343 
1.2799999999998755, -0.1920054365898657 
1.2899999999998744, -0.17656324084018724 
1.2999999999998733, -0.16644102304497582 
1.3099999999998722, -0.16017051775189067 
1.319999999999871, -0.15631553442055668 
1.32999999999987, -0.15392266550646633 
1.3399999999998689, -0.15242677116778122 
1.3499999999998678, -0.15150594103410803 
1.3599999999998666, -0.15098262776446453 
1.3699999999998655, -0.15076755115468635 
1.3799999999998644, -0.15083147032394306 
1.3899999999998633, -0.15119490020667953 
1.3999999999998622, -0.1519314926497279 
1.4099999999998611, -0.15318531473905034 
1.41999999999986, -0.15520617569052136 
1.429999999999859, -0.15840984995698815 
1.4399999999998578, -0.16346488489143265 
1.4499999999998567, -0.17136865552740452 
1.4599999999998556, -0.18333866982515673 
1.4699999999998545, -0.20009572704188208 
1.4799999999998534, -0.22032084988590847 
1.4899999999998523, -0.23994438549804104 
1.4999999999998512, -0.25481380719480057 
1.5099999999998501, -0.26394069980838464 
1.519999999999849, -0.2688694131517967 
1.529999999999848, -0.27142318932873516 
1.5399999999998468, -0.272771730046497 
1.5499999999998457, -0.27351425836321747 
1.5599999999998446, -0.27393460217218724 
1.5699999999998435, -0.2741665775982768 
1.5799999999998424, -0.2742753589218307 
1.5899999999998413, -0.2742946727559029 
1.5999999999998402, -0.2742446051994325 
1.6099999999998391, -0.27414186134137497 
1.619999999999838, -0.27400743242628633 
1.629999999999837, -0.273872815432557 
1.6399999999998358, -0.27378351776336973 
1.6499999999998347, -0.2737977503434499 
1.6599999999998336, -0.273979399344684 
1.6699999999998325, -0.27438616801697774 
1.6799999999998314, -0.2750540087160771 
1.6899999999998303, -0.2759788884234553 
1.6999999999998292, -0.27710122761227196 
1.709999999999828, -0.27830626014115517 
1.719999999999827, -0.2794518393210391 
1.729999999999826, -0.28041401716206854 
1.7399999999998248, -0.2811206223438836 
1.7499999999998237, -0.2815532069520974 
1.7599999999998226, -0.2817253730218692 
1.7699999999998215, -0.2816567768941972 
1.7799999999998204, -0.2813535375879941 
1.7899999999998193, -0.2807949592849977 
1.7999999999998182, -0.27992258848318985 
1.809999999999817, -0.27862992344228976 
1.819999999999816, -0.2767587486115023 
1.8299999999998149, -0.27412186551035866 
1.8399999999998138, -0.27058276027800515 
1.8499999999998127, -0.2661932081580368 
1.8599999999998116, -0.2612919767730352 
1.8699999999998105, -0.2564175609199645 
1.8799999999998094, -0.25205958930578964 
1.8899999999998083, -0.2484722461973016 
1.8999999999998072, -0.2456739363947739 
1.909999999999806, -0.24355024509423226 
1.919999999999805, -0.241948187554703 
1.9299999999998039, -0.24072624803120535 
1.9399999999998028, -0.2397718722207871 
1.9499999999998017, -0.2390035262062192 
1.9599999999998006, -0.23836726260952013 
1.9699999999997995, -0.2378322888737417 
1.9799999999997984, -0.23738772706845213 
1.9899999999997973, -0.23704196402663857 
1.9999999999997962, -0.2368257302583389 
2.0099999999998173, -0.23679986457246488 
2.0199999999998384, -0.23706745260634957 
2.0299999999998595, -0.23778317708470692 
2.0399999999998806, -0.23912527750318074 
2.0499999999999017, -0.24110804987253132 
2.059999999999923, -0.24292613623379503 
2.069999999999944, -0.24155656086272717 
2.079999999999965, -0.23120143598193077 
2.089999999999986, -0.20834824562958082 
2.100000000000007, -0.17898968042334062 
2.1100000000000283, -0.15317741133505897 
2.1200000000000494, -0.13512585147540895 
2.1300000000000705, -0.12374722502453273 
2.1400000000000916, -0.11676528885441192 
2.1500000000001127, -0.11243890890240194 
2.160000000000134, -0.10969919709376515 
2.170000000000155, -0.10793304030729242 
2.180000000000176, -0.10679662673969297 
2.190000000000197, -0.10610297106816835 
2.2000000000002182, -0.1057618940614681 
2.2100000000002393, -0.10575220145644974 
2.2200000000002604, -0.10611543896767166 
2.2300000000002815, -0.10696882880135938 
2.2400000000003026, -0.10854257701127165 
2.2500000000003237, -0.11125573454362876 
2.260000000000345, -0.1158541542843812 
2.270000000000366, -0.12362376714404508 
2.280000000000387, -0.1365620462383649 
2.290000000000408, -0.15684797777630033 
2.3000000000004293, -0.1840442372814157 
2.3100000000004504, -0.2108367993341517 
2.3200000000004715, -0.22672723588254926 
2.3300000000004926, -0.22989931609509426 
2.3400000000005137, -0.2267007790830708 
2.3500000000005348, -0.22250467365583057 
2.360000000000556, -0.21923023490462556 
2.370000000000577, -0.21704546987690065 
2.380000000000598, -0.2156726621900833 
2.390000000000619, -0.21483513911293256 
2.4000000000006403, -0.21434142871312992 
2.4100000000006614, -0.2140744800056183 
2.4200000000006825, -0.21396901194554285 
2.4300000000007036, -0.2139951168685994 
2.4400000000007247, -0.21414951955432185 
2.450000000000746, -0.2144529631471473 
2.460000000000767, -0.21495232089194696 
2.470000000000788, -0.21572642192681757 
2.480000000000809, -0.2168944690931796 
2.49000000000083, -0.21862441101711855 
2.5000000000008513, -0.22113333981979538 
2.5100000000008724, -0.22465950029218096 
2.5200000000008935, -0.22936967419251902 
2.5300000000009146, -0.235181350138232 
2.5400000000009357, -0.2415920889649633 
2.550000000000957, -0.2477568319396833 
2.560000000000978, -0.2528984253666711 
2.570000000000999, -0.25668550450587324 
2.58000000000102, -0.2592259069240215 
2.5900000000010412, -0.26081898484058363 
2.6000000000010624, -0.2617564311893414 
2.6100000000010835, -0.26225015975138005 
2.6200000000011046, -0.2624327300448306 
2.6300000000011257, -0.26237795965721655 
2.6400000000011468, -0.2621207606894992 
2.650000000001168, -0.26167312137982723 
2.660000000001189, -0.2610389934519303 
2.67000000000121, -0.26023059769448514 
2.680000000001231, -0.25928438346954996 
2.6900000000012523, -0.2582689557087155 
2.7000000000012734, -0.25727662733295364 
2.7100000000012945, -0.25640015403469646 
2.7200000000013156, -0.2557080687659796 
2.7300000000013367, -0.25523123086887606 
2.740000000001358, -0.25496198155073185 
2.750000000001379, -0.25486056702596743 
2.7600000000014, -0.25486556007774636 
2.770000000001421, -0.25490770733437623 
2.780000000001442, -0.2549244709224114 
2.7900000000014633, -0.25486955716161763 
2.8000000000014844, -0.2547136227938217 
2.8100000000015055, -0.2544373861042205 
2.8200000000015266, -0.254020818063883 
2.8300000000015477, -0.25343031534935323 
2.840000000001569, -0.25260209877072143 
2.85000000000159, -0.25141650098498514 
2.860000000001611, -0.2496556090210876 
2.870000000001632, -0.24694207183801517 
2.8800000000016532, -0.24269160143646373 
2.8900000000016743, -0.23620803686537079 
2.9000000000016954, -0.22712889896554062 
2.9100000000017165, -0.21609906495340642 
2.9200000000017377, -0.20480710306584968 
2.9300000000017588, -0.19495082973239933 
2.94000000000178, -0.18730214512140042 
2.950000000001801, -0.18175961578300254 
2.960000000001822, -0.17785693880283648 
2.970000000001843, -0.17511563389130747 
2.9800000000018643, -0.1731654583569439 
2.9900000000018854, -0.17175034082828455 
3.0000000000019065, -0.17070302461827486 
3.0100000000019276, -0.1699198054716581 
3.0200000000019487, -0.16934273363481067 
3.03000000000197, -0.1689495863746634 
3.040000000001991, -0.1687510691880884 
3.050000000002012, -0.1687956606198618 
3.060000000002033, -0.16918397336393481 
3.070000000002054, -0.17009546249709318 
3.0800000000020753, -0.17182648100891565 
3.0900000000020964, -0.17481208803761814 
3.1000000000021175, -0.17949500567613266 
3.1100000000021386, -0.18560144105782198 
3.1200000000021597, -0.1901554931283713 
3.130000000002181, -0.1858133079395266 
3.140000000002202, -0.16669437746181767 
3.150000000002223, -0.13877258560301334 
3.160000000002244, -0.11370797577403755 
3.1700000000022652, -0.09636486616467498 
3.1800000000022863, -0.08560814543737033 
3.1900000000023074, -0.07909893699070104 
3.2000000000023285, -0.07510822049375102 
3.2100000000023496, -0.0726030067977573 
3.2200000000023707, -0.07100336747410675 
3.230000000002392, -0.06999068925490483 
3.240000000002413, -0.06939693907582477 
3.250000000002434, -0.06914790760787574 
3.260000000002455, -0.06923915382093443 
3.2700000000024763, -0.06973475482649451 
3.2800000000024974, -0.07078838438501558 
3.2900000000025185, -0.072695513627302 
3.3000000000025396, -0.07599667061108376 
3.3100000000025607, -0.08165860495000811 
3.3200000000025818, -0.09131251770287255 
3.330000000002603, -0.10721068191317276 
3.340000000002624, -0.1305641063410466 
3.350000000002645, -0.1567440450770187 
3.360000000002666, -0.17377906352036804 
3.3700000000026873, -0.17510746605981228 
3.3800000000027084, -0.1672395316250392 
3.3900000000027295, -0.15843957218461888 
3.4000000000027506, -0.15185583680654324 
3.4100000000027717, -0.14754307704345648 
3.420000000002793, -0.14483292013696467 
3.430000000002814, -0.14314519655953775 
3.440000000002835, -0.1421016243433575 
3.450000000002856, -0.1414782384399634 
3.460000000002877, -0.14115089864627356 
3.4700000000028983, -0.14105990340663807 
3.4800000000029194, -0.1411916563477224 
3.4900000000029405, -0.1415728555936598 
3.5000000000029616, -0.14227495123668923 
3.5100000000029827, -0.14342926288334903 
3.520000000003004, -0.1452554326545323 
3.530000000003025, -0.14810634871853326 
3.540000000003046, -0.15252453749295752 
3.550000000003067, -0.15926726360450122 
3.5600000000030882, -0.16915375262053217 
3.5700000000031094, -0.1824654224396463 
3.5800000000031305, -0.19794570807952724 
3.5900000000031516, -0.21266479975516392 
3.6000000000031727, -0.22393581354491632 
3.6100000000031938, -0.2311570987697089 
3.620000000003215, -0.23530941681373232 
3.630000000003236, -0.23760070401361663 
3.640000000003257, -0.23886509304180287 
3.650000000003278, -0.239568791599172 
3.6600000000032993, -0.23995289842139672 
3.6700000000033204, -0.2401403738743825 
3.6800000000033415, -0.2401951261624038 
3.6900000000033626, -0.2401524276518998 
3.7000000000033837, -0.24003563726460686 
3.710000000003405, -0.23986719850993948 
3.720000000003426, -0.23967703089897915 
3.730000000003447, -0.23950816107318368 
3.740000000003468, -0.23941776173484747 
3.750000000003489, -0.23947236743422975 
3.7600000000035103, -0.23973805957394306 
3.7700000000035314, -0.24026706162195138 
3.7800000000035525, -0.24108083676571104 
3.7900000000035736, -0.24215103156130108 
3.8000000000035947, -0.24338763387077936 
3.810000000003616, -0.2446509440760365 
3.820000000003637, -0.24579266286062967 
3.830000000003658, -0.2467034204124817 
3.840000000003679, -0.24733447987004178 
3.8500000000037002, -0.24768594788604995 
3.8600000000037213, -0.24777937814263534 
3.8700000000037424, -0.24763315670650693 
3.8800000000037635, -0.24724642169035863 
3.8900000000037847, -0.24658904563641296 
3.9000000000038058, -0.24559493517509717 
3.910000000003827, -0.24416106166003412 
3.920000000003848, -0.24216348779581115 
3.930000000003869, -0.23950834675313012 
3.94000000000389, -0.23622015443926955 
3.9500000000039113, -0.23251439281729178 
3.9600000000039324, -0.22876144689715483 
3.9700000000039535, -0.2253326269033103 
3.9800000000039746, -0.2224551589427357 
3.9900000000039957, -0.22018200769816781 
4.000000000004016, -0.21844964409630724 
4.010000000003993, -0.2171472855871011 
4.02000000000397, -0.21616059739368657 
4.030000000003946, -0.21539111799472915 
4.040000000003923, -0.21476223309651088 
4.0500000000039, -0.2142189182550211 
4.0600000000038765, -0.21372457400692424 
4.070000000003853, -0.21325669669406136 
4.08000000000383, -0.21280246006363046 
4.090000000003807, -0.21235431323334555 
4.100000000003783, -0.21190378632557158 
4.11000000000376, -0.21142731975027634 
4.120000000003737, -0.21084657874959484 
4.130000000003713, -0.20991770554848294 
4.14000000000369, -0.20795415466231465 
4.150000000003667, -0.2033042361406896 
4.1600000000036434, -0.19303641885362435 
4.17000000000362, -0.17466139989526921 
4.180000000003597, -0.15030200049625203 
4.1900000000035735, -0.12662696820619496 
4.20000000000355, -0.10851073237999616 
4.210000000003527, -0.09640961326734922 
4.220000000003504, -0.088737475022757 
4.23000000000348, -0.08388817485699104 
4.240000000003457, -0.08076251923019273 
4.250000000003434, -0.07869474492299294 
4.26000000000341, -0.077297322582832 
4.270000000003387, -0.07634922958020686 
4.280000000003364, -0.07573070868351614 
4.2900000000033405, -0.07538924416511346 
4.300000000003317, -0.07532580706624117 
4.310000000003294, -0.07559670356537947 
4.320000000003271, -0.07633164060367387 
4.330000000003247, -0.07777275972059924 
4.340000000003224, -0.08033810611696432 
4.350000000003201, -0.08468144986121869 
4.360000000003177, -0.0915614972025201 
4.370000000003154, -0.10083264928767777 
4.380000000003131, -0.10847583342684564 
4.390000000003107, -0.10467691132833945 
4.400000000003084, -0.08388560320343194 
4.410000000003061, -0.0561249036460839 
4.4200000000030375, -0.03361272040599321 
4.430000000003014, -0.019104554279166398 
4.440000000002991, -0.01044494262408138 
4.450000000002968, -0.005289366792503049 
4.460000000002944, -0.0021418904870754733 
4.470000000002921, -0.000165942425420845 
4.480000000002898, 0.0007019651518208991 
4.490000000002874, 0.0010427402099086177 
4.500000000002851, 0.0010195384070128236 
4.510000000002828, 0.0006660514724078921 
4.520000000002804, -0.00002944914023409698 
4.530000000002781, -0.0008028188808423354 
4.540000000002758, -0.0023114557287880937 
4.5500000000027345, -0.005011927596526919 
4.560000000002711, -0.00970165513420682 
4.570000000002688, -0.01759699209629332 
4.580000000002665, -0.029754288825804796 
4.590000000002641, -0.04409456146861657 
4.600000000002618, -0.050511546294390273 
4.610000000002595, -0.03777910008894643 
4.620000000002571, -0.012487030331110129 
4.630000000002548, 0.01005527865849827 
4.640000000002525, 0.02461431938775028 
4.6500000000025015, 0.03307675620550515 
4.660000000002478, 0.03786945022703894 
4.670000000002455, 0.04058350909701587 
4.6800000000024315, 0.042102248427799596 
4.690000000002408, 0.042896364874732675 
4.700000000002385, 0.04321112878143401 
4.710000000002362, 0.04316303130157608 
4.720000000002338, 0.04278347952890642 
4.730000000002315, 0.042030328251464945 
4.740000000002292, 0.0407737000550523 
4.750000000002268, 0.03875250846905303 
4.760000000002245, 0.035494940517331874 
4.770000000002222, 0.030229918745981875 
4.7800000000021985, 0.022028317695459425 
4.790000000002175, 0.011164698998633834 
4.800000000002152, 0.003244294982264549 
4.810000000002129, 0.0104666885010608 
4.820000000002105, 0.035278907193655513 
