t, s[1].omega / s[0].omega 
0, -1.2200267708394397 
0.009999999999999995, -1.2223330360467197 
0.019999999999999934, -1.2239332378708534 
0.029999999999999874, -1.224911403163315 
0.04000000000000012, -1.2253814738973072 
0.050000000000000405, -1.2254598957087044 
0.06000000000000069, -1.2252504322237163 
0.07000000000000098, -1.2248444397203229 
0.08000000000000126, -1.2243329136732597 
0.09000000000000155, -1.2238196781495554 
0.10000000000000184, -1.2234195600250588 
0.11000000000000212, -1.223231688533546 
0.12000000000000241, -1.2233031007721051 
0.130000000000002, -1.223614019697326 
0.1400000000000009, -1.2240941027497567 
0.1499999999999998, -1.224650469425384 
0.1599999999999987, -1.2251903940204876 
0.1699999999999976, -1.2256349410849254 
0.1799999999999965, -1.2259242618323694 
0.1899999999999954, -1.226016738454811 
0.1999999999999943, -1.2258857434320753 
0.2099999999999932, -1.2255168410572657 
0.2199999999999921, -1.2249062253756258 
0.229999999999991, -1.2240604897939373 
0.2399999999999899, -1.2229981504227905 
0.2499999999999888, -1.221753342372548 
0.2599999999999877, -1.22038119259951 
0.2699999999999866, -1.2189626669721214 
0.2799999999999855, -1.217604740383086 
0.2899999999999844, -1.2164295253404993 
0.2999999999999833, -1.2155448404775349 
0.3099999999999822, -1.2149991541930942 
0.3199999999999811, -1.2147503136269178 
0.32999999999998, -1.214681892396342 
0.3399999999999789, -1.214655008774694 
0.3499999999999778, -1.2145479426652928 
0.35999999999997667, -1.2142596854959615 
0.36999999999997557, -1.2136898576766655 
0.37999999999997447, -1.2127154011839534 
0.38999999999997337, -1.211177755057442 
0.39999999999997227, -1.2088902067101834 
0.40999999999997117, -1.2056720163629506 
0.41999999999997006, -1.2014073034370436 
0.42999999999996896, -1.1961169198942225 
0.43999999999996786, -1.1900299321920975 
0.44999999999996676, -1.1836363934071867 
0.45999999999996566, -1.1776666471755457 
0.46999999999996456, -1.1729031640872205 
0.47999999999996346, -1.1698268016400348 
0.48999999999996235, -1.1683568783049663 
0.49999999999996125, -1.1679716889840435 
0.5099999999999602, -1.1680801168802568 
0.519999999999959, -1.1682743786104566 
0.529999999999958, -1.1683484679414307 
0.5399999999999568, -1.168208386616358 
0.5499999999999557, -1.1677839077344774 
0.5599999999999546, -1.1669643025289338 
0.5699999999999535, -1.1655406779221116 
0.5799999999999524, -1.1631360726655582 
0.5899999999999513, -1.1591247104462945 
0.5999999999999502, -1.15259829559109 
0.6099999999999491, -1.1425486946547103 
0.619999999999948, -1.1285120781879439 
0.6299999999999469, -1.1116045552689162 
0.6399999999999458, -1.0949597761578969 
0.6499999999999447, -1.0823036251576807 
0.6599999999999436, -1.0754674674111768 
0.6699999999999425, -1.0735311971993242 
0.6799999999999414, -1.074259792410332 
0.6899999999999403, -1.0757921992515418 
0.6999999999999392, -1.0771832651252216 
0.7099999999999381, -1.0781434372175105 
0.719999999999937, -1.0786700811382286 
0.7299999999999359, -1.0788299527784084 
0.7399999999999348, -1.0786695046111836 
0.7499999999999337, -1.0781824005631746 
0.7599999999999326, -1.077289607980616 
0.7699999999999315, -1.0758113200643369 
0.7799999999999304, -1.073425448668385 
0.7899999999999293, -1.069630830864424 
0.7999999999999282, -1.0637891902114065 
0.8099999999999271, -1.0554102212911154 
0.819999999999926, -1.044828980264947 
0.8299999999999249, -1.0339463713483017 
0.8399999999999238, -1.0258897998519525 
0.8499999999999227, -1.0229959910289443 
0.8599999999999216, -1.0249877110134318 
0.8699999999999205, -1.029554654068091 
0.8799999999999194, -1.0343644680687736 
0.8899999999999183, -1.0382017435774897 
0.8999999999999172, -1.0408274629046435 
0.9099999999999161, -1.042442986361688 
0.919999999999915, -1.0433285492033189 
0.9299999999999139, -1.0437038654868427 
0.9399999999999128, -1.0437019707635606 
0.9499999999999117, -1.043376676797791 
0.9599999999999106, -1.0427095933403319 
0.9699999999999095, -1.0416068087905503 
0.9799999999999084, -1.0398874380713898 
0.9899999999999073, -1.0372818675646722 
0.9999999999999062, -1.0334914120097134 
1.0099999999999052, -1.028410634429323 
1.019999999999904, -1.0225925972211687 
1.029999999999903, -1.0177267000819072 
1.039999999999902, -1.0163289547136827 
1.0499999999999008, -1.0200922752263248 
1.0599999999998997, -1.0282289167639624 
1.0699999999998986, -1.0379546441596244 
1.0799999999998975, -1.0466195362120403 
1.0899999999998964, -1.0530328852658883 
1.0999999999998953, -1.0572403351987514 
1.1099999999998942, -1.0597798033941106 
1.119999999999893, -1.0611977065893758 
1.129999999999892, -1.0618896816172776 
1.1399999999998909, -1.0620980117259164 
1.1499999999998898, -1.061948290595408 
1.1599999999998887, -1.0614808905106101 
1.1699999999998876, -1.0606694132541887 
1.1799999999998865, -1.0594341028046066 
1.1899999999998854, -1.0576736195064629 
1.1999999999998843, -1.0553661868235997 
1.2099999999998832, -1.052818594878845 
1.219999999999882, -1.0510766615578666 
1.229999999999881, -1.0521775344095616 
1.2399999999998799, -1.058471043710216 
1.2499999999998788, -1.070742766359436 
1.2599999999998777, -1.0868243838289238 
1.2699999999998766, -1.1027877061465703 
1.2799999999998755, -1.1156222060449335 
1.2899999999998744, -1.1244722173640083 
1.2999999999998733, -1.129962599691647 
1.3099999999998722, -1.1331243149398003 
1.319999999999871, -1.1348212490657037 
1.32999999999987, -1.1356260375072627 
1.3399999999998689, -1.1358745557098842 
1.3499999999998678, -1.135746554938512 
1.3599999999998666, -1.135328781545089 
1.3699999999998655, -1.1346646983425148 
1.3799999999998644, -1.1338132544568762 
1.3899999999998633, -1.1329462165400388 
1.3999999999998622, -1.1324912960508524 
1.4099999999998611, -1.13322885172259 
1.41999999999986, -1.1361134976780907 
1.429999999999859, -1.141714415663404 
1.4399999999998578, -1.1496841290423618 
1.4499999999998567, -1.1588369044584832 
1.4599999999998556, -1.1677640904327995 
1.4699999999998545, -1.1754104972429193 
1.4799999999998534, -1.1812895084519486 
1.4899999999998523, -1.1854024897230393 
1.4999999999998512, -1.1880355149955797 
1.5099999999998501, -1.1895627434597382 
1.519999999999849, -1.1903210127315622 
1.529999999999848, -1.1905620670521624 
1.5399999999998468, -1.1904562614118215 
1.5499999999998457, -1.1901203717048752 
1.5599999999998446, -1.1896550579407337 
1.5699999999998435, -1.1891847351564333 
1.5799999999998424, -1.1888837524505342 
1.5899999999998413, -1.188956895353414 
1.5999999999998402, -1.1895594218113144 
1.6099999999998391, -1.1907102794315043 
1.619999999999838, -1.1922822909776356 
1.629999999999837, -1.1940735188414529 
1.6399999999998358, -1.1958876360473822 
1.6499999999998347, -1.197574117447091 
1.6599999999998336, -1.1990324508136214 
1.6699999999998325, -1.2002019404083009 
1.6799999999998314, -1.2010512921873189 
1.6899999999998303, -1.201572580489711 
1.6999999999998292, -1.2017782968770054 
1.709999999999828, -1.2016982926943685 
1.719999999999827, -1.2013754957227385 
1.729999999999826, -1.200862651843342 
1.7399999999998248, -1.2002227289737297 
1.7499999999998237, -1.1995315045042745 
1.7599999999998226, -1.198875592920301 
1.7699999999998215, -1.1983397084032688 
1.7799999999998204, -1.1979864918611436 
1.7899999999998193, -1.197840363366518 
1.7999999999998182, -1.1978823414790898 
1.809999999999817, -1.1980553246830863 
1.819999999999816, -1.1982785524035564 
1.8299999999998149, -1.1984666794825403 
1.8399999999998138, -1.1985439193261818 
1.8499999999998127, -1.1984482892857007 
1.8599999999998116, -1.1981300337182565 
1.8699999999998105, -1.1975505725838598 
1.8799999999998094, -1.1966841820932888 
1.8899999999998083, -1.1955206344087075 
1.8999999999998072, -1.1940669822643324 
1.909999999999806, -1.192349361222768 
1.919999999999805, -1.1904173456786615 
1.9299999999998039, -1.188351954361152 
1.9399999999998028, -1.18627432930371 
1.9499999999998017, -1.1843458384940613 
1.9599999999998006, -1.1827437558950338 
1.9699999999997995, -1.181602585257187 
1.9799999999997984, -1.1809462681286618 
1.9899999999997973, -1.180670878296944 
1.9999999999997962, -1.1806012286844876 
2.0099999999998173, -1.1805673709945153 
2.0199999999998384, -1.1804397296956968 
2.0299999999998595, -1.1801174590853443 
2.0399999999998806, -1.1794964832158001 
2.0499999999999017, -1.1784375224721724 
2.059999999999923, -1.1767442024809887 
2.069999999999944, -1.174162453436362 
2.079999999999965, -1.170417651161126 
2.089999999999986, -1.1653003693318476 
2.100000000000007, -1.1587887559403645 
2.1100000000000283, -1.1511697102553589 
2.1200000000000494, -1.1431044728145108 
2.1300000000000705, -1.135561473844033 
2.1400000000000916, -1.1295349456164017 
2.1500000000001127, -1.1256071157604384 
2.160000000000134, -1.1236720909621896 
2.170000000000155, -1.1231049794658217 
2.180000000000176, -1.123197798272223 
2.190000000000197, -1.1234550452653025 
2.2000000000002182, -1.1236241908588864 
2.2100000000002393, -1.1235988035536657 
2.2200000000002604, -1.1233209215760853 
2.2300000000002815, -1.1227145886416254 
2.2400000000003026, -1.121635538420649 
2.2500000000003237, -1.1198164610712285 
2.260000000000345, -1.1167989168260708 
2.270000000000366, -1.1118741706243889 
2.280000000000387, -1.1041246692646587 
2.290000000000408, -1.0927473465909818 
2.3000000000004293, -1.077781233677778 
2.3100000000004504, -1.0608793729772674 
2.3200000000004715, -1.0451395856987449 
2.3300000000004926, -1.0335105383841916 
2.3400000000005137, -1.027054831085723 
2.3500000000005348, -1.024778495467576 
2.360000000000556, -1.0248565999319545 
2.370000000000577, -1.0257928294063028 
2.380000000000598, -1.0267733010864013 
2.390000000000619, -1.0274922362807002 
2.4000000000006403, -1.0278906951336704 
2.4100000000006614, -1.0279869019832226 
2.4200000000006825, -1.0277951918849948 
2.4300000000007036, -1.0272890639399708 
2.4400000000007247, -1.026374705679882 
2.450000000000746, -1.024855590635514 
2.460000000000767, -1.0223787290531567 
2.470000000000788, -1.018369388956005 
2.480000000000809, -1.01200462632524 
2.49000000000083, -1.0023610758090729 
2.5000000000008513, -0.9889259927523313 
2.5100000000008724, -0.9724206587855111 
2.5200000000008935, -0.9552252617810083 
2.5300000000009146, -0.9404958639538352 
2.5400000000009357, -0.9303854602100401 
2.550000000000957, -0.9250580539424073 
2.560000000000978, -0.9232256584104377 
2.570000000000999, -0.923289292068352 
2.58000000000102, -0.92406346687877 
2.5900000000010412, -0.9249060420095384 
2.6000000000010624, -0.9255564872482287 
2.6100000000010835, -0.9259470686000512 
2.6200000000011046, -0.9260791207683793 
2.6300000000011257, -0.9259592800526049 
2.6400000000011468, -0.9255680433875815 
2.650000000001168, -0.9248387880975549 
2.660000000001189, -0.9236345911580987 
2.67000000000121, -0.921718460485814 
2.680000000001231, -0.9187251194509667 
2.6900000000012523, -0.9141666508458364 
2.7000000000012734, -0.9075342007451226 
2.7100000000012945, -0.8985453294839184 
2.7200000000013156, -0.8874601266581896 
2.7300000000013367, -0.8752150817426676 
2.740000000001358, -0.8631736425280078 
2.750000000001379, -0.8526238851890696 
2.7600000000014, -0.8443653912269878 
2.770000000001421, -0.8385865139124361 
2.780000000001442, -0.8349925625498239 
2.7900000000014633, -0.8330413701974022 
2.8000000000014844, -0.8321602792963431 
2.8100000000015055, -0.8318786700142466 
2.8200000000015266, -0.831870152465887 
2.8300000000015477, -0.8319351966379405 
2.840000000001569, -0.8319609076825986 
2.85000000000159, -0.8318817621447684 
2.860000000001611, -0.831650274063232 
2.870000000001632, -0.8312182554709183 
2.8800000000016532, -0.830527679191197 
2.8900000000016743, -0.8295120174818594 
2.9000000000016954, -0.8281102727898378 
2.9100000000017165, -0.8262921347818942 
2.9200000000017377, -0.8240827512674344 
2.9300000000017588, -0.8215690171870429 
2.94000000000178, -0.8188794031775284 
2.950000000001801, -0.8161502673695884 
2.960000000001822, -0.8134997827428314 
2.970000000001843, -0.8110191094083744 
2.9800000000018643, -0.8087759032820507 
2.9900000000018854, -0.8068206314033082 
3.0000000000019065, -0.8051895204383381 
3.0100000000019276, -0.8039029342676931 
3.0200000000019487, -0.8029613930510218 
3.03000000000197, -0.8023427981671011 
3.040000000001991, -0.8020037963536855 
3.050000000002012, -0.8018859708258393 
3.060000000002033, -0.8019249098959158 
3.070000000002054, -0.8020588979460179 
3.0800000000020753, -0.802234787161521 
3.0900000000020964, -0.8024106294624225 
3.1000000000021175, -0.8025562017272774 
3.1100000000021386, -0.8026526399923691 
3.1200000000021597, -0.8026912725572398 
3.130000000002181, -0.8026707328959933 
3.140000000002202, -0.8025920154075739 
3.150000000002223, -0.8024532621656041 
3.160000000002244, -0.8022475056965955 
3.1700000000022652, -0.8019651928984256 
3.1800000000022863, -0.8015999347919538 
3.1900000000023074, -0.8011538888292288 
3.2000000000023285, -0.8006404511901538 
3.2100000000023496, -0.8000847944884123 
3.2200000000023707, -0.7995241802044163 
3.230000000002392, -0.7990090265190752 
3.240000000002413, -0.7986037721628533 
3.250000000002434, -0.7983852729402644 
3.260000000002455, -0.7984367768990913 
3.2700000000024763, -0.7988375897632753 
3.2800000000024974, -0.799651257481168 
3.2900000000025185, -0.8009163561329542 
3.3000000000025396, -0.8026424238962988 
3.3100000000025607, -0.8048100971885814 
3.3200000000025818, -0.8073715977749943 
3.330000000002603, -0.8102474990912507 
3.340000000002624, -0.8133192053941066 
3.350000000002645, -0.8164235646056914 
3.360000000002666, -0.8193628175644083 
3.3700000000026873, -0.8219401655117762 
3.3800000000027084, -0.8240115562792616 
3.3900000000027295, -0.8255226360256434 
3.4000000000027506, -0.8265059046725366 
3.4100000000027717, -0.8270453350371906 
3.420000000002793, -0.8272362245236458 
3.430000000002814, -0.8271599485770625 
3.440000000002835, -0.826876260212177 
3.450000000002856, -0.8264279817567941 
3.460000000002877, -0.8258545058301111 
3.4700000000028983, -0.8252152625661744 
3.4800000000029194, -0.8246280196139987 
3.4900000000029405, -0.8243262331243815 
3.5000000000029616, -0.8247293882322515 
3.5100000000029827, -0.8264948499081918 
3.520000000003004, -0.8304834664016767 
3.530000000003025, -0.8375526250507525 
3.540000000003046, -0.8481442735939068 
3.550000000003067, -0.8618067030511506 
3.5600000000030882, -0.8770127915481962 
3.5700000000031094, -0.8916249789142704 
3.5800000000031305, -0.9038403793701291 
3.5900000000031516, -0.9128836654535599 
3.6000000000031727, -0.9189622461145028 
3.6100000000031938, -0.9227624289306282 
3.620000000003215, -0.9250015590724556 
3.630000000003236, -0.9262303976219503 
3.640000000003257, -0.9268108539547757 
3.650000000003278, -0.9269571223882455 
3.6600000000032993, -0.926780742236844 
3.6700000000033204, -0.9263220001985824 
3.6800000000033415, -0.9255681174279937 
3.6900000000033626, -0.9244653178264889 
3.7000000000033837, -0.9229378831634472 
3.710000000003405, -0.9209383166047329 
3.720000000003426, -0.9185659697721225 
3.730000000003447, -0.91628048144257 
3.740000000003468, -0.9151365353573839 
3.750000000003489, -0.9167452998286787 
3.7600000000035103, -0.9225684208084471 
3.7700000000035314, -0.9327089310440912 
3.7800000000035525, -0.9453565502752831 
3.7900000000035736, -0.9577846901517966 
3.8000000000035947, -0.967970469566132 
3.810000000003616, -0.9752779756123887 
3.820000000003637, -0.9800550726369412 
3.830000000003658, -0.9829780834071677 
3.840000000003679, -0.9846627322766939 
3.8500000000037002, -0.9855476661737044 
3.8600000000037213, -0.9859062755845475 
3.8700000000037424, -0.9858888094890323 
3.8800000000037635, -0.9855566503440043 
3.8900000000037847, -0.9849003605663198 
3.9000000000038058, -0.9838432666463662 
3.910000000003827, -0.9822371348864584 
3.920000000003848, -0.9798661703915406 
3.930000000003869, -0.976498034649403 
3.94000000000389, -0.9720511545792381 
3.9500000000039113, -0.9669304032810967 
3.9600000000039324, -0.962386603647654 
3.9700000000039535, -0.960383952392965 
3.9800000000039746, -0.9625211957157453 
3.9900000000039957, -0.9686819423791804 
4.000000000004016, -0.9769542765601112 
4.010000000003993, -0.9850222893865214 
4.02000000000397, -0.9914729524326026 
4.030000000003946, -0.9959942782551481 
4.040000000003923, -0.9988905125828313 
4.0500000000039, -1.0006154031561276 
4.0600000000038765, -1.0015505639890425 
4.070000000003853, -1.0019542035688862 
4.08000000000383, -1.0019751553799767 
4.090000000003807, -1.00167644243913 
4.100000000003783, -1.0010489996918726 
4.11000000000376, -1.00001169485276 
4.120000000003737, -0.9984003752341126 
4.130000000003713, -0.9959579130878767 
4.14000000000369, -0.9923599455760943 
4.150000000003667, -0.9873503619834851 
4.1600000000036434, -0.9810734725655174 
4.17000000000362, -0.9745333281001871 
4.180000000003597, -0.9696950526800643 
4.1900000000035735, -0.9685902551844385 
4.20000000000355, -0.9718003665669528 
4.210000000003527, -0.9779261267140302 
4.220000000003504, -0.9847216806232384 
4.23000000000348, -0.9905403161241759 
4.240000000003457, -0.9947925994736355 
4.250000000003434, -0.9975917630217342 
4.26000000000341, -0.9992911184072168 
4.270000000003387, -1.0002274990692137 
4.280000000003364, -1.0006413261437248 
4.2900000000033405, -1.000675058029566 
4.300000000003317, -1.000389571902551 
4.310000000003294, -0.9997744681686219 
4.320000000003271, -0.9987454055966707 
4.330000000003247, -0.9971285495339413 
4.340000000003224, -0.9946402426816332 
4.350000000003201, -0.9908906237312255 
4.360000000003177, -0.9854811814620621 
4.370000000003154, -0.978300115132934 
4.380000000003131, -0.9700170326860155 
4.390000000003107, -0.9623906896035829 
4.400000000003084, -0.9576832814276092 
4.410000000003061, -0.9571924701402988 
4.4200000000030375, -0.9602970511316355 
4.430000000003014, -0.9651054163616033 
4.440000000002991, -0.9698484536421985 
4.450000000002968, -0.9736159681516883 
4.460000000002944, -0.9762402665768946 
4.470000000002921, -0.9779035246472472 
4.480000000002898, -0.9788581697078722 
4.490000000002874, -0.9793091284844664 
4.500000000002851, -0.9793867024212327 
4.510000000002828, -0.9791498346926643 
4.520000000002804, -0.9785903191240534 
4.530000000002781, -0.9776262326759273 
4.540000000002758, -0.976079738366814 
4.5500000000027345, -0.9736389313640427 
4.560000000002711, -0.9698161621735982 
4.570000000002688, -0.9639508535429743 
4.580000000002665, -0.9553684847470846 
4.590000000002641, -0.9438331404280944 
4.600000000002618, -0.9302129435440367 
4.610000000002595, -0.9167347918222484 
4.620000000002571, -0.906083020365579 
4.630000000002548, -0.8998003947945488 
4.640000000002525, -0.8975686448414473 
4.6500000000025015, -0.8979233511828915 
4.660000000002478, -0.8993700787430446 
4.670000000002455, -0.9009522718767284 
4.6800000000024315, -0.9022456372963005 
4.690000000002408, -0.9031439349456912 
4.700000000002385, -0.9036734663171334 
4.710000000002362, -0.9038893492052112 
4.720000000002338, -0.9038296265192342 
4.730000000002315, -0.9034958302529847 
4.740000000002292, -0.9028395442794152 
4.750000000002268, -0.9017437938328545 
4.760000000002245, -0.8999942468016864 
4.770000000002222, -0.8972439031011659 
4.7800000000021985, -0.8929953579608194 
4.790000000002175, -0.886660933220446 
4.800000000002152, -0.8777810762824603 
4.810000000002129, -0.8663928118655964 
4.820000000002105, -0.8533125298212163 
4.830000000002082, -0.8399997975313325 
4.840000000002059, -0.8279986692797483 
4.850000000002035, -0.8183667999158526 
4.860000000002012, -0.811449895712193 
4.870000000001989, -0.8070042069886482 
4.880000000001965, -0.8044703357434887 
4.890000000001942, -0.803226503879819 
4.900000000001919, -0.8027445361978188 
4.9100000000018955, -0.8026458983588555 
4.920000000001872, -0.8026913292046768 
4.930000000001849, -0.8027423704547987 
