t, s[1].omega / s[0].omega 
0, -0.6499977111595755 
0.009999999999999995, -0.6497740187564535 
0.019999999999999934, -0.6495524207263857 
0.029999999999999874, -0.6493124855811249 
0.04000000000000012, -0.6490310997981102 
0.050000000000000405, -0.6486920878961089 
0.06000000000000069, -0.648291592383249 
0.07000000000000098, -0.6478389615106988 
0.08000000000000126, -0.6473561024412844 
0.09000000000000155, -0.6468786049184584 
0.10000000000000184, -0.6464605336524375 
0.11000000000000212, -0.6461833594808878 
0.12000000000000241, -0.6461685730652003 
0.130000000000002, -0.6465927514622243 
0.1400000000000009, -0.647702799401222 
0.1499999999999998, -0.6498273651484296 
0.1599999999999987, -0.6533771278383239 
0.1699999999999976, -0.6588198519237177 
0.1799999999999965, -0.6666043250760412 
0.1899999999999954, -0.6769971676456021 
0.1999999999999943, -0.6898197246385653 
0.2099999999999932, -0.7041865353608577 
0.2199999999999921, -0.7185281152414208 
0.229999999999991, -0.7311334937760245 
0.2399999999999899, -0.7409205855824651 
0.2499999999999888, -0.7477606799206739 
0.2599999999999877, -0.7521774478185648 
0.2699999999999866, -0.7548680755818316 
0.2799999999999855, -0.7564183596951929 
0.2899999999999844, -0.7572308168203183 
0.2999999999999833, -0.7575508229849399 
0.3099999999999822, -0.7575102095401762 
0.3199999999999811, -0.7571585820745221 
0.32999999999998, -0.7564764501170009 
0.3399999999999789, -0.7553696704868218 
0.3499999999999778, -0.7536430375073794 
0.35999999999997667, -0.7509485061525026 
0.36999999999997557, -0.7467082192799139 
0.37999999999997447, -0.7400432620402827 
0.38999999999997337, -0.7298275834484378 
0.39999999999997227, -0.7151060708036961 
0.40999999999997117, -0.695983244197253 
0.41999999999997006, -0.6743476994677639 
0.42999999999996896, -0.6533055849453235 
0.43999999999996786, -0.6355213119303846 
0.44999999999996676, -0.6221220293836712 
0.45999999999996566, -0.612875316349341 
0.46999999999996456, -0.6069114532016575 
0.47999999999996346, -0.6032781627252018 
0.48999999999996235, -0.6011858015806364 
0.49999999999996125, -0.6000584398611859 
0.5099999999999602, -0.5995056183752705 
0.519999999999959, -0.5992748551567433 
0.529999999999958, -0.599208005082012 
0.5399999999999568, -0.599207682215057 
0.5499999999999557, -0.5992137639026949 
0.5599999999999546, -0.5991883482488507 
0.5699999999999535, -0.5991075433444639 
0.5799999999999524, -0.5989587212166557 
0.5899999999999513, -0.5987414885934939 
0.5999999999999502, -0.5984693664299147 
0.6099999999999491, -0.5981681901565254 
0.619999999999948, -0.5978687220691954 
0.6299999999999469, -0.5975952462717167 
0.6399999999999458, -0.5973557029950818 
0.6499999999999447, -0.59713874218034 
0.6599999999999436, -0.5969192181317692 
0.6699999999999425, -0.596668943355064 
0.6799999999999414, -0.5963669467211797 
0.6899999999999403, -0.596004906078519 
0.6999999999999392, -0.5955876225434638 
0.7099999999999381, -0.595131692162069 
0.719999999999937, -0.5946659612171733 
0.7299999999999359, -0.5942361571151586 
0.7399999999999348, -0.5939151302869183 
0.7499999999999337, -0.5938200052524999 
0.7599999999999326, -0.5941377537257309 
0.7699999999999315, -0.5951603508175162 
0.7799999999999304, -0.5973281407680637 
0.7899999999999293, -0.6012717335778838 
0.7999999999999282, -0.6078213765063375 
0.8099999999999271, -0.6179097000683849 
0.819999999999926, -0.6322437715322826 
0.8299999999999249, -0.650674786307074 
0.8399999999999238, -0.6715638234501269 
0.8499999999999227, -0.6919737050684958 
0.8599999999999216, -0.7090868892716584 
0.8699999999999205, -0.7216394369173 
0.8799999999999194, -0.7299863655625167 
0.8899999999999183, -0.7352065715208789 
0.8999999999999172, -0.7383548681529519 
0.9099999999999161, -0.7401965111296243 
0.919999999999915, -0.7412169612871093 
0.9299999999999139, -0.7417020510346256 
0.9399999999999128, -0.7418070097599896 
0.9499999999999117, -0.7415988854277195 
0.9599999999999106, -0.7410755861324644 
0.9699999999999095, -0.7401658288620889 
0.9799999999999084, -0.7387119091063743 
0.9899999999999073, -0.7364377802496948 
0.9999999999999062, -0.7329158363705316 
1.0099999999999052, -0.7275771856388074 
1.019999999999904, -0.7198542149042895 
1.029999999999903, -0.7095194924439574 
1.039999999999902, -0.6970668347134555 
1.0499999999999008, -0.6837316398642324 
1.0599999999998997, -0.6709857084373583 
1.0699999999998986, -0.6599283060073105 
1.0799999999998975, -0.651042783622885 
1.0899999999998964, -0.6443158675310469 
1.0999999999998953, -0.6394671837454735 
1.1099999999998942, -0.6361266553455213 
1.119999999999893, -0.6339315116224803 
1.129999999999892, -0.6325677036791629 
1.1399999999998909, -0.6317819718413829 
1.1499999999998898, -0.6313801862954153 
1.1599999999998887, -0.6312196283363348 
1.1699999999998876, -0.6311990132153918 
1.1799999999998865, -0.6312484930250044 
1.1899999999998854, -0.6313211682637101 
1.1999999999998843, -0.6313871051691035 
1.2099999999998832, -0.6314301902259886 
1.219999999999882, -0.6314471109381572 
1.229999999999881, -0.6314464105651055 
1.2399999999998799, -0.6314448554791297 
1.2499999999998788, -0.631459671846474 
1.2599999999998777, -0.6314985392265232 
1.2699999999998766, -0.6315521866587235 
1.2799999999998755, -0.6315943267788842 
1.2899999999998744, -0.63158992072549 
1.2999999999998733, -0.6315075163262662 
1.3099999999998722, -0.6313288271468245 
1.319999999999871, -0.631051557992947 
1.32999999999987, -0.6306870074728317 
1.3399999999998689, -0.6302570513994055 
1.3499999999998678, -0.6297944865302149 
1.3599999999998666, -0.6293489009507593 
1.3699999999998655, -0.6289993089835229 
1.3799999999998644, -0.628874829570179 
1.3899999999998633, -0.6291847437287437 
1.3999999999998622, -0.6302580658414837 
1.4099999999998611, -0.6325883420745303 
1.41999999999986, -0.6368678807818522 
1.429999999999859, -0.6439703970237217 
1.4399999999998578, -0.6547987034251682 
1.4499999999998567, -0.6698860224072785 
1.4599999999998556, -0.6887543662549409 
1.4699999999998545, -0.7094468970919123 
1.4799999999998534, -0.729008449286157 
1.4899999999998523, -0.7449588217707884 
1.4999999999998512, -0.7564242139253957 
1.5099999999998501, -0.763944928156724 
1.519999999999849, -0.7685984790093323 
1.529999999999848, -0.7713705243172054 
1.5399999999998468, -0.7729589084582982 
1.5499999999998457, -0.7738005076371679 
1.5599999999998446, -0.7741483342774366 
1.5699999999998435, -0.7741340135166561 
1.5799999999998424, -0.7738042752927489 
1.5899999999998413, -0.773134335303282 
1.5999999999998402, -0.7720207943382651 
1.6099999999998391, -0.7702535058305509 
1.619999999999838, -0.7674657562202107 
1.629999999999837, -0.763074792049641 
1.6399999999998358, -0.7562686167507116 
1.6499999999998347, -0.7461743453193822 
1.6599999999998336, -0.732352992300491 
1.6699999999998325, -0.7154552485554929 
1.6799999999998314, -0.6973634841053461 
1.6899999999998303, -0.680391124920923 
1.6999999999998292, -0.6662080017261369 
1.709999999999828, -0.6554111884353266 
1.719999999999827, -0.6477765872954656 
1.729999999999826, -0.6426990668910223 
1.7399999999998248, -0.6395083017855921 
1.7499999999998237, -0.6376200127969569 
1.7599999999998226, -0.6365815535968549 
1.7699999999998215, -0.6360671031746793 
1.7799999999998204, -0.6358541999349393 
1.7899999999998193, -0.6357967643542323 
1.7999999999998182, -0.6358011025959708 
1.809999999999817, -0.6358072611725831 
1.819999999999816, -0.6357762575060375 
1.8299999999998149, -0.6356829802117365 
1.8399999999998138, -0.6355140829202596 
1.8499999999998127, -0.6352692084954079 
1.8599999999998116, -0.6349622807537674 
1.8699999999998105, -0.6346188544759515 
1.8799999999998094, -0.634267737207657 
1.8899999999998083, -0.6339297676461487 
1.8999999999998072, -0.6336097309191205 
1.909999999999806, -0.6332959226978415 
1.919999999999805, -0.6329672286197194 
1.9299999999998039, -0.632603366558132 
1.9399999999998028, -0.6321930140963672 
1.9499999999998017, -0.6317373251242415 
1.9599999999998006, -0.6312501880056164 
1.9699999999997995, -0.6307584176620783 
1.9799999999997984, -0.6303045019930449 
1.9899999999997973, -0.6299531225394654 
1.9999999999997962, -0.6298016121135273 
2.0099999999998173, -0.629993853083182 
2.0199999999998384, -0.6307364343166074 
2.0299999999998595, -0.6323147018845969 
2.0399999999998806, -0.635103886703486 
2.0499999999999017, -0.6395650556054387 
2.059999999999923, -0.6462045903244187 
2.069999999999944, -0.6554596562813735 
2.079999999999965, -0.6674682493732234 
2.089999999999986, -0.6817466276181664 
2.100000000000007, -0.6969847127350477 
2.1100000000000283, -0.7113242255292171 
2.1200000000000494, -0.7231628036851118 
2.1300000000000705, -0.7318462410221809 
2.1400000000000916, -0.7376513454634365 
2.1500000000001127, -0.7412846764161289 
2.160000000000134, -0.7434466565520139 
2.170000000000155, -0.7446574226445601 
2.180000000000176, -0.7452507463407458 
2.190000000000197, -0.7454195080393908 
2.2000000000002182, -0.745257804629214 
2.2100000000002393, -0.7447851875903011 
2.2200000000002604, -0.7439518561664988 
2.2300000000002815, -0.7426244540538738 
2.2400000000003026, -0.7405496907769289 
2.2500000000003237, -0.7372938794952071 
2.260000000000345, -0.7321732137677749 
2.270000000000366, -0.724246764008025 
2.280000000000387, -0.71254624385522 
2.290000000000408, -0.6967125580477799 
2.3000000000004293, -0.6777626108937838 
2.3100000000004504, -0.6580827804414598 
2.3200000000004715, -0.6402769614241604 
2.3300000000004926, -0.6259397926098856 
2.3400000000005137, -0.6153902417638244 
2.3500000000005348, -0.6081376306559162 
2.360000000000556, -0.6034140866470489 
2.370000000000577, -0.6004841159457768 
2.380000000000598, -0.5987582828970829 
2.390000000000619, -0.5978054134848245 
2.4000000000006403, -0.5973271835503994 
2.4100000000006614, -0.5971249522530273 
2.4200000000006825, -0.5970699803959894 
2.4300000000007036, -0.5970801365582862 
2.4400000000007247, -0.5971032579044964 
2.450000000000746, -0.5971064895258638 
2.460000000000767, -0.5970707689595107 
2.470000000000788, -0.596989330984832 
2.480000000000809, -0.596868203372858 
2.49000000000083, -0.596725505044113 
2.5000000000008513, -0.5965864752329317 
2.5100000000008724, -0.596473852816926 
2.5200000000008935, -0.5963971922631451 
2.5300000000009146, -0.5963466805205615 
2.5400000000009357, -0.5962952669204598 
2.550000000000957, -0.5962084333164299 
2.560000000000978, -0.5960563962867136 
2.570000000000999, -0.5958224419096207 
2.58000000000102, -0.5955047303810281 
2.5900000000010412, -0.5951138573617887 
2.6000000000010624, -0.5946705448800829 
2.6100000000010835, -0.5942069088625501 
2.6200000000011046, -0.5937733017276527 
2.6300000000011257, -0.5934523484521687 
2.6400000000011468, -0.5933824083238359 
2.650000000001168, -0.5937934254347329 
2.660000000001189, -0.5950574983598663 
2.67000000000121, -0.5977512458988984 
2.680000000001231, -0.6027095731886691 
2.6900000000012523, -0.6110071271473825 
2.7000000000012734, -0.6237289662551798 
2.7100000000012945, -0.6413591330397649 
2.7200000000013156, -0.6628865613648292 
2.7300000000013367, -0.6854572084698604 
2.740000000001358, -0.7055602340480874 
2.750000000001379, -0.7209970552703553 
2.7600000000014, -0.7315917689702258 
2.770000000001421, -0.7383659120336257 
2.780000000001442, -0.7425310720509429 
2.7900000000014633, -0.7450302243613635 
2.8000000000014844, -0.746484257188152 
2.8100000000015055, -0.7472706377365067 
2.8200000000015266, -0.7476060920995173 
2.8300000000015477, -0.747602537801223 
2.840000000001569, -0.747297301109582 
2.85000000000159, -0.7466632714311766 
2.860000000001611, -0.7456025554639656 
2.870000000001632, -0.7439259168768233 
2.8800000000016532, -0.7413249422480745 
2.8900000000016743, -0.7373618046271115 
2.9000000000016954, -0.7315347614159536 
2.9100000000017165, -0.7234895023098618 
2.9200000000017377, -0.7133414478452542 
2.9300000000017588, -0.7018547178184824 
2.94000000000178, -0.6902151796275131 
2.950000000001801, -0.6795343589986229 
2.960000000001822, -0.6704958020419057 
2.970000000001843, -0.6633192736511397 
2.9800000000018643, -0.6579084156805745 
2.9900000000018854, -0.6540123781491046 
3.0000000000019065, -0.6513338777042776 
3.0100000000019276, -0.6495861359474594 
3.0200000000019487, -0.648518386856743 
3.03000000000197, -0.6479248638809911 
3.040000000001991, -0.6476451093372921 
3.050000000002012, -0.6475594346431981 
3.060000000002033, -0.6475818854825689 
3.070000000002054, -0.6476526411936135 
3.0800000000020753, -0.6477314776792902 
3.0900000000020964, -0.6477934055294589 
3.1000000000021175, -0.6478267020487576 
3.1100000000021386, -0.6478322148718867 
3.1200000000021597, -0.6478214966990248 
3.130000000002181, -0.6478113583639054 
3.140000000002202, -0.647814819896138 
3.150000000002223, -0.6478319788515076 
3.160000000002244, -0.6478459921970646 
3.1700000000022652, -0.6478272843943562 
3.1800000000022863, -0.6477441901656686 
3.1900000000023074, -0.647574039748859 
3.2000000000023285, -0.6473090606070555 
3.2100000000023496, -0.6469562057085623 
3.2200000000023707, -0.6465344481425755 
3.230000000002392, -0.6460739095220329 
3.240000000002413, -0.6456195879381947 
3.250000000002434, -0.6452409097580324 
3.260000000002455, -0.6450476827059373 
3.2700000000024763, -0.6452126510159686 
3.2800000000024974, -0.6459997654474997 
3.2900000000025185, -0.6477944567806506 
3.3000000000025396, -0.6511260535334032 
3.3100000000025607, -0.6566600503026013 
3.3200000000025818, -0.6651161154716427 
3.330000000002603, -0.6770444307865113 
3.340000000002624, -0.692418359839053 
3.350000000002645, -0.7101825349252522 
3.360000000002666, -0.7282162583223863 
3.3700000000026873, -0.7441259703282521 
3.3800000000027084, -0.7564068967588181 
3.3900000000027295, -0.7649032564237384 
3.4000000000027506, -0.7703391028815535 
3.4100000000027717, -0.773638790932874 
3.420000000002793, -0.7755562313664833 
3.430000000002814, -0.7765991288111754 
3.440000000002835, -0.777074967544146 
3.450000000002856, -0.7771527923555439 
3.460000000002877, -0.776906630092875 
3.4700000000028983, -0.7763363375283464 
3.4800000000029194, -0.7753676530968037 
3.4900000000029405, -0.7738310757754462 
3.5000000000029616, -0.7714162674595053 
3.5100000000029827, -0.7676018321858677 
3.520000000003004, -0.7615854902349104 
3.530000000003025, -0.7523141415176962 
3.540000000003046, -0.7388218927594318 
3.550000000003067, -0.7210062790081265 
3.5600000000030882, -0.7003733538859095 
3.5700000000031094, -0.6797346340921119 
3.5800000000031305, -0.6617781958695051 
3.5900000000031516, -0.6478875950450854 
3.6000000000031727, -0.6380919314765955 
3.6100000000031938, -0.6316712667821319 
3.620000000003215, -0.6277184088073928 
3.630000000003236, -0.6254306197790351 
3.640000000003257, -0.6241985060623263 
3.650000000003278, -0.6235980462322825 
3.6600000000032993, -0.6233507309936922 
3.6700000000033204, -0.6232808673821076 
3.6800000000033415, -0.6232802213953949 
3.6900000000033626, -0.6232821014033423 
3.7000000000033837, -0.6232441304894671 
3.710000000003405, -0.6231383768524632 
3.720000000003426, -0.6229476408139261 
3.730000000003447, -0.6226664187320343 
3.740000000003468, -0.6223037478522554 
3.750000000003489, -0.6218835838521366 
3.7600000000035103, -0.6214390541925636 
3.7700000000035314, -0.6210012176134266 
3.7800000000035525, -0.6205878097201427 
3.7900000000035736, -0.6201981832129368 
3.8000000000035947, -0.6198167641179713 
3.810000000003616, -0.6194223677756311 
3.820000000003637, -0.6189980783879929 
3.830000000003658, -0.618537496620879 
3.840000000003679, -0.618046746649088 
3.8500000000037002, -0.6175446370685211 
3.8600000000037213, -0.6170639676037226 
3.8700000000037424, -0.6166559213038936 
3.8800000000037635, -0.6163982884226112 
3.8900000000037847, -0.616407537501635 
3.9000000000038058, -0.6168542544808294 
3.910000000003827, -0.6179807392474495 
3.920000000003848, -0.6201179253032177 
3.930000000003869, -0.6236949075626015 
3.94000000000389, -0.6292255669521475 
3.9500000000039113, -0.6372403737023584 
3.9600000000039324, -0.6481133622776021 
3.9700000000039535, -0.6617522190210011 
3.9800000000039746, -0.6772544145773154 
3.9900000000039957, -0.6928784654773797 
4.000000000004016, -0.7066610143220554 
4.010000000003993, -0.7173474882663421 
4.02000000000397, -0.724789146123653 
4.030000000003946, -0.7295818952100548 
4.040000000003923, -0.7325060643381598 
4.0500000000039, -0.7342073016981759 
4.0600000000038765, -0.735124461216478 
4.070000000003853, -0.7355242535436126 
4.08000000000383, -0.7355518949154541 
4.090000000003807, -0.7352668634309542 
4.100000000003783, -0.7346589392649698 
4.11000000000376, -0.7336452312920727 
4.120000000003737, -0.7320474055254642 
4.130000000003713, -0.7295472295197449 
4.14000000000369, -0.7256264029308528 
4.150000000003667, -0.7195307574387358 
4.1600000000036434, -0.7103749052453073 
4.17000000000362, -0.6975559145490682 
4.180000000003597, -0.6814272107766096 
4.1900000000035735, -0.6636323065421453 
4.20000000000355, -0.6464767079725078 
4.210000000003527, -0.6317962760568452 
4.220000000003504, -0.6203665761828002 
4.23000000000348, -0.6120788882558057 
4.240000000003457, -0.6063895323845157 
4.250000000003434, -0.6026608160946675 
4.26000000000341, -0.6003256686207289 
4.270000000003387, -0.5989376534055018 
4.280000000003364, -0.5981683642952402 
4.2900000000033405, -0.5977867770650553 
4.300000000003317, -0.597635644885073 
4.310000000003294, -0.5976105446333413 
4.320000000003271, -0.59764330009347 
4.330000000003247, -0.5976900811345324 
4.340000000003224, -0.5977239790644331 
4.350000000003201, -0.5977315160812602 
4.360000000003177, -0.5977118511197759 
4.370000000003154, -0.5976763206498463 
4.380000000003131, -0.5976452789728519 
4.390000000003107, -0.5976404530650334 
4.400000000003084, -0.5976743683783252 
4.410000000003061, -0.5977415907017497 
4.4200000000030375, -0.5978169232532381 
4.430000000003014, -0.5978625596232188 
4.440000000002991, -0.5978409333367305 
4.450000000002968, -0.5977262593340857 
4.460000000002944, -0.5975092862426411 
4.470000000002921, -0.5971953917711927 
4.480000000002898, -0.5968004046564921 
4.490000000002874, -0.5963487079922375 
4.500000000002851, -0.595876358239332 
4.510000000002828, -0.5954408756692351 
4.520000000002804, -0.5951397600050984 
4.530000000002781, -0.5951410027938093 
4.540000000002758, -0.5957296833633982 
4.5500000000027345, -0.5973727321943217 
4.560000000002711, -0.6007931484959858 
4.570000000002688, -0.607012275067922 
4.580000000002665, -0.6172471476353524 
4.590000000002641, -0.6324634209234543 
4.600000000002618, -0.6524801875502969 
4.610000000002595, -0.6751528553503279 
4.620000000002571, -0.6968769240763784 
4.630000000002548, -0.7145993077054273 
4.640000000002525, -0.7273117606399897 
4.6500000000025015, -0.7356888194133365 
4.660000000002478, -0.7409546069498489 
4.670000000002455, -0.7441816804143668 
4.6800000000024315, -0.7461167119219051 
4.690000000002408, -0.7472302532763553 
4.700000000002385, -0.747803230546534 
4.710000000002362, -0.7479930796145415 
4.720000000002338, -0.7478736264827084 
4.730000000002315, -0.7474539051212394 
4.740000000002292, -0.746680489987512 
4.750000000002268, -0.7454260129993557 
4.760000000002245, -0.7434678611773748 
4.770000000002222, -0.7404708383559686 
4.7800000000021985, -0.7360106452507916 
4.790000000002175, -0.7296978973967756 
4.800000000002152, -0.7214238410516851 
4.810000000002129, -0.7115938524323011 
4.820000000002105, -0.7010972050456473 
4.830000000002082, -0.6909614553638908 
4.840000000002059, -0.6819723252324701 
4.850000000002035, -0.6745216452781364 
4.860000000002012, -0.6686705650741658 
4.870000000001989, -0.664283197619854 
4.880000000001965, -0.6611362882883831 
4.890000000001942, -0.6589850534832393 
4.900000000001919, -0.6575970530742649 
4.9100000000018955, -0.656768245122431 
4.920000000001872, -0.6563295763691716 
