t, s[1].omega / s[0].omega 
0, -1.0199874871014776 
0.009999999999999995, -1.0186494850781256 
0.019999999999999934, -1.0171402933914446 
0.029999999999999874, -1.0154605932977583 
0.04000000000000012, -1.013610953451551 
0.050000000000000405, -1.011591849017344 
0.06000000000000069, -1.0094036900872252 
0.07000000000000098, -1.0070468585219492 
0.08000000000000126, -1.004521752117816 
0.09000000000000155, -1.0018288348297648 
0.10000000000000184, -0.9989686916589543 
0.11000000000000212, -0.995942086743814 
0.12000000000000241, -0.9927500231778236 
0.130000000000002, -0.9893938031129741 
0.1400000000000009, -0.9858750867905736 
0.1499999999999998, -0.9821959492639991 
0.1599999999999987, -0.9783589337327022 
0.1699999999999976, -0.9743671005835789 
0.1799999999999965, -0.9702240714245024 
0.1899999999999954, -0.9659340675852873 
0.1999999999999943, -0.9615019427442357 
0.2099999999999932, -0.9569332095056906 
0.2199999999999921, -0.9522340598993538 
0.229999999999991, -0.9474113798912823 
0.2399999999999899, -0.9424727580872257 
0.2499999999999888, -0.9374264888713225 
0.2599999999999877, -0.9322815702588242 
0.2699999999999866, -0.9270476967538567 
0.2799999999999855, -0.9217352474966373 
0.2899999999999844, -0.9163552699642165 
0.2999999999999833, -0.9109194594600153 
0.3099999999999822, -0.9054401345953701 
0.3199999999999811, -0.8999302089355027 
0.32999999999998, -0.8944031589566981 
0.3399999999999789, -0.888872988443647 
0.3499999999999778, -0.8833541894476565 
0.35999999999997667, -0.8778616999283161 
0.36999999999997557, -0.8724108582127835 
0.37999999999997447, -0.8670173544269082 
0.38999999999997337, -0.8616971790789053 
0.39999999999997227, -0.8564665690069261 
0.40999999999997117, -0.8513419509339389 
0.41999999999997006, -0.846339882904286 
0.42999999999996896, -0.8414769939036537 
0.43999999999996786, -0.8367699219860311 
0.44999999999996676, -0.8322352512458774 
0.45999999999996566, -0.8278894479803534 
0.46999999999996456, -0.8237487963846816 
0.47999999999996346, -0.8198293341137378 
0.48999999999996235, -0.8161467880257806 
0.49999999999996125, -0.8127165104009367 
0.5099999999999602, -0.8095534158995524 
0.519999999999959, -0.8066719194955079 
0.529999999999958, -0.804085875589333 
0.5399999999999568, -0.8018085184773275 
0.5499999999999557, -0.7998524043279112 
0.5599999999999546, -0.7982293547967514 
0.5699999999999535, -0.7969504023992641 
0.5799999999999524, -0.7960257377537847 
0.5899999999999513, -0.7954646588117117 
0.5999999999999502, -0.7952755222022898 
0.6099999999999491, -0.7954656968390684 
0.619999999999948, -0.796041519961683 
0.6299999999999469, -0.7970082558191655 
0.6399999999999458, -0.7983700572379259 
0.6499999999999447, -0.8001299303569225 
0.6599999999999436, -0.8022897028521546 
0.6699999999999425, -0.8048499960101799 
0.6799999999999414, -0.807810201043399 
0.6899999999999403, -0.8111684600660699 
0.6999999999999392, -0.8149216521671151 
0.7099999999999381, -0.8190653850217663 
0.719999999999937, -0.823593992477312 
0.7299999999999359, -0.828500538527343 
0.7399999999999348, -0.8337768280532044 
0.7499999999999337, -0.8394134246605521 
0.7599999999999326, -0.8453996758732947 
0.7699999999999315, -0.851723745867626 
0.7799999999999304, -0.8583726558366116 
0.7899999999999293, -0.8653323319728401 
0.7999999999999282, -0.8725876609450437 
0.8099999999999271, -0.8801225526269925 
0.819999999999926, -0.8879200097160619 
0.8299999999999249, -0.8959622037574835 
0.8399999999999238, -0.9042305569714056 
0.8499999999999227, -0.9127058291662961 
0.8599999999999216, -0.9213682089167377 
0.8699999999999205, -0.93019740808897 
0.8799999999999194, -0.9391727587160664 
0.8899999999999183, -0.9482733111588588 
0.8999999999999172, -0.9574779324407136 
0.9099999999999161, -0.9667654036160315 
0.919999999999915, -0.9761145150256618 
0.9299999999999139, -0.985504158308626 
0.9399999999999128, -0.9949134140798207 
0.9499999999999117, -1.0043216342482095 
0.9599999999999106, -1.0137085180395264 
0.9699999999999095, -1.0230541809010907 
0.9799999999999084, -1.0323392156026192 
0.9899999999999073, -1.041544745003885 
0.9999999999999062, -1.050652466134737 
1.0099999999999052, -1.0596446854217896 
1.019999999999904, -1.068504345094615 
1.029999999999903, -1.0772150410075192 
1.039999999999902, -1.0857610323155158 
1.0499999999999008, -1.0941272436390734 
1.0599999999998997, -1.1022992605355275 
1.0699999999998986, -1.1102633192597338 
1.0799999999998975, -1.1180062919365539 
1.0899999999998964, -1.1255156683775787 
1.0999999999998953, -1.1327795358490425 
1.1099999999998942, -1.1397865581327549 
1.119999999999893, -1.146525955213875 
1.129999999999892, -1.1529874848762165 
1.1399999999998909, -1.159161427387085 
1.1499999999998898, -1.1650385743103888 
1.1599999999998887, -1.170610222302224 
1.1699999999998876, -1.1758681725223743 
1.1799999999998865, -1.1808047360457627 
1.1899999999998854, -1.1854127453891685 
1.1999999999998843, -1.1896855719919077 
1.2099999999998832, -1.193617149217338 
1.219999999999882, -1.1972020001885018 
1.229999999999881, -1.2004352695495568 
1.2399999999998799, -1.203312758067519 
1.2499999999998788, -1.2058309588670337 
1.2599999999998777, -1.2079870940326807 
1.2699999999998766, -1.209779150322939 
1.2799999999998755, -1.2112059128179875 
1.2899999999998744, -1.2122669954655154 
1.2999999999998733, -1.2129628676862192 
1.3099999999998722, -1.2132948764406586 
1.319999999999871, -1.2132652634256096 
1.32999999999987, -1.2128771773425906 
1.3399999999998689, -1.2121346814443996 
1.3499999999998678, -1.211042756798278 
1.3599999999998666, -1.2096073018897402 
1.3699999999998655, -1.207835129314741 
1.3799999999998644, -1.2057339603599477 
1.3899999999998633, -1.2033124182460682 
1.3999999999998622, -1.2005800207076749 
1.4099999999998611, -1.1975471724098503 
1.41999999999986, -1.1942251574680671 
1.429999999999859, -1.1906261320575136 
1.4399999999998578, -1.186763116790519 
1.4499999999998567, -1.182649988227044 
1.4599999999998556, -1.178301468586295 
1.4699999999998545, -1.1737331124705292 
1.4799999999998534, -1.1689612892169485 
1.4899999999998523, -1.164003159379499 
1.4999999999998512, -1.1588766438246252 
1.5099999999998501, -1.1536003840130202 
1.519999999999849, -1.1481936922363742 
1.529999999999848, -1.142676490879336 
1.5399999999998468, -1.1370692401701088 
1.5499999999998457, -1.1313928543482468 
1.5599999999998446, -1.1256686066886479 
1.5699999999998435, -1.1199180243446016 
1.5799999999998424, -1.114162774475322 
1.5899999999998413, -1.1084245435696864 
1.5999999999998402, -1.1027249122355316 
1.6099999999998391, -1.0970852279660088 
1.619999999999838, -1.0915264785021195 
1.629999999999837, -1.0860691683745824 
1.6399999999998358, -1.0807332010300212 
1.6499999999998347, -1.075537768638432 
1.6599999999998336, -1.0705012512627445 
1.6699999999998325, -1.0656411265768264 
1.6799999999998314, -1.0609738907803279 
1.6899999999998303, -1.0565149908146432 
1.6999999999998292, -1.0522787674706169 
1.709999999999828, -1.0482784085286003 
1.719999999999827, -1.0445259107126326 
1.729999999999826, -1.0410320489928664 
1.7399999999998248, -1.0378063516454743 
1.7499999999998237, -1.0348570794800902 
1.7599999999998226, -1.032191207765804 
1.7699999999998215, -1.0298144096148836 
1.7799999999998204, -1.0277310398995818 
1.7899999999998193, -1.0259441191577852 
1.7999999999998182, -1.024455317361157 
1.809999999999817, -1.0232649378467884 
1.819999999999816, -1.0223719021225937 
1.8299999999998149, -1.021773736621911 
1.8399999999998138, -1.0214665627813373 
1.8499999999998127, -1.0214450920291793 
1.8599999999998116, -1.0217026273865304 
1.8699999999998105, -1.0222310733909525 
1.8799999999998094, -1.0230209559521142 
1.8899999999998083, -1.024061453543489 
1.8999999999998072, -1.0253404408342637 
1.909999999999806, -1.02684454548614 
1.919999999999805, -1.0285592184005432 
1.9299999999998039, -1.0304688172262806 
1.9399999999998028, -1.0325567024515838 
1.9499999999998017, -1.0348053449344001 
1.9599999999998006, -1.0371964432964385 
1.9699999999997995, -1.0397110492436368 
1.9799999999997984, -1.0423296985979795 
1.9899999999997973, -1.0450325456477727 
1.9999999999997962, -1.047799498354198 
2.0099999999998173, -1.050610351993242 
2.0199999999998384, -1.053444918959258 
2.0299999999998595, -1.056283152698456 
2.0399999999998806, -1.0591052640610201 
2.0499999999999017, -1.0618918287385877 
2.059999999999923, -1.0646238848659328 
2.069999999999944, -1.0672830202872003 
2.079999999999965, -1.0698514493938127 
2.089999999999986, -1.0723120798109922 
2.100000000000007, -1.074648569523939 
2.1100000000000283, -1.076845375278409 
2.1200000000000494, -1.078887793254208 
2.1300000000000705, -1.0807619930894103 
2.1400000000000916, -1.082455046328829 
2.1500000000001127, -1.0839549502879853 
2.160000000000134, -1.085250648173651 
2.170000000000155, -1.0863320460977868 
2.180000000000176, -1.0871900273797552 
2.190000000000197, -1.0878164642707282 
2.2000000000002182, -1.0882042269734233 
2.2100000000002393, -1.0883471895889285 
2.2200000000002604, -1.0882402324183118 
2.2300000000002815, -1.087879239895537 
2.2400000000003026, -1.087261093342318 
2.2500000000003237, -1.0863836577230426 
2.260000000000345, -1.0852457616423385 
2.270000000000366, -1.0838471699674173 
2.280000000000387, -1.082188548665333 
2.290000000000408, -1.0802714217099125 
2.3000000000004293, -1.0780981202187456 
2.3100000000004504, -1.0756717243083826 
2.3200000000004715, -1.0729959984853206 
2.3300000000004926, -1.0700753217007073 
2.3400000000005137, -1.0669146134684462 
2.3500000000005348, -1.0635192576627797 
2.360000000000556, -1.0598950257592814 
2.370000000000577, -1.0560480013542215 
2.380000000000598, -1.0519845077878567 
2.390000000000619, -1.0477110406090138 
2.4000000000006403, -1.0432342064574265 
2.4100000000006614, -1.0385606697167622 
2.4200000000006825, -1.0336971080179933 
2.4300000000007036, -1.0286501773647732 
2.4400000000007247, -1.0234264873253625 
2.450000000000746, -1.0180325864049975 
2.460000000000767, -1.0124749573929177 
2.470000000000788, -1.006760022182323 
2.480000000000809, -1.0008941552998292 
2.49000000000083, -0.9948837051615064 
2.5000000000008513, -0.9887350219007007 
2.5100000000008724, -0.9824544904911491 
2.5200000000008935, -0.9760485678177233 
2.5300000000009146, -0.9695238223244494 
2.5400000000009357, -0.9628869748914589 
2.550000000000957, -0.9561449396539612 
2.560000000000978, -0.9493048635708234 
2.570000000000999, -0.9423741636710474 
2.58000000000102, -0.9353605610460803 
2.5900000000010412, -0.9282721108076375 
2.6000000000010624, -0.9211172273878624 
2.6100000000010835, -0.9139047047155638 
2.6200000000011046, -0.9066437309539003 
2.6300000000011257, -0.8993438976274385 
2.6400000000011468, -0.8920152030970059 
2.650000000001168, -0.8846680504573238 
2.660000000001189, -0.8773132400339746 
2.67000000000121, -0.8699619567425527 
2.680000000001231, -0.8626257526440775 
2.6900000000012523, -0.8553165250877053 
2.7000000000012734, -0.8480464908753461 
2.7100000000012945, -0.8408281569140753 
2.7200000000013156, -0.8336742878423795 
2.7300000000013367, -0.8265978711262993 
2.740000000001358, -0.8196120801224245 
2.750000000001379, -0.8127302355973154 
2.7600000000014, -0.805965766178001 
2.770000000001421, -0.7993321681864531 
2.780000000001442, -0.7928429652829226 
2.7900000000014633, -0.7865116683094383 
2.8000000000014844, -0.780351735686205 
2.8100000000015055, -0.7743765346708203 
2.8200000000015266, -0.7685993037438604 
2.8300000000015477, -0.7630331163354189 
2.840000000001569, -0.7576908460563276 
2.85000000000159, -0.7525851335462573 
2.860000000001611, -0.7477283549994196 
2.870000000001632, -0.743132592378427 
2.8800000000016532, -0.7388096052788536 
2.8900000000016743, -0.7347708043622402 
2.9000000000016954, -0.7310272262345929 
2.9100000000017165, -0.7275895096116713 
2.9200000000017377, -0.7244678725823099 
2.9300000000017588, -0.7216720907572926 
2.94000000000178, -0.7192114760744559 
2.950000000001801, -0.7170948560211041 
2.960000000001822, -0.7153305530328152 
2.970000000001843, -0.7139263638334146 
2.9800000000018643, -0.7128895384943762 
2.9900000000018854, -0.7122267590130958 
3.0000000000019065, -0.7119441172381206 
3.0100000000019276, -0.7120470920052397 
3.0200000000019487, -0.7125405253908322 
3.03000000000197, -0.713428598037444 
3.040000000001991, -0.7147148035604534 
3.050000000002012, -0.7164019221030256 
3.060000000002033, -0.7184919931681909 
3.070000000002054, -0.72098628792072 
3.0800000000020753, -0.7238852812159543 
3.0900000000020964, -0.7271886236764837 
3.1000000000021175, -0.7308951141987606 
3.1100000000021386, -0.7350026733286187 
3.1200000000021597, -0.7395083179953738 
3.130000000002181, -0.7444081381367004 
3.140000000002202, -0.7496972757789874 
3.150000000002223, -0.7553699071584734 
3.160000000002244, -0.761419228475465 
3.1700000000022652, -0.767837445865957 
3.1800000000022863, -0.7746157701507973 
3.1900000000023074, -0.781744416881452 
3.2000000000023285, -0.7892126121432318 
3.2100000000023496, -0.7970086045016656 
3.2200000000023707, -0.8051196833865231 
3.230000000002392, -0.8135322041022095 
3.240000000002413, -0.822231619534936 
3.250000000002434, -0.8312025184988947 
3.260000000002455, -0.8404286705289008 
3.2700000000024763, -0.8498930767892311 
3.2800000000024974, -0.8595780266318539 
3.2900000000025185, -0.8694651592062145 
3.3000000000025396, -0.8795355294017301 
3.3100000000025607, -0.8897696772976259 
3.3200000000025818, -0.9001477002070122 
3.330000000002603, -0.9106493263371298 
3.340000000002624, -0.9212539890489521 
3.350000000002645, -0.9319409006896509 
3.360000000002666, -0.9426891249928182 
3.3700000000026873, -0.9534776470948876 
3.3800000000027084, -0.964285440301943 
3.3900000000027295, -0.9750915288579428 
3.4000000000027506, -0.9858750461109974 
3.4100000000027717, -0.9966152876452085 
3.420000000002793, -1.007291759136879 
3.430000000002814, -1.0178842188997206 
3.440000000002835, -1.0283727152970095 
3.450000000002856, -1.0387376194114508 
3.460000000002877, -1.0489596535672188 
3.4700000000028983, -1.0590199164840832 
3.4800000000029194, -1.0688999060015174 
3.4900000000029405, -1.0785815404322159 
3.5000000000029616, -1.0880471796813684 
3.5100000000029827, -1.0972796472931665 
3.520000000003004, -1.1062622545541514 
3.530000000003025, -1.1149788276909234 
3.540000000003046, -1.1234137390470333 
3.550000000003067, -1.1315519429132597 
3.5600000000030882, -1.139379016423052 
3.5700000000031094, -1.1468812056202833 
3.5800000000031305, -1.154045476472778 
3.5900000000031516, -1.1608595702584936 
3.6000000000031727, -1.1673120624103654 
3.6100000000031938, -1.1733924235908373 
3.620000000003215, -1.1790910814983733 
3.630000000003236, -1.1843994817050667 
3.640000000003257, -1.1893101457034874 
3.650000000003278, -1.1938167243146378 
3.6600000000032993, -1.1979140446844452 
3.6700000000033204, -1.2015981492742256 
3.6800000000033415, -1.2048663255249077 
3.6900000000033626, -1.207717125232353 
3.7000000000033837, -1.2101503730926573 
3.710000000003405, -1.2121671643375733 
3.720000000003426, -1.2137698518534985 
3.730000000003447, -1.2149620236339058 
3.740000000003468, -1.2157484718261855 
3.750000000003489, -1.2161351549740547 
3.7600000000035103, -1.216129155304641 
3.7700000000035314, -1.2157386330494588 
3.7800000000035525, -1.214972779811648 
3.7900000000035736, -1.213841772895887 
3.8000000000035947, -1.21235673230656 
3.810000000003616, -1.2105296818048166 
3.820000000003637, -1.208373515011813 
3.830000000003658, -1.2059019670743198 
3.840000000003679, -1.2031295918935137 
3.8500000000037002, -1.2000717443846693 
3.8600000000037213, -1.1967445667123033 
3.8700000000037424, -1.193164976960517 
3.8800000000037635, -1.1893506582796936 
3.8900000000037847, -1.1853200462249638 
3.9000000000038058, -1.1810923117925411 
3.910000000003827, -1.1766873375867617 
3.920000000003848, -1.1721256846275205 
3.930000000003869, -1.167428547541304 
3.94000000000389, -1.1626176962673438 
3.9500000000039113, -1.1577154029419268 
3.9600000000039324, -1.1527443532764 
3.9700000000039535, -1.1477275424862048 
3.9800000000039746, -1.1426881566183387 
3.9900000000039957, -1.1376494409156166 
4.000000000004016, -1.132634557597124 
4.010000000003993, -1.1276664360746043 
4.02000000000397, -1.1227676191181117 
4.030000000003946, -1.1179601087935311 
4.040000000003923, -1.1132652160941252 
4.0500000000039, -1.1087034180673219 
4.0600000000038765, -1.1042942259019308 
4.070000000003853, -1.1000560669108945 
4.08000000000383, -1.0960061826560366 
4.090000000003807, -1.0921605446605447 
4.100000000003783, -1.0885337882963986 
4.11000000000376, -1.085139164574744 
4.120000000003737, -1.0819885087631265 
4.130000000003713, -1.0790922240550063 
4.14000000000369, -1.076459277965441 
4.150000000003667, -1.0740972087524143 
4.1600000000036434, -1.0720121389831745 
4.17000000000362, -1.0702087933830213 
4.180000000003597, -1.0686905183113167 
4.1900000000035735, -1.06745930058556 
4.20000000000355, -1.0665157838889836 
4.210000000003527, -1.0658592816126629 
4.220000000003504, -1.065487785657178 
4.23000000000348, -1.065397971406655 
4.240000000003457, -1.0655851997452175 
4.250000000003434, -1.0660435175709024 
4.26000000000341, -1.0667656587384535 
4.270000000003387, -1.0677430477005712 
4.280000000003364, -1.0689658082962867 
4.2900000000033405, -1.0704227801441466 
4.300000000003317, -1.0721015449361495 
4.310000000003294, -1.0739884646060451 
4.320000000003271, -1.0760687328827874 
4.330000000003247, -1.0783264411657887 
4.340000000003224, -1.0807446590095495 
4.350000000003201, -1.0833055288224502 
4.360000000003177, -1.0859903737114347 
4.370000000003154, -1.0887798167835023 
4.380000000003131, -1.09165390968502 
4.390000000003107, -1.094592267752971 
4.400000000003084, -1.0975742088914084 
4.410000000003061, -1.100578893184291 
4.4200000000030375, -1.1035854603138968 
4.430000000003014, -1.10657316206263 
4.440000000002991, -1.1095214875156638 
4.450000000002968, -1.1124102790251302 
4.460000000002944, -1.115219837510206 
4.470000000002921, -1.1179310162155753 
4.480000000002898, -1.120525302597262 
4.490000000002874, -1.1229848885161455 
4.500000000002851, -1.1252927293666473 
4.510000000002828, -1.1274325931283509 
4.520000000002804, -1.1293891005862449 
4.530000000002781, -1.13114775811287 
4.540000000002758, -1.1326949844424843 
4.5500000000027345, -1.1340181327998153 
4.560000000002711, -1.1351055095862967 
4.570000000002688, -1.1359463905920255 
4.580000000002665, -1.136531035412667 
4.590000000002641, -1.136850700429926 
4.600000000002618, -1.1368976503859414 
4.610000000002595, -1.1366651682692444 
4.620000000002571, -1.1361475629547304 
4.630000000002548, -1.135340173821284 
4.640000000002525, -1.134239371423633 
4.6500000000025015, -1.1328425532300266 
4.660000000002478, -1.1311481334597062 
4.670000000002455, -1.1291555261630948 
4.6800000000024315, -1.126865120876837 
4.690000000002408, -1.1242782504433897 
4.700000000002385, -1.12139715089428 
4.710000000002362, -1.118224913637359 
4.720000000002338, -1.1147654305392172 
4.730000000002315, -1.1110233328317132 
4.740000000002292, -1.1070039250747075 
4.750000000002268, -1.1027131156567498 
4.760000000002245, -1.0981573454966616 
4.770000000002222, -1.0933435167116383 
4.7800000000021985, -1.0882789230370136 
4.790000000002175, -1.0829711837198108 
4.800000000002152, -1.0774281824685565 
4.810000000002129, -1.071658012835367 
4.820000000002105, -1.0656689311465364 
4.830000000002082, -1.059469317799995 
4.840000000002059, -1.0530676474285345 
4.850000000002035, -1.0464724681027777 
4.860000000002012, -1.039692389432559 
4.870000000001989, -1.0327360791329472 
4.880000000001965, -1.0256122673623278 
4.890000000001942, -1.0183297579229142 
4.900000000001919, -1.010897445244058 
4.9100000000018955, -1.0033243359483488 
4.920000000001872, -0.9956195737298603 
4.930000000001849, -0.9877924662508891 
