t, s[1].omega / s[0].omega 
0, -1.260045811609197 
0.009999999999999995, -1.2639784307975028 
0.019999999999999934, -1.2667020515945455 
0.029999999999999874, -1.2684134765505524 
0.04000000000000012, -1.2693486581164004 
0.050000000000000405, -1.2697221847716447 
0.06000000000000069, -1.2697026344959994 
0.07000000000000098, -1.2694163347721874 
0.08000000000000126, -1.2689686157248654 
0.09000000000000155, -1.2684703705535312 
0.10000000000000184, -1.2680519160796215 
0.11000000000000212, -1.2678432829682946 
0.12000000000000241, -1.2679245520829858 
0.130000000000002, -1.2682901432559974 
0.1400000000000009, -1.2688616594955775 
0.1499999999999998, -1.269529176283431 
0.1599999999999987, -1.2701850281502527 
0.1699999999999976, -1.2707403015283238 
0.1799999999999965, -1.2711294314081703 
0.1899999999999954, -1.2713080170026279 
0.1999999999999943, -1.2712481031212675 
0.2099999999999932, -1.2709341906543463 
0.2199999999999921, -1.2703611262060757 
0.229999999999991, -1.269533869589501 
0.2399999999999899, -1.268469342964997 
0.2499999999999888, -1.2672008322449761 
0.2599999999999877, -1.265784708963009 
0.2699999999999866, -1.2643074188860572 
0.2799999999999855, -1.2628880241821596 
0.2899999999999844, -1.2616669977608297 
0.2999999999999833, -1.2607684298557928 
0.3099999999999822, -1.2602403557883393 
0.3199999999999811, -1.260019280387358 
0.32999999999998, -1.2599619034397709 
0.3399999999999789, -1.2599131913532664 
0.3499999999999778, -1.2597453920123984 
0.35999999999997667, -1.259349779466445 
0.36999999999997557, -1.2586041105664196 
0.37999999999997447, -1.2573380938744034 
0.38999999999997337, -1.2553097782126899 
0.39999999999997227, -1.2522077802373939 
0.40999999999997117, -1.2477011033551753 
0.41999999999997006, -1.2415555239431633 
0.42999999999996896, -1.2338160397702973 
0.43999999999996786, -1.2250139255324162 
0.44999999999996676, -1.216266055852079 
0.45999999999996566, -1.209017343819105 
0.46999999999996456, -1.2043254596284128 
0.47999999999996346, -1.2022125096639078 
0.48999999999996235, -1.2018222028811234 
0.49999999999996125, -1.2021633755799495 
0.5099999999999602, -1.2026005600429497 
0.519999999999959, -1.2028617435723272 
0.529999999999958, -1.2028632609009937 
0.5399999999999568, -1.2025686165707556 
0.5499999999999557, -1.2019084771429547 
0.5599999999999546, -1.2007254763497404 
0.5699999999999535, -1.1987123899563161 
0.5799999999999524, -1.1953377776581475 
0.5899999999999513, -1.1898166746451224 
0.5999999999999502, -1.1813323970935912 
0.6099999999999491, -1.169863000741405 
0.619999999999948, -1.1575057322382214 
0.6299999999999469, -1.1485626837866296 
0.6399999999999458, -1.1465148607116238 
0.6499999999999447, -1.150713911870504 
0.6599999999999436, -1.1574769306463308 
0.6699999999999425, -1.1636403474232757 
0.6799999999999414, -1.1680217655715184 
0.6899999999999403, -1.17072636084555 
0.6999999999999392, -1.1722280396042246 
0.7099999999999381, -1.1729438722744447 
0.719999999999937, -1.1731427631808438 
0.7299999999999359, -1.1729663955070289 
0.7399999999999348, -1.1724654520192128 
0.7499999999999337, -1.1716317852464635 
0.7599999999999326, -1.1704444505715803 
0.7699999999999315, -1.1689780399698853 
0.7799999999999304, -1.1676386134518508 
0.7899999999999293, -1.1674909129376339 
0.7999999999999282, -1.1702793015633932 
0.8099999999999271, -1.1775172743606452 
0.819999999999926, -1.189004360068115 
0.8299999999999249, -1.202508188921808 
0.8399999999999238, -1.2152184527768441 
0.8499999999999227, -1.2253242336668053 
0.8599999999999216, -1.2323949117824802 
0.8699999999999205, -1.2368775311406575 
0.8799999999999194, -1.2394900194433605 
0.8899999999999183, -1.2408712437081317 
0.8999999999999172, -1.241474588500411 
0.9099999999999161, -1.2415852519672574 
0.919999999999915, -1.2413745177565394 
0.9299999999999139, -1.2409571494600142 
0.9399999999999128, -1.2404479038712082 
0.9499999999999117, -1.2400137220231717 
0.9599999999999106, -1.2398913805548792 
0.9699999999999095, -1.2403212787835893 
0.9799999999999084, -1.2414127270988176 
0.9899999999999073, -1.2430667653656833 
0.9999999999999062, -1.2450406093549362 
1.0099999999999052, -1.2470740033138097 
1.019999999999904, -1.248967478843094 
1.029999999999903, -1.2505956303856203 
1.039999999999902, -1.2518908578397134 
1.0499999999999008, -1.2528248898483967 
1.0599999999998997, -1.2533968279286223 
1.0699999999998986, -1.2536265573699625 
1.0799999999998975, -1.2535498522526205 
1.0899999999998964, -1.2532136410342063 
1.0999999999998953, -1.2526732655135344 
1.1099999999998942, -1.2519938539432633 
1.119999999999893, -1.2512535849752804 
1.129999999999892, -1.250541452265588 
1.1399999999998909, -1.2499439752417807 
1.1499999999998898, -1.2495256403116581 
1.1599999999998887, -1.249313053835051 
1.1699999999998876, -1.2492867198132098 
1.1799999999998865, -1.2493831181025903 
1.1899999999998854, -1.2495114024799359 
1.1999999999998843, -1.2495770578520693 
1.2099999999998832, -1.2494961580613118 
1.219999999999882, -1.2491952781298787 
1.229999999999881, -1.2486058358710772 
1.2399999999998799, -1.2476626094120749 
1.2499999999998788, -1.2463094460829218 
1.2599999999998777, -1.2445091924084508 
1.2699999999998766, -1.2422539862208921 
1.2799999999998755, -1.2395763191324884 
1.2899999999998744, -1.2365656744961553 
1.2999999999998733, -1.233392813636276 
1.3099999999998722, -1.23032785634898 
1.319999999999871, -1.2277112576745526 
1.32999999999987, -1.2258357715360755 
1.3399999999998689, -1.2247855381823005 
1.3499999999998678, -1.224386564802574 
1.3599999999998666, -1.224334476009063 
1.3699999999998655, -1.2243589629581098 
1.3799999999998644, -1.2242853532447888 
1.3899999999998633, -1.2240028728480064 
1.3999999999998622, -1.2234041553638242 
1.4099999999998611, -1.2223254053499382 
1.41999999999986, -1.2204852494387353 
1.429999999999859, -1.2174204695759179 
1.4399999999998578, -1.2124481995902983 
1.4499999999998567, -1.2047483846756548 
1.4599999999998556, -1.1937203167895762 
1.4699999999998545, -1.179672584015423 
1.4799999999998534, -1.1644610115114407 
1.4899999999998523, -1.1511545548119095 
1.4999999999998512, -1.142321099398469 
1.5099999999998501, -1.1383672465742705 
1.519999999999849, -1.1377656012579047 
1.529999999999848, -1.1386173667920343 
1.5399999999998468, -1.139701490391492 
1.5499999999998457, -1.1405223746229165 
1.5599999999998446, -1.1409754220854982 
1.5699999999998435, -1.1410837146778905 
1.5799999999998424, -1.1408724216552673 
1.5899999999998413, -1.1403180959049073 
1.5999999999998402, -1.1393190720721726 
1.6099999999998391, -1.1376612219970632 
1.619999999999838, -1.1349785314821843 
1.629999999999837, -1.1307523684606007 
1.6399999999998358, -1.1244871786906918 
1.6499999999998347, -1.1162893533291613 
1.6599999999998336, -1.107798962662852 
1.6699999999998325, -1.1023742319292102 
1.6799999999998314, -1.1030277666448003 
1.6899999999998303, -1.1095364107569607 
1.6999999999998292, -1.1186102049979707 
1.709999999999828, -1.126911762892934 
1.719999999999827, -1.1329672382944111 
1.729999999999826, -1.136820246159269 
1.7399999999998248, -1.139054668322827 
1.7499999999998237, -1.1402318147080206 
1.7599999999998226, -1.1407367028113435 
1.7699999999998215, -1.1407921178444709 
1.7799999999998204, -1.1405046840989947 
1.7899999999998193, -1.1399027663651489 
1.7999999999998182, -1.1389691645282602 
1.809999999999817, -1.1376954175648744 
1.819999999999816, -1.1362095962695349 
1.8299999999998149, -1.1350306492713962 
1.8399999999998138, -1.135365432733599 
1.8499999999998127, -1.1390071160707682 
1.8599999999998116, -1.1473108099085438 
1.8699999999998105, -1.1597949597766446 
1.8799999999998094, -1.1740250839405886 
1.8899999999998083, -1.1871459083448797 
1.8999999999998072, -1.1974115399047436 
1.909999999999806, -1.204496188533938 
1.919999999999805, -1.208936677190439 
1.9299999999998039, -1.211502132502455 
1.9399999999998028, -1.2128497654315074 
1.9499999999998017, -1.2134339635398577 
1.9599999999998006, -1.2135348039181748 
1.9699999999997995, -1.213316922247683 
1.9799999999997984, -1.212887683425359 
1.9899999999997973, -1.212354526644694 
1.9999999999997962, -1.2118835818833256 
2.0099999999998173, -1.2117342028887585 
2.0199999999998384, -1.212209194480442 
2.0299999999998595, -1.2135022785301075 
2.0399999999998806, -1.2155628182765925 
2.0499999999999017, -1.2181222428831293 
2.059999999999923, -1.2208429550533282 
2.069999999999944, -1.2234425822972699 
2.079999999999965, -1.2257336266640018 
2.089999999999986, -1.227611370564494 
2.100000000000007, -1.229031404360336 
2.1100000000000283, -1.2299933470384485 
2.1200000000000494, -1.230529914163369 
2.1300000000000705, -1.2306962921630529 
2.1400000000000916, -1.230558902973354 
2.1500000000001127, -1.2301875973056073 
2.160000000000134, -1.2296552874323161 
2.170000000000155, -1.229043627315983 
2.180000000000176, -1.2284461177067203 
2.190000000000197, -1.227957883685823 
2.2000000000002182, -1.2276520669916562 
2.2100000000002393, -1.2275585634439687 
2.2200000000002604, -1.2276590330246706 
2.2300000000002815, -1.227895873085792 
2.2400000000003026, -1.2281878778084678 
2.2500000000003237, -1.2284484830247622 
2.260000000000345, -1.2286002975267176 
2.270000000000366, -1.2285806449514143 
2.280000000000387, -1.2283403947822795 
2.290000000000408, -1.227842071493249 
2.3000000000004293, -1.2270602038533447 
2.3100000000004504, -1.2259830203885493 
2.3200000000004715, -1.2246141838941924 
2.3300000000004926, -1.22297539186433 
2.3400000000005137, -1.2211120258158161 
2.3500000000005348, -1.2191027513298147 
2.360000000000556, -1.2170700802565864 
2.370000000000577, -1.2151818630642353 
2.380000000000598, -1.2136250047539812 
2.390000000000619, -1.2125390014918698 
2.4000000000006403, -1.2119403782535536 
2.4100000000006614, -1.2117090696492168 
2.4200000000006825, -1.2116574955537083 
2.4300000000007036, -1.2116126986573548 
2.4400000000007247, -1.2114461504237857 
2.450000000000746, -1.2110538498225083 
2.460000000000767, -1.210317904262166 
2.470000000000788, -1.2090688002475596 
2.480000000000809, -1.2070572976852059 
2.49000000000083, -1.203950384787762 
2.5000000000008513, -1.199377727697755 
2.5100000000008724, -1.1930544120832478 
2.5200000000008935, -1.1849765519718478 
2.5300000000009146, -1.1756312333513248 
2.5400000000009357, -1.1660897741907408 
2.550000000000957, -1.157789798252099 
2.560000000000978, -1.1519224650442983 
2.570000000000999, -1.1487862985097768 
2.58000000000102, -1.1477422084147686 
2.5900000000010412, -1.1478040676625403 
2.6000000000010624, -1.1482063932602777 
2.6100000000010835, -1.1485511916500142 
2.6200000000011046, -1.1486881639663846 
2.6300000000011257, -1.148567087423119 
2.6400000000011468, -1.1481430526540282 
2.650000000001168, -1.1473191947328973 
2.660000000001189, -1.1458952519057672 
2.67000000000121, -1.1435003240555397 
2.680000000001231, -1.1395108244706544 
2.6900000000012523, -1.1330144430517408 
2.7000000000012734, -1.1230093431193526 
2.7100000000012945, -1.1091292856365256 
2.7200000000013156, -1.0928059615512535 
2.7300000000013367, -1.0776186187691001 
2.740000000001358, -1.0673786480914071 
2.750000000001379, -1.0633443036709944 
2.7600000000014, -1.063828783843413 
2.770000000001421, -1.0662294725750274 
2.780000000001442, -1.0687535467656772 
2.7900000000014633, -1.0706828541889444 
2.8000000000014844, -1.0719245410182174 
2.8100000000015055, -1.072599741427155 
2.8200000000015266, -1.0728442818445818 
2.8300000000015477, -1.0727436786860394 
2.840000000001569, -1.0723184324381887 
2.85000000000159, -1.0715170001107832 
2.860000000001611, -1.0702007856522695 
2.870000000001632, -1.0681214818719167 
2.8800000000016532, -1.0649141214556115 
2.8900000000016743, -1.0601788744125507 
2.9000000000016954, -1.0537904820009247 
2.9100000000017165, -1.0465105513529138 
2.9200000000017377, -1.040485114065752 
2.9300000000017588, -1.0385526808030716 
2.94000000000178, -1.042111832560814 
2.950000000001801, -1.0497193099521112 
2.960000000001822, -1.0583462988899526 
2.970000000001843, -1.0656558916339396 
2.9800000000018643, -1.0708530783311914 
2.9900000000018854, -1.0741566856903382 
3.0000000000019065, -1.076089644575077 
3.0100000000019276, -1.0771157385003929 
3.0200000000019487, -1.0775491608956351 
3.03000000000197, -1.077570491162351 
3.040000000001991, -1.077260604112936 
3.050000000002012, -1.0766251805945015 
3.060000000002033, -1.0756098144294701 
3.070000000002054, -1.0741215551108065 
3.0800000000020753, -1.0720959565994488 
3.0900000000020964, -1.0696823930962776 
3.1000000000021175, -1.067610222910952 
3.1100000000021386, -1.0675773055615156 
3.1200000000021597, -1.072004047977116 
3.130000000002181, -1.0824846692866639 
3.140000000002202, -1.097890902693135 
3.150000000002223, -1.1145752725701616 
3.160000000002244, -1.1289068010093564 
3.1700000000022652, -1.1392637794935416 
3.1800000000022863, -1.145891568497002 
3.1900000000023074, -1.1497910463377377 
3.2000000000023285, -1.1519320290623594 
3.2100000000023496, -1.1529992789095167 
3.2200000000023707, -1.153409364852247 
3.230000000002392, -1.1533932952262664 
3.240000000002413, -1.1530695831351607 
3.250000000002434, -1.15250052937851 
3.260000000002455, -1.1517499620956506 
3.2700000000024763, -1.1509682390984726 
3.2800000000024974, -1.1505112072738575 
3.2900000000025185, -1.1510179661404876 
3.3000000000025396, -1.1532641590143602 
3.3100000000025607, -1.1577146119735993 
3.3200000000025818, -1.164112946905695 
3.330000000002603, -1.171554650332902 
3.340000000002624, -1.1789562173392476 
3.350000000002645, -1.185474787822302 
3.360000000002666, -1.1906644460773281 
3.3700000000026873, -1.1944379251109063 
3.3800000000027084, -1.196947806512413 
3.3900000000027295, -1.198456011882568 
3.4000000000027506, -1.1992316785603567 
3.4100000000027717, -1.1994961133777253 
3.420000000002793, -1.1994106142318075 
3.430000000002814, -1.1990915440470127 
3.440000000002835, -1.198639182459876 
3.450000000002856, -1.198170133580962 
3.460000000002877, -1.1978365572103395 
3.4700000000028983, -1.197806526486686 
3.4800000000029194, -1.1981995052502716 
3.4900000000029405, -1.1990240854336074 
3.5000000000029616, -1.200177839829101 
3.5100000000029827, -1.2015039007779191 
3.520000000003004, -1.2028497017901407 
3.530000000003025, -1.204096055891279 
3.540000000003046, -1.205161202329994 
3.550000000003067, -1.2059940704072294 
3.5600000000030882, -1.2065661128119196 
3.5700000000031094, -1.2068657582884903 
3.5800000000031305, -1.2068959767725478 
3.5900000000031516, -1.2066733767783462 
3.6000000000031727, -1.206227331541109 
3.6100000000031938, -1.2055994563543266 
3.620000000003215, -1.2048446793130743 
3.630000000003236, -1.2040328556741768 
3.640000000003257, -1.2032461842217967 
3.650000000003278, -1.2025681817857563 
3.6600000000032993, -1.2020664094059215 
3.6700000000033204, -1.201775609249908 
3.6800000000033415, -1.2016861926325975 
3.6900000000033626, -1.2017433562039772 
3.7000000000033837, -1.2018617135873755 
3.710000000003405, -1.2019486746374868 
3.720000000003426, -1.2019209319247874 
3.730000000003447, -1.2017073552908712 
3.740000000003468, -1.201244877588205 
3.750000000003489, -1.2004766646248808 
3.7600000000035103, -1.1993563093261879 
3.7700000000035314, -1.1978556171636652 
3.7800000000035525, -1.1959715814148917 
3.7900000000035736, -1.1937313444480593 
3.8000000000035947, -1.1911984319332145 
3.810000000003616, -1.1884837990111992 
3.820000000003637, -1.1857587153408518 
3.830000000003658, -1.1832536829740663 
3.840000000003679, -1.181216110358139 
3.8500000000037002, -1.1798164855572197 
3.8600000000037213, -1.179056421846034 
3.8700000000037424, -1.1787690802349589 
3.8800000000037635, -1.1787188060139584 
3.8900000000037847, -1.1787024350442925 
3.9000000000038058, -1.178580575222234 
3.910000000003827, -1.1782519606422808 
3.920000000003848, -1.177609764229762 
3.930000000003869, -1.1764992699569334 
3.94000000000389, -1.1746817764569415 
3.9500000000039113, -1.1718146107970986 
3.9600000000039324, -1.167474922741663 
3.9700000000039535, -1.1612674189961818 
3.9800000000039746, -1.153034211104651 
3.9900000000039957, -1.1431131298935475 
4.000000000004016, -1.1324966597244992 
4.010000000003993, -1.1226870063930876 
4.02000000000397, -1.1151366415633297 
4.030000000003946, -1.1105304368069424 
4.040000000003923, -1.108511944811924 
4.0500000000039, -1.1081144564473455 
4.0600000000038765, -1.108409298422563 
4.070000000003853, -1.108822202873168 
4.08000000000383, -1.109096703494833 
4.090000000003807, -1.109144993745554 
4.100000000003783, -1.108930274754647 
4.11000000000376, -1.108397808103168 
4.120000000003737, -1.1074282913958151 
4.130000000003713, -1.1057878363188465 
4.14000000000369, -1.1030606551876196 
4.150000000003667, -1.0985756724414246 
4.1600000000036434, -1.0914014083664112 
4.17000000000362, -1.0805935942783775 
4.180000000003597, -1.0659049271722603 
4.1900000000035735, -1.0487415644337703 
4.20000000000355, -1.032295020592105 
4.210000000003527, -1.0199472206560523 
4.220000000003504, -1.0131411033585747 
4.23000000000348, -1.0109323399672605 
4.240000000003457, -1.0113162126528104 
4.250000000003434, -1.012606535269334 
4.26000000000341, -1.0138888364225362 
4.270000000003387, -1.0148336058001204 
4.280000000003364, -1.0153950414341888 
4.2900000000033405, -1.0156151907183188 
4.300000000003317, -1.015533429505218 
4.310000000003294, -1.015149795115813 
4.320000000003271, -1.0144037637281844 
4.330000000003247, -1.0131472717368102 
4.340000000003224, -1.0111008047641985 
4.350000000003201, -1.0077919391385612 
4.360000000003177, -1.0025040933826432 
4.370000000003154, -0.9943309643934569 
4.380000000003131, -0.9825183634106806 
4.390000000003107, -0.9671985196564181 
4.400000000003084, -0.9501028598565618 
4.410000000003061, -0.9342634168320825 
4.4200000000030375, -0.9224150925459741 
4.430000000003014, -0.9154979694150505 
4.440000000002991, -0.9126445475970236 
4.450000000002968, -0.9122507719949866 
4.460000000002944, -0.9129317877359879 
4.470000000002921, -0.9138526072039876 
4.480000000002898, -0.9146354948444502 
4.490000000002874, -0.915161546824746 
4.500000000002851, -0.9154196814927079 
4.510000000002828, -0.9154233550792288 
4.520000000002804, -0.9151704286480898 
4.530000000002781, -0.9146211170647094 
4.540000000002758, -0.9136781606129833 
4.5500000000027345, -0.9121615373430665 
4.560000000002711, -0.909779280754902 
4.570000000002688, -0.9061133213291269 
4.580000000002665, -0.9006674484008149 
4.590000000002641, -0.8930385946968306 
4.600000000002618, -0.8832056379308948 
4.610000000002595, -0.8717640700544305 
4.620000000002571, -0.859859574898756 
4.630000000002548, -0.8487939291608001 
4.640000000002525, -0.8395724436003796 
4.6500000000025015, -0.8326623738518745 
4.660000000002478, -0.8280116932783971 
4.670000000002455, -0.8252245628247643 
4.6800000000024315, -0.8237713692447919 
4.690000000002408, -0.8231516921962696 
4.700000000002385, -0.8229784053422611 
4.710000000002362, -0.8229923313849531 
4.720000000002338, -0.8230371730466942 
4.730000000002315, -0.8230227802686594 
4.740000000002292, -0.8228926719663562 
4.750000000002268, -0.8226009200102549 
4.760000000002245, -0.8220985479687613 
4.770000000002222, -0.821329425267719 
4.7800000000021985, -0.8202370347769843 
4.790000000002175, -0.8187823671506811 
4.800000000002152, -0.8169666145739795 
4.810000000002129, -0.8148442838283241 
4.820000000002105, -0.812514556572224 
4.830000000002082, -0.8100947758696009 
4.840000000002059, -0.8076935640258676 
4.850000000002035, -0.8053973864829042 
4.860000000002012, -0.8032709294286644 
4.870000000001989, -0.801363498227239 
4.880000000001965, -0.799714166422418 
4.890000000001942, -0.7983525570607944 
4.900000000001919, -0.7972957661411055 
4.9100000000018955, -0.7965439586203862 
4.920000000001872, -0.796077696260357 
4.930000000001849, -0.795859193443759 
