t, s[1].omega / s[0].omega 
0, -1.0799983066115133 
0.009999999999999995, -1.0797207917897826 
0.019999999999999934, -1.0792342192036877 
0.029999999999999874, -1.0785984752308562 
0.04000000000000012, -1.0779699225813566 
0.050000000000000405, -1.0775376856836265 
0.06000000000000069, -1.0774009776647107 
0.07000000000000098, -1.0774584238840157 
0.08000000000000126, -1.0774640834387075 
0.09000000000000155, -1.0772208351592116 
0.10000000000000184, -1.0766539480614876 
0.11000000000000212, -1.0758029398004996 
0.12000000000000241, -1.074742355465136 
0.130000000000002, -1.0735674683010863 
0.1400000000000009, -1.0724655881981757 
0.1499999999999998, -1.071717750280891 
0.1599999999999987, -1.0714563789044333 
0.1699999999999976, -1.0714190225289173 
0.1799999999999965, -1.071237346842795 
0.1899999999999954, -1.0706358785362304 
0.1999999999999943, -1.069434550066142 
0.2099999999999932, -1.067675446792348 
0.2199999999999921, -1.0655608749125078 
0.229999999999991, -1.0633314585162006 
0.2399999999999899, -1.0614028993007074 
0.2499999999999888, -1.0603181595869047 
0.2599999999999877, -1.0600497536986688 
0.2699999999999866, -1.0599900076298527 
0.2799999999999855, -1.0596691073720277 
0.2899999999999844, -1.058694405787045 
0.2999999999999833, -1.056611774594516 
0.3099999999999822, -1.0533286814417966 
0.3199999999999811, -1.0492938903602194 
0.32999999999998, -1.0451892596615993 
0.3399999999999789, -1.042034121823726 
0.3499999999999778, -1.0406516783686932 
0.35999999999997667, -1.0404492180166216 
0.36999999999997557, -1.0404036893268842 
0.37999999999997447, -1.0400072597079704 
0.38999999999997337, -1.0387550810482264 
0.39999999999997227, -1.0357951155237695 
0.40999999999997117, -1.0306570553133076 
0.41999999999997006, -1.024110493844668 
0.42999999999996896, -1.0176457891424227 
0.43999999999996786, -1.0131017164366685 
0.44999999999996676, -1.0113827133253077 
0.45999999999996566, -1.0112057363702176 
0.46999999999996456, -1.0111982769409469 
0.47999999999996346, -1.0108347697122966 
0.48999999999996235, -1.0096175385606154 
0.49999999999996125, -1.0065581552579166 
0.5099999999999602, -1.0008828728940828 
0.519999999999959, -0.9934163552530526 
0.529999999999958, -0.9860092326169261 
0.5399999999999568, -0.9806439120403713 
0.5499999999999557, -0.9783613737213371 
0.5599999999999546, -0.9779996947283771 
0.5699999999999535, -0.9780186099402817 
0.5799999999999524, -0.977787200246539 
0.5899999999999513, -0.9769175889454591 
0.5999999999999502, -0.9747182890189886 
0.6099999999999491, -0.9705953691936915 
0.619999999999948, -0.9650859950689301 
0.6299999999999469, -0.9594310238737874 
0.6399999999999458, -0.9547951145351044 
0.6499999999999447, -0.9521191131291483 
0.6599999999999436, -0.951285681924951 
0.6699999999999425, -0.9512131975937277 
0.6799999999999414, -0.9511239817682445 
0.6899999999999403, -0.950659529579204 
0.6999999999999392, -0.9494562236593247 
0.7099999999999381, -0.9472253309760388 
0.719999999999937, -0.9442239344331324 
0.7299999999999359, -0.9410397839386664 
0.7399999999999348, -0.9381343588216563 
0.7499999999999337, -0.9359331832313076 
0.7599999999999326, -0.9347642600981537 
0.7699999999999315, -0.9344376785609828 
0.7799999999999304, -0.9343970753400455 
0.7899999999999293, -0.9342325554427904 
0.7999999999999282, -0.9337021668409156 
0.8099999999999271, -0.9326715012726269 
0.819999999999926, -0.9312448133119492 
0.8299999999999249, -0.9296717199736523 
0.8399999999999238, -0.9281303155058078 
0.8499999999999227, -0.9267682530552753 
0.8599999999999216, -0.9257787241363178 
0.8699999999999205, -0.9252957781739007 
0.8799999999999194, -0.9252070061864424 
0.8899999999999183, -0.9252234996666282 
0.8999999999999172, -0.9251092176443565 
0.9099999999999161, -0.9247547276500393 
0.919999999999915, -0.9241864254143445 
0.9299999999999139, -0.923497356922195 
0.9399999999999128, -0.9227436090741031 
0.9499999999999117, -0.9219818100450878 
0.9599999999999106, -0.9213348803925375 
0.9699999999999095, -0.9209481186686663 
0.9799999999999084, -0.9208796630180394 
0.9899999999999073, -0.921037699979955 
0.9999999999999062, -0.9212458443519225 
1.0099999999999052, -0.9213750550212828 
1.019999999999904, -0.921393033542485 
1.029999999999903, -0.9213036690411188 
1.039999999999902, -0.92107807860114 
1.0499999999999008, -0.9207083578216372 
1.0599999999998997, -0.9202898095302372 
1.0699999999998986, -0.9200170338264779 
1.0799999999998975, -0.9200699610568204 
1.0899999999998964, -0.9204688947353423 
1.0999999999998953, -0.9210906057614136 
1.1099999999998942, -0.9217899679744137 
1.119999999999893, -0.9224746219980905 
1.129999999999892, -0.9230612185388873 
1.1399999999998909, -0.9234112599219146 
1.1499999999998898, -0.9234368310308193 
1.1599999999998887, -0.9232112894826193 
1.1699999999998876, -0.9229409432062287 
1.1799999999998865, -0.922969589240846 
1.1899999999998854, -0.9236305523799121 
1.1999999999998843, -0.924936719321916 
1.2099999999998832, -0.9266501782766262 
1.219999999999882, -0.9285347245505251 
1.229999999999881, -0.9303409651331731 
1.2399999999998799, -0.9316956505918409 
1.2499999999998788, -0.9323493339999843 
1.2599999999998777, -0.9324281259761703 
1.2699999999998766, -0.9321992974069536 
1.2799999999998755, -0.9319999730378837 
1.2899999999998744, -0.932499130090448 
1.2999999999998733, -0.9344745802320553 
1.3099999999998722, -0.9379492102244134 
1.319999999999871, -0.9422771055165307 
1.32999999999987, -0.9466580554917682 
1.3399999999998689, -0.9500913786256636 
1.3499999999998678, -0.9519302383661955 
1.3599999999998666, -0.9525210968750466 
1.3699999999998655, -0.952469822028967 
1.3799999999998644, -0.9521464882850974 
1.3899999999998633, -0.9520993281614677 
1.3999999999998622, -0.9538001573065393 
1.4099999999998611, -0.9588330343446478 
1.41999999999986, -0.9666709665072014 
1.429999999999859, -0.9751989794857691 
1.4399999999998578, -0.9819891369947394 
1.4499999999998567, -0.9856358813964192 
1.4599999999998556, -0.9869164866437417 
1.4699999999998545, -0.9871056647309195 
1.4799999999998534, -0.9868250515193129 
1.4899999999998523, -0.9864784617021183 
1.4999999999998512, -0.9873762919076188 
1.5099999999998501, -0.9921006476632118 
1.519999999999849, -1.001110721573101 
1.529999999999848, -1.0115271629387539 
1.5399999999998468, -1.019999002874652 
1.5499999999998457, -1.024677614956437 
1.5599999999998446, -1.0263864994975977 
1.5699999999998435, -1.0267233417816 
1.5799999999998424, -1.0265033491193127 
1.5899999999998413, -1.026147663272273 
1.5999999999998402, -1.0267344145134658 
1.6099999999998391, -1.0302455762489342 
1.619999999999838, -1.0367474967204287 
1.629999999999837, -1.0440299658305578 
1.6399999999998358, -1.0500656899839353 
1.6499999999998347, -1.053683095321082 
1.6599999999998336, -1.055129284537984 
1.6699999999998325, -1.0554132224900572 
1.6799999999998314, -1.055201657977832 
1.6899999999998303, -1.0549407073817183 
1.6999999999998292, -1.0555065878219954 
1.709999999999828, -1.0577825114090662 
1.719999999999827, -1.061250192012223 
1.729999999999826, -1.064832144907099 
1.7399999999998248, -1.06783361482953 
1.7499999999998237, -1.0697873318656794 
1.7599999999998226, -1.0706267394622895 
1.7699999999998215, -1.0707249729028534 
1.7799999999998204, -1.0704804636966214 
1.7899999999998193, -1.070305284540375 
1.7999999999998182, -1.0707615601505747 
1.809999999999817, -1.0720044974480003 
1.819999999999816, -1.0735927253764348 
1.8299999999998149, -1.0751234194051993 
1.8399999999998138, -1.0763849016415261 
1.8499999999998127, -1.077210562731086 
1.8599999999998116, -1.0775114354835782 
1.8699999999998105, -1.0773899233846984 
1.8799999999998094, -1.0770768427677488 
1.8899999999998083, -1.0768950894808387 
1.8999999999998072, -1.0771129829194115 
1.909999999999806, -1.0776716765102765 
1.919999999999805, -1.0783328146646802 
1.9299999999998039, -1.0789056568591633 
1.9399999999998028, -1.079293772928138 
1.9499999999998017, -1.0794444690004303 
1.9599999999998006, -1.079317537809533 
1.9699999999997995, -1.0789486546875375 
1.9799999999997984, -1.078492370486931 
1.9899999999997973, -1.0781735972371682 
1.9999999999997962, -1.0781255548144184 
2.0099999999998173, -1.0783003731356073 
2.0199999999998384, -1.0785205534537459 
2.0299999999998595, -1.078603214293051 
2.0399999999998806, -1.0784630901934724 
2.0499999999999017, -1.0780995884159448 
2.059999999999923, -1.0775319918145128 
2.069999999999944, -1.076805676359384 
2.079999999999965, -1.0760502244746277 
2.089999999999986, -1.0754606083911828 
2.100000000000007, -1.0751891181983488 
2.1100000000000283, -1.0751810118411667 
2.1200000000000494, -1.0751754526893897 
2.1300000000000705, -1.0749305182069813 
2.1400000000000916, -1.07431837556612 
2.1500000000001127, -1.0733525277658456 
2.160000000000134, -1.072129285399299 
2.170000000000155, -1.0707561819171398 
2.180000000000176, -1.0694164189689912 
2.190000000000197, -1.0684278646551257 
2.2000000000002182, -1.068017444385958 
2.2100000000002393, -1.0679525364994622 
2.2200000000002604, -1.0678114477997143 
2.2300000000002815, -1.067275339568581 
2.2400000000003026, -1.0660820268502529 
2.2500000000003237, -1.064174073045233 
2.260000000000345, -1.061765493295273 
2.270000000000366, -1.0591499036871381 
2.280000000000387, -1.056771673017689 
2.290000000000408, -1.0552897810646422 
2.3000000000004293, -1.0548483881345116 
2.3100000000004504, -1.0547966943595506 
2.3200000000004715, -1.0545684827017445 
2.3300000000004926, -1.0537661378403969 
2.3400000000005137, -1.0518593253759008 
2.3500000000005348, -1.0485171999997775 
2.360000000000556, -1.0441051761972941 
2.370000000000577, -1.039393292467038 
2.380000000000598, -1.0354724442074563 
2.390000000000619, -1.0334624297282362 
2.4000000000006403, -1.0330508978009596 
2.4100000000006614, -1.0330404321659643 
2.4200000000006825, -1.0327846187300234 
2.4300000000007036, -1.031843550058931 
2.4400000000007247, -1.029412129063036 
2.450000000000746, -1.0247050080330087 
2.460000000000767, -1.0181467147355587 
2.470000000000788, -1.0111943235310554 
2.480000000000809, -1.0057009015316483 
2.49000000000083, -1.0030940691039032 
2.5000000000008513, -1.0026121601020916 
2.5100000000008724, -1.0026357829065324 
2.5200000000008935, -1.0024332508002967 
2.5300000000009146, -1.001598630529534 
2.5400000000009357, -0.9993484361619414 
2.550000000000957, -0.9947525027815843 
2.560000000000978, -0.9881064602013296 
2.570000000000999, -0.9809598864501899 
2.58000000000102, -0.9750749242043648 
2.5900000000010412, -0.971866752005266 
2.6000000000010624, -0.9710169926073897 
2.6100000000010835, -0.9709929538079541 
2.6200000000011046, -0.970895362412634 
2.6300000000011257, -0.9703472625223576 
2.6400000000011468, -0.9688421467195899 
2.650000000001168, -0.9657719711301889 
2.660000000001189, -0.9612864291685331 
2.67000000000121, -0.9563443225457259 
2.680000000001231, -0.9518937971690438 
2.6900000000012523, -0.9487903260221922 
2.7000000000012734, -0.9474255056850047 
2.7100000000012945, -0.9471617478067588 
2.7200000000013156, -0.9471278254063756 
2.7300000000013367, -0.9468697713054816 
2.740000000001358, -0.9460826051330312 
2.750000000001379, -0.944477567585324 
2.7600000000014, -0.9421208744768178 
2.770000000001421, -0.9394611223287506 
2.780000000001442, -0.9368953582492825 
2.7900000000014633, -0.934739159946871 
2.8000000000014844, -0.9333298445719101 
2.8100000000015055, -0.9327591016683318 
2.8200000000015266, -0.9326646562221198 
2.8300000000015477, -0.9326014073158446 
2.840000000001569, -0.9322933904844382 
2.85000000000159, -0.9315833159796028 
2.860000000001611, -0.9304907860065101 
2.870000000001632, -0.9292044818556068 
2.8800000000016532, -0.9278868069506827 
2.8900000000016743, -0.9266508185677138 
2.9000000000016954, -0.9256492646041639 
2.9100000000017165, -0.9250462967984597 
2.9200000000017377, -0.924861508676714 
2.9300000000017588, -0.924896005709193 
2.94000000000178, -0.9249006352600149 
2.950000000001801, -0.9247256801807869 
2.960000000001822, -0.9243500901382626 
2.970000000001843, -0.9238388167712849 
2.9800000000018643, -0.9232388326606821 
2.9900000000018854, -0.9225807359738135 
3.0000000000019065, -0.9219591127420372 
3.0100000000019276, -0.9215280167381031 
3.0200000000019487, -0.9213971307540033 
3.03000000000197, -0.9215421516086936 
3.040000000001991, -0.9218194451911367 
3.050000000002012, -0.9220786202772455 
3.060000000002033, -0.922251129651742 
3.070000000002054, -0.9223240553420182 
3.0800000000020753, -0.9222587351391525 
3.0900000000020964, -0.9220139199733222 
3.1000000000021175, -0.9216428715281173 
3.1100000000021386, -0.921319963314666 
3.1200000000021597, -0.9212780162021919 
3.130000000002181, -0.9216356022417105 
3.140000000002202, -0.9223140501693828 
3.150000000002223, -0.9231535644520144 
3.160000000002244, -0.9240297647897874 
3.1700000000022652, -0.9248456191887373 
3.1800000000022863, -0.9254453643960638 
3.1900000000023074, -0.9256799632807846 
3.2000000000023285, -0.9255737373868855 
3.2100000000023496, -0.9253009438850465 
3.2200000000023707, -0.9251704336823108 
3.230000000002392, -0.9256183043129633 
3.240000000002413, -0.9268722031641378 
3.250000000002434, -0.9287501727586842 
3.260000000002455, -0.930947212637387 
3.2700000000024763, -0.9331746182467074 
3.2800000000024974, -0.9350186530892315 
3.2900000000025185, -0.9360832364157323 
3.3000000000025396, -0.9364017105906689 
3.3100000000025607, -0.9362721819684735 
3.3200000000025818, -0.9359965576296586 
3.330000000002603, -0.9361159287578014 
3.340000000002624, -0.9375866286027924 
3.350000000002645, -0.9409318665367103 
3.360000000002666, -0.9456250521222843 
3.3700000000026873, -0.9507290366862063 
3.3800000000027084, -0.9551089359008671 
3.3900000000027295, -0.9577620255264644 
3.4000000000027506, -0.9587940212781463 
3.4100000000027717, -0.9589368632249837 
3.420000000002793, -0.958671531765806 
3.430000000002814, -0.9583949200601408 
3.440000000002835, -0.9592425208710058 
3.450000000002856, -0.96319664484118 
3.460000000002877, -0.9706712984101995 
3.4700000000028983, -0.9797139910398046 
3.4800000000029194, -0.9876811571128044 
3.4900000000029405, -0.9925284910412715 
3.5000000000029616, -0.9944666619631336 
3.5100000000029827, -0.9949219729093127 
3.520000000003004, -0.9947580455148396 
3.530000000003025, -0.994363764191158 
3.540000000003046, -0.9946132509041631 
3.550000000003067, -0.9978138475853447 
3.5600000000030882, -1.0053753127814524 
3.5700000000031094, -1.0151800123815409 
3.5800000000031305, -1.0240087194452656 
3.5900000000031516, -1.0295719980636615 
3.6000000000031727, -1.0319025120442207 
3.6100000000031938, -1.0325078463616484 
3.620000000003215, -1.0324056207330448 
3.630000000003236, -1.0320451274914877 
3.640000000003257, -1.0321879631042274 
3.650000000003278, -1.0345486491689306 
3.6600000000032993, -1.0397743427880195 
3.6700000000033204, -1.0461778061543843 
3.6800000000033415, -1.051927735577128 
3.6900000000033626, -1.0558108187724324 
3.7000000000033837, -1.057611240174319 
3.710000000003405, -1.058092105125488 
3.720000000003426, -1.0579688909974192 
3.730000000003447, -1.0576753828094045 
3.740000000003468, -1.0578963406046402 
3.750000000003489, -1.0595156852259469 
3.7600000000035103, -1.0623483510193386 
3.7700000000035314, -1.0654640208117505 
3.7800000000035525, -1.068222664768011 
3.7900000000035736, -1.0701990054388975 
3.8000000000035947, -1.071188492441888 
3.810000000003616, -1.0714025375219747 
3.820000000003637, -1.0712046195796956 
3.830000000003658, -1.0709599036733595 
3.840000000003679, -1.0711689037284513 
3.8500000000037002, -1.0720964545015015 
3.8600000000037213, -1.073428592569349 
3.8700000000037424, -1.0747741686454961 
3.8800000000037635, -1.0759222195167064 
3.8900000000037847, -1.0767309409147723 
3.9000000000038058, -1.0770874561431376 
3.910000000003827, -1.0770213579627357 
3.920000000003848, -1.0767127688958702 
3.930000000003869, -1.0764439423402232 
3.94000000000389, -1.0765010411757343 
3.9500000000039113, -1.0769086706430653 
3.9600000000039324, -1.077469281639292 
3.9700000000039535, -1.0779814130400611 
3.9800000000039746, -1.0783287878107406 
3.9900000000039957, -1.0784627142700889 
4.000000000004016, -1.0783468696679332 
4.010000000003993, -1.077987566486457 
4.02000000000397, -1.0774977871353941 
4.030000000003946, -1.0770840471910652 
4.040000000003923, -1.0769149260343693 
4.0500000000039, -1.076998766130105 
4.0600000000038765, -1.0771854107090875 
4.070000000003853, -1.0772713468229187 
4.08000000000383, -1.077134711585968 
4.090000000003807, -1.0767589064110037 
4.100000000003783, -1.0761712756676751 
4.11000000000376, -1.0754101884201708 
4.120000000003737, -1.0745784477380242 
4.130000000003713, -1.0738630401625007 
4.14000000000369, -1.0734560255805508 
4.150000000003667, -1.0733758296136628 
4.1600000000036434, -1.073380427222317 
4.17000000000362, -1.0731923016297888 
4.180000000003597, -1.0726351901858624 
4.1900000000035735, -1.071673469057959 
4.20000000000355, -1.0704006218832072 
4.210000000003527, -1.0689354312854376 
4.220000000003504, -1.0674429509185361 
4.23000000000348, -1.0662333373064827 
4.240000000003457, -1.0656276445830761 
4.250000000003434, -1.0655046531271557 
4.26000000000341, -1.0654158595498526 
4.270000000003387, -1.0650041508548271 
4.280000000003364, -1.0639674541577366 
4.2900000000033405, -1.062137442838543 
4.300000000003317, -1.0596711188842094 
4.310000000003294, -1.0568837036904863 
4.320000000003271, -1.0541945892475 
4.330000000003247, -1.0522896347913584 
4.340000000003224, -1.0515678391112158 
4.350000000003201, -1.0514794088188846 
4.360000000003177, -1.0513446605680654 
4.370000000003154, -1.0507542979733655 
4.380000000003131, -1.0492008336530394 
4.390000000003107, -1.0461773350456218 
4.400000000003084, -1.0418294665424146 
4.410000000003061, -1.0368982240097637 
4.4200000000030375, -1.0324203891301484 
4.430000000003014, -1.0296838201274954 
4.440000000002991, -1.0288934785950659 
4.450000000002968, -1.0288610896846135 
4.460000000002944, -1.028726872266779 
4.470000000002921, -1.0280714661618826 
4.480000000002898, -1.02623014503861 
4.490000000002874, -1.0222845355398136 
4.500000000002851, -1.0162028462682866 
4.510000000002828, -1.0092240716719096 
4.520000000002804, -1.003077927326678 
4.530000000002781, -0.9994926198526093 
4.540000000002758, -0.9984942538565386 
4.5500000000027345, -0.9984688574716991 
4.560000000002711, -0.9983860632669116 
4.570000000002688, -0.9978363384678103 
4.580000000002665, -0.9962254768962672 
4.590000000002641, -0.9926193091912593 
4.600000000002618, -0.9868300286573047 
4.610000000002595, -0.980059169601931 
4.620000000002571, -0.9738992399783287 
4.630000000002548, -0.9698571880331254 
4.640000000002525, -0.9683589331742087 
4.6500000000025015, -0.9681785516511104 
4.660000000002478, -0.9681566706009637 
4.670000000002455, -0.9678213450696947 
4.6800000000024315, -0.9667739557170943 
4.690000000002408, -0.9644369903264001 
4.700000000002385, -0.9606628231203964 
4.710000000002362, -0.9561712321296952 
4.720000000002338, -0.9518389337625882 
4.730000000002315, -0.9484305874395018 
4.740000000002292, -0.9465521268693323 
4.750000000002268, -0.9460021680366528 
4.760000000002245, -0.9459505057919109 
4.770000000002222, -0.9458156709746548 
4.7800000000021985, -0.9452863441129311 
4.790000000002175, -0.9440763745235105 
4.800000000002152, -0.942113133516902 
4.810000000002129, -0.9397312171272109 
4.820000000002105, -0.9373235342206141 
4.830000000002082, -0.9351698956239577 
4.840000000002059, -0.933572627765735 
4.850000000002035, -0.9327547358861624 
4.860000000002012, -0.9325463149180285 
4.870000000001989, -0.9325172730332003 
4.880000000001965, -0.93234109228802 
4.890000000001942, -0.9318293291967984 
4.900000000001919, -0.9309364570057022 
4.9100000000018955, -0.9298006748666963 
4.920000000001872, -0.9285879457813251 
4.930000000001849, -0.9274030135951927 
