t, s[1].omega / s[0].omega 
0, -0.6999728600428117 
0.009999999999999995, -0.6972806710779337 
0.019999999999999934, -0.6947115270011652 
0.029999999999999874, -0.6923486681349756 
0.04000000000000012, -0.6902348763734407 
0.050000000000000405, -0.6883875280831788 
0.06000000000000069, -0.6868120011457091 
0.07000000000000098, -0.6855093818538512 
0.08000000000000126, -0.6844789197510263 
0.09000000000000155, -0.6837172944344229 
0.10000000000000184, -0.6832168051518871 
0.11000000000000212, -0.6829640710484317 
0.12000000000000241, -0.682940130881543 
0.130000000000002, -0.6831221010788624 
0.1400000000000009, -0.6834859418219719 
0.1499999999999998, -0.684009534650436 
0.1599999999999987, -0.6846751848365235 
0.1699999999999976, -0.6854706391504658 
0.1799999999999965, -0.6863875914384487 
0.1899999999999954, -0.6874166517873449 
0.1999999999999943, -0.6885386302320791 
0.2099999999999932, -0.6897144972497815 
0.2199999999999921, -0.6908799444922523 
0.229999999999991, -0.6919517467473986 
0.2399999999999899, -0.6928475576741217 
0.2499999999999888, -0.6935096645431559 
0.2599999999999877, -0.6939178426835791 
0.2699999999999866, -0.694084927463952 
0.2799999999999855, -0.6940419224775217 
0.2899999999999844, -0.6938236545667229 
0.2999999999999833, -0.6934612009647658 
0.3099999999999822, -0.6929820090331883 
0.3199999999999811, -0.6924171648155735 
0.32999999999998, -0.691816756718419 
0.3399999999999789, -0.6912766632962142 
0.3499999999999778, -0.690981549260439 
0.35999999999997667, -0.691266514686521 
0.36999999999997557, -0.692687718345163 
0.37999999999997447, -0.6960607082365075 
0.38999999999997337, -0.7023695820277498 
0.39999999999997227, -0.7124088207432261 
0.40999999999997117, -0.726137127098564 
0.41999999999997006, -0.7421490402173686 
0.42999999999996896, -0.7580110038920738 
0.43999999999996786, -0.7715098311216645 
0.44999999999996676, -0.7816602522812849 
0.45999999999996566, -0.7886484725767284 
0.46999999999996456, -0.7931924754162116 
0.47999999999996346, -0.7960368771660258 
0.48999999999996235, -0.7977563512298962 
0.49999999999996125, -0.7987391619355344 
0.5099999999999602, -0.7992277507281924 
0.519999999999959, -0.7993614062969665 
0.529999999999958, -0.7992055561463624 
0.5399999999999568, -0.7987660544838897 
0.5499999999999557, -0.7979894201980977 
0.5599999999999546, -0.7967492743251731 
0.5699999999999535, -0.7948195740038088 
0.5799999999999524, -0.7918418789916044 
0.5899999999999513, -0.7873151400961922 
0.5999999999999502, -0.7806742940476701 
0.6099999999999491, -0.7715365739845621 
0.619999999999948, -0.7600749212456449 
0.6299999999999469, -0.7472274267994411 
0.6399999999999458, -0.7344317096667385 
0.6499999999999447, -0.7230246141684278 
0.6599999999999436, -0.7137930999751965 
0.6699999999999425, -0.706916009680848 
0.6799999999999414, -0.7021554688609019 
0.6899999999999403, -0.6990836334805015 
0.6999999999999392, -0.6972435031211399 
0.7099999999999381, -0.696234530448413 
0.719999999999937, -0.6957443995719232 
0.7299999999999359, -0.6955491627826793 
0.7399999999999348, -0.6954980363143084 
0.7499999999999337, -0.6954934907169311 
0.7599999999999326, -0.6954727528691189 
0.7699999999999315, -0.6953936159407907 
0.7799999999999304, -0.6952256044539948 
0.7899999999999293, -0.6949466741535242 
0.7999999999999282, -0.6945448069479183 
0.8099999999999271, -0.6940221867308093 
0.819999999999926, -0.693397590166382 
0.8299999999999249, -0.6927027423914732 
0.8399999999999238, -0.6919725309047873 
0.8499999999999227, -0.6912342481630153 
0.8599999999999216, -0.6905020656313449 
0.8699999999999205, -0.689778894587169 
0.8799999999999194, -0.6890630211038604 
0.8899999999999183, -0.6883552352943489 
0.8999999999999172, -0.6876637350838567 
0.9099999999999161, -0.6870065876071332 
0.919999999999915, -0.6864128697423781 
0.9299999999999139, -0.6859233903931929 
0.9399999999999128, -0.6855910171465122 
0.9499999999999117, -0.6854800261094035 
0.9599999999999106, -0.6856639399973397 
0.9699999999999095, -0.6862218805459008 
0.9799999999999084, -0.6872340635402578 
0.9899999999999073, -0.6887770927230646 
0.9999999999999062, -0.6909187174487469 
1.0099999999999052, -0.6937097615102805 
1.019999999999904, -0.6971688538477746 
1.029999999999903, -0.7012555849668574 
1.039999999999902, -0.7058339299350809 
1.0499999999999008, -0.710643993099792 
1.0599999999998997, -0.7153186656653495 
1.0699999999998986, -0.7194721802950889 
1.0799999999998975, -0.7228276854103945 
1.0899999999998964, -0.7252959608215519 
1.0999999999998953, -0.726953668834295 
1.1099999999998942, -0.7279595175778711 
1.119999999999893, -0.7284769124944657 
1.129999999999892, -0.7286337895620847 
1.1399999999998909, -0.7285123885049738 
1.1499999999998898, -0.7281521390016271 
1.1599999999998887, -0.7275543334788426 
1.1699999999998876, -0.7266837481638334 
1.1799999999998865, -0.7254659983129692 
1.1899999999998854, -0.7237810061482717 
1.1999999999998843, -0.7214535866775516 
1.2099999999998832, -0.7182419260821933 
1.219999999999882, -0.7138249768697611 
1.229999999999881, -0.7078035775936812 
1.2399999999998799, -0.6997910921890996 
1.2499999999998788, -0.6897438890041926 
1.2599999999998777, -0.6784671156611017 
1.2699999999998766, -0.6676404233903478 
1.2799999999998755, -0.6589240548365833 
1.2899999999998744, -0.6530205981406472 
1.2999999999998733, -0.6496333710856977 
1.3099999999998722, -0.648017361288806 
1.319999999999871, -0.6474489750844983 
1.32999999999987, -0.6474082667141744 
1.3399999999998689, -0.6475788876059668 
1.3499999999998678, -0.64778884754964 
1.3599999999998666, -0.6479519626639932 
1.3699999999998655, -0.6480262360417832 
1.3799999999998644, -0.6479881277405987 
1.3899999999998633, -0.6478179271483712 
1.3999999999998622, -0.647492560892175 
1.4099999999998611, -0.6469844336828124 
1.41999999999986, -0.6462666552227401 
1.429999999999859, -0.6453246476796478 
1.4399999999998578, -0.644170293936253 
1.4499999999998567, -0.642849551703337 
1.4599999999998556, -0.6414350027222662 
1.4699999999998545, -0.6400051132270661 
1.4799999999998534, -0.6386228466843393 
1.4899999999998523, -0.6373254574533087 
1.4999999999998512, -0.6361272639166305 
1.5099999999998501, -0.6350294692643293 
1.519999999999849, -0.6340303785210277 
1.529999999999848, -0.6331325183770367 
1.5399999999998468, -0.6323462722543394 
1.5499999999998457, -0.63169109560643 
1.5599999999998446, -0.6311954177183773 
1.5699999999998435, -0.630895853710984 
1.5799999999998424, -0.6308360060510302 
1.5899999999998413, -0.6310650963600549 
1.5999999999998402, -0.6316367600438939 
1.6099999999998391, -0.6326082677119869 
1.619999999999838, -0.6340399490890031 
1.629999999999837, -0.6359935191435608 
1.6399999999998358, -0.638526326748223 
1.6499999999998347, -0.6416766980965698 
1.6599999999998336, -0.6454353081481864 
1.6699999999998325, -0.6497032324834564 
1.6799999999998314, -0.6542541808176735 
1.6899999999998303, -0.6587403998607941 
1.6999999999998292, -0.6627761770362236 
1.709999999999828, -0.6660704538322341 
1.719999999999827, -0.6685157929727199 
1.729999999999826, -0.670173748704655 
1.7399999999998248, -0.6711927480135743 
1.7499999999998237, -0.6717297437505066 
1.7599999999998226, -0.671908579345416 
1.7699999999998215, -0.6718083493727578 
1.7799999999998204, -0.6714646356139273 
1.7899999999998193, -0.670871572535538 
1.7999999999998182, -0.6699785004821883 
1.809999999999817, -0.6686773122161289 
1.819999999999816, -0.6667762938371743 
1.8299999999998149, -0.6639558285944895 
1.8399999999998138, -0.6597077120305135 
1.8499999999998127, -0.6532923906690479 
1.8599999999998116, -0.6438351183283407 
1.8699999999998105, -0.630768124664864 
1.8799999999998094, -0.6145965121917436 
1.8899999999998083, -0.5972523074414566 
1.8999999999998072, -0.5812509041157553 
1.909999999999806, -0.5683310837401175 
1.919999999999805, -0.5589300285909362 
1.9299999999998039, -0.5525894735773973 
1.9399999999998028, -0.5485460832402579 
1.9499999999998017, -0.5460832693649318 
1.9599999999998006, -0.5446494254653466 
1.9699999999997995, -0.5438591161682929 
1.9799999999997984, -0.543457099304627 
1.9899999999997973, -0.5432797080724227 
1.9999999999997962, -0.5432240261090026 
2.0099999999998173, -0.5432260063622818 
2.0199999999998384, -0.5432460717130791 
2.0299999999998595, -0.5432605021631163 
2.0399999999998806, -0.5432572280437452 
2.0499999999999017, -0.5432347020966624 
2.059999999999923, -0.5432020095068875 
2.069999999999944, -0.5431776620823113 
2.079999999999965, -0.5431847455004097 
2.089999999999986, -0.5432421490822387 
2.100000000000007, -0.5433546939554851 
2.1100000000000283, -0.543506940442288 
2.1200000000000494, -0.5436647508252346 
2.1300000000000705, -0.5437850625613168 
2.1400000000000916, -0.5438292581252583 
2.1500000000001127, -0.5437729655405961 
2.160000000000134, -0.5436081162575512 
2.170000000000155, -0.5433388210305334 
2.180000000000176, -0.5429756629388911 
2.190000000000197, -0.5425321219747491 
2.2000000000002182, -0.5420247754553167 
2.2100000000002393, -0.541477927306252 
2.2200000000002604, -0.540933646392083 
2.2300000000002815, -0.5404689939944217 
2.2400000000003026, -0.5402219259527138 
2.2500000000003237, -0.5404223190957309 
2.260000000000345, -0.5414065062449837 
2.270000000000366, -0.5435518159796606 
2.280000000000387, -0.5470215352207513 
2.290000000000408, -0.5513070078487201 
2.3000000000004293, -0.5550179165422204 
2.3100000000004504, -0.556690427252769 
2.3200000000004715, -0.5561289645466276 
2.3300000000004926, -0.5544505655143789 
2.3400000000005137, -0.5528548148035078 
2.3500000000005348, -0.5518655118737491 
2.360000000000556, -0.5514635252401978 
2.370000000000577, -0.5514411959706537 
2.380000000000598, -0.5516022185490028 
2.390000000000619, -0.551815192046449 
2.4000000000006403, -0.5520056076813724 
2.4100000000006614, -0.5521349111749119 
2.4200000000006825, -0.5521830047672746 
2.4300000000007036, -0.5521368824029469 
2.4400000000007247, -0.5519844728761879 
2.450000000000746, -0.5517127715370631 
2.460000000000767, -0.551310066447556 
2.470000000000788, -0.5507720181846361 
2.480000000000809, -0.5501095892501863 
2.49000000000083, -0.5493539581222243 
2.5000000000008513, -0.5485529465860978 
2.5100000000008724, -0.5477582671202109 
2.5200000000008935, -0.5470100258045464 
2.5300000000009146, -0.546327037853286 
2.5400000000009357, -0.5457068539601999 
2.550000000000957, -0.5451333539045151 
2.560000000000978, -0.5445868719962369 
2.570000000000999, -0.544052410208189 
2.58000000000102, -0.5435240793987581 
2.5900000000010412, -0.5430066254323591 
2.6000000000010624, -0.5425162625666704 
2.6100000000010835, -0.5420829241757782 
2.6200000000011046, -0.5417553733841343 
2.6300000000011257, -0.5416101916991579 
2.6400000000011468, -0.541765634419731 
2.650000000001168, -0.5424013756912409 
2.660000000001189, -0.5437845027907284 
2.67000000000121, -0.5462990515192946 
2.680000000001231, -0.550467127613338 
2.6900000000012523, -0.556927881971664 
2.7000000000012734, -0.5663040832152795 
2.7100000000012945, -0.5788680455909352 
2.7200000000013156, -0.5940399969860255 
2.7300000000013367, -0.6101169779924451 
2.740000000001358, -0.6248251635936537 
2.750000000001379, -0.6365068370531968 
2.7600000000014, -0.6447885258262038 
2.770000000001421, -0.6502323752701741 
2.780000000001442, -0.6536603956686949 
2.7900000000014633, -0.6557642206575678 
2.8000000000014844, -0.6570182263572717 
2.8100000000015055, -0.6577183838750902 
2.8200000000015266, -0.6580388010872346 
2.8300000000015477, -0.6580732682040918 
2.840000000001569, -0.6578593179640515 
2.85000000000159, -0.6573889019632274 
2.860000000001611, -0.6566098214510181 
2.870000000001632, -0.6554224345298423 
2.8800000000016532, -0.6536798006382162 
2.8900000000016743, -0.6512067374699275 
2.9000000000016954, -0.6478570300559665 
2.9100000000017165, -0.6436084032071513 
2.9200000000017377, -0.6386426938926474 
2.9300000000017588, -0.63332865271421 
2.94000000000178, -0.6280942784724326 
2.950000000001801, -0.6232829817559271 
2.960000000001822, -0.6190877585255706 
2.970000000001843, -0.6155680917732202 
2.9800000000018643, -0.6127004193129552 
2.9900000000018854, -0.6104230902837473 
3.0000000000019065, -0.6086636938720769 
3.0100000000019276, -0.6073517075196787 
3.0200000000019487, -0.6064227458099776 
3.03000000000197, -0.6058192534016222 
3.040000000001991, -0.6054903330046169 
3.050000000002012, -0.6053918085477807 
3.060000000002033, -0.6054867254920898 
3.070000000002054, -0.6057461161780937 
3.0800000000020753, -0.6061497799835577 
3.0900000000020964, -0.6066867943771143 
3.1000000000021175, -0.6073552515706563 
3.1100000000021386, -0.6081602276091389 
3.1200000000021597, -0.609108524515386 
3.130000000002181, -0.6101990530216526 
3.140000000002202, -0.611409820957127 
3.150000000002223, -0.6126866146431886 
3.160000000002244, -0.6139423761484887 
3.1700000000022652, -0.6150742405103079 
3.1800000000022863, -0.6159933506621856 
3.1900000000023074, -0.6166497696460043 
3.2000000000023285, -0.6170373119105177 
3.2100000000023496, -0.617179760640425 
3.2200000000023707, -0.6171114326682965 
3.230000000002392, -0.6168625484329898 
3.240000000002413, -0.6164519970281239 
3.250000000002434, -0.6158855540229151 
3.260000000002455, -0.6151572463695183 
3.2700000000024763, -0.6142528852257464 
3.2800000000024974, -0.6131558488988643 
3.2900000000025185, -0.6118543488297299 
3.3000000000025396, -0.6103434929518645 
3.3100000000025607, -0.6085996959444581 
3.3200000000025818, -0.6064849378288724 
3.330000000002603, -0.6035726612010671 
3.340000000002624, -0.5990985830593967 
3.350000000002645, -0.5924725091985804 
3.360000000002666, -0.5841976720040835 
3.3700000000026873, -0.5759129367614586 
3.3800000000027084, -0.5691894670912518 
3.3900000000027295, -0.5646073062743813 
3.4000000000027506, -0.5619005078200253 
3.4100000000027717, -0.560501261131864 
3.420000000002793, -0.5598901491307504 
3.430000000002814, -0.5597011364899107 
3.440000000002835, -0.5597079613790502 
3.450000000002856, -0.559781009187343 
3.460000000002877, -0.5598489431510311 
3.4700000000028983, -0.5598721889163504 
3.4800000000029194, -0.5598266722139288 
3.4900000000029405, -0.559694985468219 
3.5000000000029616, -0.5594630838022533 
3.5100000000029827, -0.559121549758114 
3.520000000003004, -0.5586703415407493 
3.530000000003025, -0.5581243204658872 
3.540000000003046, -0.5575149453917253 
3.550000000003067, -0.5568843494214211 
3.5600000000030882, -0.5562729634256555 
3.5700000000031094, -0.5557070548287689 
3.5800000000031305, -0.5551927704360852 
3.5900000000031516, -0.5547187761361664 
3.6000000000031727, -0.5542647923006647 
3.6100000000031938, -0.5538111901604303 
3.620000000003215, -0.5533457305672458 
3.630000000003236, -0.5528663643240109 
3.640000000003257, -0.5523816702877798 
3.650000000003278, -0.551911467710678 
3.6600000000032993, -0.5514896793113377 
3.6700000000033204, -0.5511708082231455 
3.6800000000033415, -0.551041121201407 
3.6900000000033626, -0.5512357498036247 
3.7000000000033837, -0.5519629047400638 
3.710000000003405, -0.5535351545491934 
3.720000000003426, -0.5564027648160612 
3.730000000003447, -0.5611701947988667 
3.740000000003468, -0.5685467243526106 
3.750000000003489, -0.5791405815576145 
3.7600000000035103, -0.5930177885844606 
3.7700000000035314, -0.6091732405175165 
3.7800000000035525, -0.625491933184249 
3.7900000000035736, -0.639675392570016 
3.8000000000035947, -0.6504502981673471 
3.810000000003616, -0.6578572204552062 
3.820000000003637, -0.6626454782299834 
3.830000000003658, -0.6656395300177499 
3.840000000003679, -0.6674699067031084 
3.8500000000037002, -0.6685517013167077 
3.8600000000037213, -0.6691391800175692 
3.8700000000037424, -0.6693796240964452 
3.8800000000037635, -0.6693491260183001 
3.8900000000037847, -0.6690719682751242 
3.9000000000038058, -0.6685279834904267 
3.910000000003827, -0.6676517857268415 
3.920000000003848, -0.6663287871963869 
3.930000000003869, -0.6643977324770316 
3.94000000000389, -0.6616773861067723 
3.9500000000039113, -0.6580356023606901 
3.9600000000039324, -0.6534904757987516 
3.9700000000039535, -0.6482770073580795 
3.9800000000039746, -0.6428009100366631 
3.9900000000039957, -0.637493646834473 
4.000000000004016, -0.6326775803143959 
4.010000000003993, -0.6285198178311612 
4.02000000000397, -0.6250609619254182 
4.030000000003946, -0.622267019949077 
4.040000000003923, -0.6200711574682461 
4.0500000000039, -0.6183976982894299 
4.0600000000038765, -0.6171728272686469 
4.070000000003853, -0.6163282101516521 
4.08000000000383, -0.6158018788158339 
4.090000000003807, -0.615538590583399 
4.100000000003783, -0.615490406175191 
4.11000000000376, -0.6156174867205645 
4.120000000003737, -0.615888886925857 
4.130000000003713, -0.6162831506211678 
4.14000000000369, -0.6167885072411999 
4.150000000003667, -0.6174021957890021 
4.1600000000036434, -0.6181279117950169 
4.17000000000362, -0.618970024860292 
4.180000000003597, -0.61992390934857 
4.1900000000035735, -0.6209642127318493 
4.20000000000355, -0.6220367086867111 
4.210000000003527, -0.6230616023145037 
4.220000000003504, -0.6239518677863644 
4.23000000000348, -0.6246388805868573 
4.240000000003457, -0.6250896566196509 
4.250000000003434, -0.6253063049052614 
4.26000000000341, -0.6253123707107224 
4.270000000003387, -0.6251372129164144 
4.280000000003364, -0.6248056568282375 
4.2900000000033405, -0.6243341587280816 
4.300000000003317, -0.6237321392598801 
4.310000000003294, -0.6230077117597017 
4.320000000003271, -0.6221787893448025 
4.330000000003247, -0.6212919736776906 
4.340000000003224, -0.6204505979526691 
4.350000000003201, -0.6198446654471497 
4.360000000003177, -0.6197501114179776 
4.370000000003154, -0.6204236535741605 
4.380000000003131, -0.6218289676326083 
4.390000000003107, -0.6233584188787737 
4.400000000003084, -0.6240719193606192 
4.410000000003061, -0.6235646881720724 
4.4200000000030375, -0.6223860214962432 
4.430000000003014, -0.6213779473546592 
4.440000000002991, -0.6209542852260626 
4.450000000002968, -0.6210620490393581 
4.460000000002944, -0.6214693203553574 
4.470000000002921, -0.6219670034315238 
4.480000000002898, -0.6224257433978815 
4.490000000002874, -0.6227827613053829 
4.500000000002851, -0.6230140918926967 
4.510000000002828, -0.6231122870165149 
4.520000000002804, -0.6230723209957575 
4.530000000002781, -0.6228836754132104 
4.540000000002758, -0.6225268351321245 
4.5500000000027345, -0.6219741136157768 
4.560000000002711, -0.6211962185223618 
4.570000000002688, -0.6201755151352766 
4.580000000002665, -0.6189226786373079 
4.590000000002641, -0.6174869327024565 
4.600000000002618, -0.6159493580730555 
4.610000000002595, -0.6143998397793513 
4.620000000002571, -0.6129117154428722 
4.630000000002548, -0.6115286066478675 
4.640000000002525, -0.6102664582920079 
4.6500000000025015, -0.6091242771123995 
4.660000000002478, -0.6080958308953146 
4.670000000002455, -0.6071780868107045 
4.6800000000024315, -0.6063757531594685 
4.690000000002408, -0.6057030847023374 
4.700000000002385, -0.6051843089805593 
4.710000000002362, -0.6048535208871951 
4.720000000002338, -0.6047544064051122 
4.730000000002315, -0.6049399609450361 
4.740000000002292, -0.6054723703005183 
4.750000000002268, -0.6064231695300679 
4.760000000002245, -0.6078733902444798 
4.770000000002222, -0.6099123486686028 
4.7800000000021985, -0.6126317713834308 
4.790000000002175, -0.6161092611772057 
4.800000000002152, -0.620373401471944 
4.810000000002129, -0.6253475898183773 
4.820000000002105, -0.6307900205940227 
4.830000000002082, -0.6362813586669412 
4.840000000002059, -0.6413181660312339 
4.850000000002035, -0.6454923468802202 
4.860000000002012, -0.6486305728649318 
4.870000000001989, -0.6507918487076512 
4.880000000001965, -0.6521610360348264 
4.890000000001942, -0.6529409317495011 
4.900000000001919, -0.6532945260440889 
4.9100000000018955, -0.6533296628226326 
4.920000000001872, -0.6531021539788197 
