t, s[1].omega / s[0].omega 
0, -0.3601548639960415 
0.009999999999999995, -0.37398454560466526 
0.019999999999999934, -0.38304005747241965 
0.029999999999999874, -0.38744738212644403 
0.04000000000000012, -0.3890651332259377 
0.050000000000000405, -0.38951946185602854 
0.06000000000000069, -0.38963219903639434 
0.07000000000000098, -0.38969256674335256 
0.08000000000000126, -0.3897652181898987 
0.09000000000000155, -0.3898459729700488 
0.10000000000000184, -0.38991825689714427 
0.11000000000000212, -0.38996831204211296 
0.12000000000000241, -0.3899871747265677 
0.130000000000002, -0.38996982503067945 
0.1400000000000009, -0.38991488246983086 
0.1499999999999998, -0.3898257896003766 
0.1599999999999987, -0.38971333930429747 
0.1699999999999976, -0.3895983521988421 
0.1799999999999965, -0.38951228752046635 
0.1899999999999954, -0.3894935205297007 
0.1999999999999943, -0.3895786748962301 
0.2099999999999932, -0.3897909051635042 
0.2199999999999921, -0.3901288086782947 
0.229999999999991, -0.3905605335930353 
0.2399999999999899, -0.39102764861273476 
0.2499999999999888, -0.3914600810549666 
0.2599999999999877, -0.3917960760798367 
0.2699999999999866, -0.39199620438301375 
0.2799999999999855, -0.39204479951794236 
0.2899999999999844, -0.39194137054978395 
0.2999999999999833, -0.39168879692056824 
0.3099999999999822, -0.3912826766169799 
0.3199999999999811, -0.39070186133962215 
0.32999999999998, -0.3898972078242523 
0.3399999999999789, -0.38877375383271595 
0.3499999999999778, -0.387160238104843 
0.35999999999997667, -0.3847617967662705 
0.36999999999997557, -0.381108929017397 
0.37999999999997447, -0.3755731217350565 
0.38999999999997337, -0.3676060346726596 
0.39999999999997227, -0.35727592944813746 
0.40999999999997117, -0.3456691194852054 
0.41999999999997006, -0.33446125308914176 
0.42999999999996896, -0.324945269946245 
0.43999999999996786, -0.3175584874539461 
0.44999999999996676, -0.31211166379359434 
0.45999999999996566, -0.30818639051140084 
0.46999999999996456, -0.3053739264643591 
0.47999999999996346, -0.3033555363125655 
0.48999999999996235, -0.3019066230368441 
0.49999999999996125, -0.3008782467778267 
0.5099999999999602, -0.30017773460493724 
0.519999999999959, -0.2997545350253963 
0.529999999999958, -0.29959208917735036 
0.5399999999999568, -0.2997053287941031 
0.5499999999999557, -0.30014371101296505 
0.5599999999999546, -0.30100044489322864 
0.5699999999999535, -0.3024292785079902 
0.5799999999999524, -0.30467007842298366 
0.5899999999999513, -0.3080809311473064 
0.5999999999999502, -0.31316082154699004 
0.6099999999999491, -0.32051014174337433 
0.619999999999948, -0.33061388074349285 
0.6299999999999469, -0.34333616120445837 
0.6399999999999458, -0.357357746186598 
0.6499999999999447, -0.3703970854479334 
0.6599999999999436, -0.38056297975531816 
0.6699999999999425, -0.3874225101477703 
0.6799999999999414, -0.39165696864570565 
0.6899999999999403, -0.3941802022707795 
0.6999999999999392, -0.3956804553008405 
0.7099999999999381, -0.39657600094814666 
0.719999999999937, -0.39710035885084494 
0.7299999999999359, -0.3973804191521228 
0.7399999999999348, -0.39748399577133464 
0.7499999999999337, -0.39744542007983635 
0.7599999999999326, -0.3972794140821429 
0.7699999999999315, -0.39699001546617985 
0.7799999999999304, -0.39657858630270393 
0.7899999999999293, -0.3960526697138816 
0.7999999999999282, -0.3954345652374776 
0.8099999999999271, -0.39476542539044773 
0.819999999999926, -0.3941003941987628 
0.8299999999999249, -0.3934950690466982 
0.8399999999999238, -0.3929897901230544 
0.8499999999999227, -0.39259942729396374 
0.8599999999999216, -0.3923120685124696 
0.8699999999999205, -0.3920955658263609 
0.8799999999999194, -0.3919087135758027 
0.8899999999999183, -0.3917127374062319 
0.8999999999999172, -0.3914788659452609 
0.9099999999999161, -0.39119009362464574 
0.919999999999915, -0.3908384445927016 
0.9299999999999139, -0.3904205234879497 
0.9399999999999128, -0.3899333912575119 
0.9499999999999117, -0.3893711800907397 
0.9599999999999106, -0.38872127754296765 
0.9699999999999095, -0.387956844671379 
0.9799999999999084, -0.3870179593685389 
0.9899999999999073, -0.3857636604327474 
0.9999999999999062, -0.3838611734240525 
1.0099999999999052, -0.3805824262920088 
1.019999999999904, -0.37461498270920157 
1.029999999999903, -0.3644005290343057 
1.039999999999902, -0.34957736924378907 
1.0499999999999008, -0.3323223339514898 
1.0599999999998997, -0.31613345379737623 
1.0699999999998986, -0.30327225541092206 
1.0799999999998975, -0.29406327361291595 
1.0899999999998964, -0.2878072950904781 
1.0999999999998953, -0.2836408512003338 
1.1099999999998942, -0.2808749863186586 
1.119999999999893, -0.279036953583683 
1.129999999999892, -0.2778226196219275 
1.1399999999998909, -0.27704302719880813 
1.1499999999998898, -0.2765852894146953 
1.1599999999998887, -0.27638797197727993 
1.1699999999998876, -0.2764273322531966 
1.1799999999998865, -0.2767113953918813 
1.1899999999998854, -0.27728013691113323 
1.1999999999998843, -0.27821104209343733 
1.2099999999998832, -0.27962962848508216 
1.219999999999882, -0.28172330888442676 
1.229999999999881, -0.2847519778145039 
1.2399999999998799, -0.28903552437489644 
1.2499999999998788, -0.2948747180633565 
1.2599999999998777, -0.3023501439127088 
1.2699999999998766, -0.311030311127036 
1.2799999999998755, -0.3198646102672964 
1.2899999999998744, -0.32760215515728464 
1.2999999999998733, -0.33348520247405056 
1.3099999999998722, -0.3374958842421766 
1.319999999999871, -0.34004699243652486 
1.32999999999987, -0.34160678048760446 
1.3399999999998689, -0.3425306720101815 
1.3499999999998678, -0.34304650776459844 
1.3599999999998666, -0.343288538037893 
1.3699999999998655, -0.34333113912178465 
1.3799999999998644, -0.34321181273556445 
1.3899999999998633, -0.34294585315906373 
1.3999999999998622, -0.34253712668538816 
1.4099999999998611, -0.3419884790819305 
1.41999999999986, -0.34131298334984533 
1.429999999999859, -0.34054351842248276 
1.4399999999998578, -0.33973492912501146 
1.4499999999998567, -0.33895460896466567 
1.4599999999998556, -0.33826476584888127 
1.4699999999998545, -0.33770578102658494 
1.4799999999998534, -0.3372881489356595 
1.4899999999998523, -0.3369940106640621 
1.4999999999998512, -0.33678547379946344 
1.5099999999998501, -0.336616346162658 
1.519999999999849, -0.3364435620763683 
1.529999999999848, -0.33623451201615223 
1.5399999999998468, -0.33596844483349086 
1.5499999999998457, -0.3356331018065869 
1.5599999999998446, -0.3352191331195863 
1.5699999999998435, -0.3347139509430077 
1.5799999999998424, -0.33409467481595106 
1.5899999999998413, -0.33331750550276906 
1.5999999999998402, -0.3322976343514058 
1.6099999999998391, -0.33086844423198025 
1.619999999999838, -0.32870289562427624 
1.629999999999837, -0.3251912320853666 
1.6399999999998358, -0.3193588101447886 
1.6499999999998347, -0.3101357144751261 
1.6599999999998336, -0.2973136843432421 
1.6699999999998325, -0.2824844098618378 
1.6799999999998314, -0.268329442640065 
1.6899999999998303, -0.25676999159040387 
1.6999999999998292, -0.24823875657484637 
1.709999999999828, -0.24226048568215988 
1.719999999999827, -0.23814632067809555 
1.729999999999826, -0.23531363407418793 
1.7399999999998248, -0.23334909897643966 
1.7499999999998237, -0.2319813678765678 
1.7599999999998226, -0.23104051222927238 
1.7699999999998215, -0.2304264563729065 
1.7799999999998204, -0.23008908224315724 
1.7899999999998193, -0.23001820718508448 
1.7999999999998182, -0.23024186594980947 
1.809999999999817, -0.23083275141826493 
1.819999999999816, -0.23192438039941057 
1.8299999999998149, -0.23374012593238064 
1.8399999999998138, -0.2366380827465256 
1.8499999999998127, -0.24116651809702408 
1.8599999999998116, -0.24808990544639475 
1.8699999999998105, -0.258251061126933 
1.8799999999998094, -0.27200848084378665 
1.8899999999998083, -0.28820867015789403 
1.8999999999998072, -0.30380757497170413 
1.909999999999806, -0.31568498006735946 
1.919999999999805, -0.32297349710453815 
1.9299999999998039, -0.32682833288257274 
1.9399999999998028, -0.328749709685845 
1.9499999999998017, -0.3297300863255684 
1.9599999999998006, -0.33026857824991696 
1.9699999999997995, -0.3305873622235952 
1.9799999999997984, -0.3307819676672251 
1.9899999999997973, -0.3308944181740936 
1.9999999999997962, -0.3309444004101742 
2.0099999999998173, -0.33094225462591154 
2.0199999999998384, -0.33089513055425834 
2.0299999999998595, -0.3308111588959882 
2.0399999999998806, -0.3307034399158518 
2.0499999999999017, -0.33059382225499845 
2.059999999999923, -0.33051501981283354 
2.069999999999944, -0.33050898946963786 
2.079999999999965, -0.33062035577156756 
2.089999999999986, -0.33088556718817647 
2.100000000000007, -0.3313200236859758 
2.1100000000000283, -0.3319066284837965 
2.1200000000000494, -0.3325912913482062 
2.1300000000000705, -0.33329173684907676 
2.1400000000000916, -0.3339199594494524 
2.1500000000001127, -0.33440730972927674 
2.160000000000134, -0.33471740458052135 
2.170000000000155, -0.3348420553157091 
2.180000000000176, -0.3347872598073359 
2.190000000000197, -0.33455829897443545 
2.2000000000002182, -0.33414771874344795 
2.2100000000002393, -0.33352495846050845 
2.2200000000002604, -0.33262442557047717 
2.2300000000002815, -0.33132960285562285 
2.2400000000003026, -0.32945550891992836 
2.2500000000003237, -0.32674529062841995 
2.260000000000345, -0.3229211106252899 
2.270000000000366, -0.31783702714024453 
2.280000000000387, -0.311694040371498 
2.290000000000408, -0.30510517579046764 
2.3000000000004293, -0.2988410768737923 
2.3100000000004504, -0.2934589099420357 
2.3200000000004715, -0.28915144343814253 
2.3300000000004926, -0.2858424690920593 
2.3400000000005137, -0.28334399360547946 
2.3500000000005348, -0.28145995342833086 
2.360000000000556, -0.28002892387863026 
2.370000000000577, -0.2789327807001235 
2.380000000000598, -0.2780925128609144 
2.390000000000619, -0.27746163986626693 
2.4000000000006403, -0.27702144460292566 
2.4100000000006614, -0.27677972681231655 
2.4200000000006825, -0.27677423052412925 
2.4300000000007036, -0.2770823682406359 
2.4400000000007247, -0.2778399740028482 
2.450000000000746, -0.27927307392498035 
2.460000000000767, -0.281746043929726 
2.470000000000788, -0.2858194410558627 
2.480000000000809, -0.2922689695777819 
2.49000000000083, -0.3019035935078883 
2.5000000000008513, -0.31487480094844444 
2.5100000000008724, -0.32948422460325855 
2.5200000000008935, -0.3420021773000002 
2.5300000000009146, -0.3493180550260654 
2.5400000000009357, -0.351623123954034 
2.550000000000957, -0.35123386605833873 
2.560000000000978, -0.3501031923138858 
2.570000000000999, -0.34909892255309144 
2.58000000000102, -0.34841789194997574 
2.5900000000010412, -0.3480144409669458 
2.6000000000010624, -0.34779845441465485 
2.6100000000010835, -0.34769558141168583 
2.6200000000011046, -0.3476559467539674 
2.6300000000011257, -0.3476493835861666 
2.6400000000011468, -0.3476596594586054 
2.650000000001168, -0.3476808092543996 
2.660000000001189, -0.34771587775449575 
2.67000000000121, -0.3477775219445721 
2.680000000001231, -0.3478893456056028 
2.6900000000012523, -0.34808620550191305 
2.7000000000012734, -0.348411417269568 
2.7100000000012945, -0.34890922908409167 
2.7200000000013156, -0.3496120299120489 
2.7300000000013367, -0.3505235684233288 
2.740000000001358, -0.3516032273572868 
2.750000000001379, -0.3527618889039401 
2.7600000000014, -0.3538799454263376 
2.770000000001421, -0.3548439730936125 
2.780000000001442, -0.35558017367678996 
2.7900000000014633, -0.35606390562561324 
2.8000000000014844, -0.3563057179006217 
2.8100000000015055, -0.35632911373642423 
2.8200000000015266, -0.3561521713703394 
2.8300000000015477, -0.35577550049669415 
2.840000000001569, -0.35517339202248255 
2.85000000000159, -0.3542843368989895 
2.860000000001611, -0.35299941572449034 
2.870000000001632, -0.35115304072417003 
2.8800000000016532, -0.3485331317763019 
2.8900000000016743, -0.34494350252894407 
2.9000000000016954, -0.34033948583829077 
2.9100000000017165, -0.3349715214078952 
2.9200000000017377, -0.32937328957248424 
2.9300000000017588, -0.32413343911863374 
2.94000000000178, -0.31964299136629337 
2.950000000001801, -0.3160213709202153 
2.960000000001822, -0.3131990884407185 
2.970000000001843, -0.31102964391805554 
2.9800000000018643, -0.3093618789402083 
2.9900000000018854, -0.30807078577304225 
3.0000000000019065, -0.3070647591019158 
3.0100000000019276, -0.3062834708820533 
3.0200000000019487, -0.3056938041722334 
3.03000000000197, -0.3052872252476815 
3.040000000001991, -0.3050802624395471 
3.050000000002012, -0.3051194117500019 
3.060000000002033, -0.30549227145865837 
3.070000000002054, -0.3063477491296003 
3.0800000000020753, -0.3079292411952622 
3.0900000000020964, -0.31062356536216945 
3.1000000000021175, -0.3150174143705077 
3.1100000000021386, -0.321911034608911 
3.1200000000021597, -0.3321323694417864 
3.130000000002181, -0.34587529494898767 
3.140000000002202, -0.36160530998493595 
3.150000000002223, -0.37588647773918893 
3.160000000002244, -0.38565556040202953 
3.1700000000022652, -0.39062262601015274 
3.1800000000022863, -0.39252701323479294 
3.1900000000023074, -0.3930893580789593 
3.2000000000023285, -0.3932346187288509 
3.2100000000023496, -0.39330471640739995 
3.2200000000023707, -0.3933829677371226 
3.230000000002392, -0.3934697447272174 
3.240000000002413, -0.393548691586975 
3.250000000002434, -0.3936053946624457 
3.260000000002455, -0.39363024962438764 
3.2700000000024763, -0.39361763973948166 
3.2800000000024974, -0.39356541059489525 
3.2900000000025185, -0.3934758026472677 
3.3000000000025396, -0.393357851905089 
3.3100000000025607, -0.39323024424247216 
3.3200000000025818, -0.39312251159624584 
3.330000000002603, -0.3930721575725468 
3.340000000002624, -0.3931167238214403 
3.350000000002645, -0.39328237550393597 
3.360000000002666, -0.39357257464697454 
3.3700000000026873, -0.3939612862545419 
3.3800000000027084, -0.39439519475265955 
3.3900000000027295, -0.3948068133486518 
3.4000000000027506, -0.3951337234671684 
3.4100000000027717, -0.3953336239719635 
3.420000000002793, -0.39538768515726863 
3.430000000002814, -0.39529340575203925 
3.440000000002835, -0.3950533423241722 
3.450000000002856, -0.3946645205533753 
3.460000000002877, -0.3941091620038145 
3.4700000000028983, -0.393344171136821 
3.4800000000029194, -0.39228481992177744 
3.4900000000029405, -0.3907763569199767 
3.5000000000029616, -0.3885474062013414 
3.5100000000029827, -0.3851509030224952 
3.520000000003004, -0.37994731371459434 
3.530000000003025, -0.3722826028801975 
3.540000000003046, -0.36200654437904467 
3.550000000003067, -0.350023266445068 
3.5600000000030882, -0.3380668742441352 
3.5700000000031094, -0.32768093880653126 
3.5800000000031305, -0.31952119684771185 
3.5900000000031516, -0.313483446629021 
3.6000000000031727, -0.3091412785300163 
3.6100000000031938, -0.3060457312254628 
3.620000000003215, -0.3038375639472623 
3.630000000003236, -0.3022607655585569 
3.640000000003257, -0.3011440761311853 
3.650000000003278, -0.30037915726290326 
3.6600000000032993, -0.299903948562415 
3.6700000000033204, -0.2996924666770774 
3.6800000000033415, -0.2997505315761679 
3.6900000000033626, -0.300117041174276 
3.7000000000033837, -0.30087111580650305 
3.710000000003405, -0.3021461666827437 
3.720000000003426, -0.3041520619976233 
3.730000000003447, -0.3072041937991809 
3.740000000003468, -0.3117481658249658 
3.750000000003489, -0.3183402126287276 
3.7600000000035103, -0.3274891390091599 
3.7700000000035314, -0.33924188814934386 
3.7800000000035525, -0.35262251154438007 
3.7900000000035736, -0.3656021384125462 
3.8000000000035947, -0.3761767740276522 
3.810000000003616, -0.38357856804039925 
3.820000000003637, -0.3882584425049776 
3.830000000003658, -0.39107868141006474 
3.840000000003679, -0.3927595937828552 
3.8500000000037002, -0.3937618193620873 
3.8600000000037213, -0.39434934706278957 
3.8700000000037424, -0.3946675254042483 
3.8800000000037635, -0.3947947305339893 
3.8900000000037847, -0.39477120470196175 
3.9000000000038058, -0.3946147801271304 
3.910000000003827, -0.3943306598369678 
3.920000000003848, -0.3939197349143483 
3.930000000003869, -0.39338767389863055 
3.94000000000389, -0.39275416591042206 
3.9500000000039113, -0.3920583566980492 
3.9600000000039324, -0.3913554895043371 
3.9700000000039535, -0.39070399343065965 
3.9800000000039746, -0.3901490523449183 
3.9900000000039957, -0.38971094123612804 
4.000000000004016, -0.38938238887694604 
4.010000000003993, -0.38913423442516903 
4.02000000000397, -0.3889261907829873 
4.030000000003946, -0.38871853254086836 
4.040000000003923, -0.388480463987629 
4.0500000000039, -0.3881928637844202 
4.0600000000038765, -0.38784623804167 
4.070000000003853, -0.38743652686983027 
4.08000000000383, -0.38696098450867816 
4.090000000003807, -0.3864148269447859 
4.100000000003783, -0.3857877738943264 
4.11000000000376, -0.3850577204764559 
4.120000000003737, -0.384174849333654 
4.130000000003713, -0.38302046617802127 
4.14000000000369, -0.38130888177715705 
4.150000000003667, -0.37839581218583773 
4.1600000000036434, -0.3730590823537402 
4.17000000000362, -0.3636912756450095 
4.180000000003597, -0.3495817336050867 
4.1900000000035735, -0.33249159358890973 
4.20000000000355, -0.3159132167667954 
4.210000000003527, -0.30244269574377775 
4.220000000003504, -0.2926785443022821 
4.23000000000348, -0.2860114105316436 
4.240000000003457, -0.2815659487327636 
4.250000000003434, -0.2786159715364786 
4.26000000000341, -0.2766558018928043 
4.270000000003387, -0.27535815215896065 
4.280000000003364, -0.27451893200438005 
4.2900000000033405, -0.27401544125093574 
4.300000000003317, -0.2737796263879049 
4.310000000003294, -0.27378285285444 
4.320000000003271, -0.2740289661245491 
4.330000000003247, -0.2745537224785696 
4.340000000003224, -0.27542976693089666 
4.350000000003201, -0.2767768134683162 
4.360000000003177, -0.27877580873420527 
4.370000000003154, -0.28168158650692815 
4.380000000003131, -0.2858165224977527 
4.390000000003107, -0.2915041386906113 
4.400000000003084, -0.29888293448367986 
4.410000000003061, -0.307606527392902 
4.4200000000030375, -0.31667502833948963 
4.430000000003014, -0.32478421800915364 
4.440000000002991, -0.3310515903483411 
4.450000000002968, -0.3353674495665421 
4.460000000002944, -0.33812566558786716 
4.470000000002921, -0.3398163124677174 
4.480000000002898, -0.34082255503301184 
4.490000000002874, -0.34139285851232126 
4.500000000002851, -0.3416744667067086 
4.510000000002828, -0.34174966505505483 
4.520000000002804, -0.34166093498521427 
4.530000000002781, -0.34142680872717013 
4.540000000002758, -0.34105300793457427 
4.5500000000027345, -0.3405426366819497 
4.560000000002711, -0.3399070770890266 
4.570000000002688, -0.339175774803969 
4.580000000002665, -0.3383996947848787 
4.590000000002641, -0.33764385559370635 
4.600000000002618, -0.33697086216043 
4.610000000002595, -0.3364239690997065 
4.620000000002571, -0.3360176025516851 
4.630000000002548, -0.33573732815546786 
4.640000000002525, -0.33554706343240204 
4.6500000000025015, -0.335400436804054 
4.660000000002478, -0.33525267358431116 
4.670000000002455, -0.33506893528998555 
4.6800000000024315, -0.334826660946522 
4.690000000002408, -0.3345126232662115 
4.700000000002385, -0.33411727659933466 
4.710000000002362, -0.3336283560596546 
4.720000000002338, -0.3330236961813842 
4.730000000002315, -0.33226091022284676 
4.740000000002292, -0.3312585776060052 
4.750000000002268, -0.3298588645428626 
4.760000000002245, -0.32775631362197 
4.770000000002222, -0.3243866056701419 
4.7800000000021985, -0.31884485662643397 
4.790000000002175, -0.3101046766582681 
4.800000000002152, -0.29786904462128216 
4.810000000002129, -0.2835098944640529 
4.820000000002105, -0.26956529254437156 
4.830000000002082, -0.2580024960982031 
4.840000000002059, -0.24937239888725612 
4.850000000002035, -0.24327972212627044 
4.860000000002012, -0.23906657095302314 
