t, s[1].omega / s[0].omega 
0, -0.6099977251934846 
0.009999999999999995, -0.6097852124712553 
0.019999999999999934, -0.6095927326789735 
0.029999999999999874, -0.6093959302311897 
0.04000000000000012, -0.6091661455513935 
0.050000000000000405, -0.6088812087493805 
0.06000000000000069, -0.6085316778883442 
0.07000000000000098, -0.6081217683973584 
0.08000000000000126, -0.6076679715427125 
0.09000000000000155, -0.6071991586494739 
0.10000000000000184, -0.6067607682439278 
0.11000000000000212, -0.6064245020736732 
0.12000000000000241, -0.6063045841850621 
0.130000000000002, -0.6065816447830452 
0.1400000000000009, -0.6075348077645195 
0.1499999999999998, -0.6095802626112203 
0.1599999999999987, -0.6133077517006382 
0.1699999999999976, -0.6194893939538186 
0.1799999999999965, -0.62900086586341 
0.1899999999999954, -0.6425512365754108 
0.1999999999999943, -0.6601421509019553 
0.2099999999999932, -0.6804498873288363 
0.2199999999999921, -0.7008161037177026 
0.229999999999991, -0.7183907062811502 
0.2399999999999899, -0.7316060402556585 
0.2499999999999888, -0.7405390610109912 
0.2599999999999877, -0.7461664199819483 
0.2699999999999866, -0.7495610714806238 
0.2799999999999855, -0.7515397086733131 
0.2899999999999844, -0.7526315690421046 
0.2999999999999833, -0.7531509033474489 
0.3099999999999822, -0.7532693437972067 
0.3199999999999811, -0.7530626932049389 
0.32999999999998, -0.7525327607578045 
0.3399999999999789, -0.7516080825532939 
0.3499999999999778, -0.7501246342023966 
0.35999999999997667, -0.7477863610033243 
0.36999999999997557, -0.744113393114732 
0.37999999999997447, -0.7384179044652519 
0.38999999999997337, -0.7299124112977201 
0.39999999999997227, -0.7180855405845803 
0.40999999999997117, -0.7032734928151605 
0.41999999999997006, -0.6869133149141355 
0.42999999999996896, -0.671005602671432 
0.43999999999996786, -0.6571836785001275 
0.44999999999996676, -0.6462098782847143 
0.45999999999996566, -0.6380837108604958 
0.46999999999996456, -0.63239197746541 
0.47999999999996346, -0.6285960833327112 
0.48999999999996235, -0.6261863090052371 
0.49999999999996125, -0.6247410092521204 
0.5099999999999602, -0.6239369296403711 
0.519999999999959, -0.6235388751351254 
0.529999999999958, -0.6233825125766274 
0.5399999999999568, -0.6233565617066223 
0.5499999999999557, -0.6233872365142615 
0.5599999999999546, -0.6234262555215168 
0.5699999999999535, -0.6234429525192059 
0.5799999999999524, -0.6234204197943354 
0.5899999999999513, -0.6233547221866395 
0.5999999999999502, -0.6232548724636869 
0.6099999999999491, -0.6231403053348977 
0.619999999999948, -0.6230336941933907 
0.6299999999999469, -0.6229504889033929 
0.6399999999999458, -0.6228900294398066 
0.6499999999999447, -0.6228334104744169 
0.6599999999999436, -0.6227498632789251 
0.6699999999999425, -0.6226083657390251 
0.6799999999999414, -0.6223881000028665 
0.6899999999999403, -0.6220830945629423 
0.6999999999999392, -0.6217013860236071 
0.7099999999999381, -0.6212626396188953 
0.719999999999937, -0.6207982702284105 
0.7299999999999359, -0.6203565069738824 
0.7399999999999348, -0.6200137289694971 
0.7499999999999337, -0.619893221746204 
0.7599999999999326, -0.6201925443661038 
0.7699999999999315, -0.6212198689656192 
0.7799999999999304, -0.6234363282525603 
0.7899999999999293, -0.6274922919838969 
0.7999999999999282, -0.6342243403919624 
0.8099999999999271, -0.644540535738918 
0.819999999999926, -0.6590827331674041 
0.8299999999999249, -0.6776201521585891 
0.8399999999999238, -0.6984798743399431 
0.8499999999999227, -0.718778423897845 
0.8599999999999216, -0.7357811559445281 
0.8699999999999205, -0.7482558745326073 
0.8799999999999194, -0.7565431210844028 
0.8899999999999183, -0.7617050248305774 
0.8999999999999172, -0.7647924652986047 
0.9099999999999161, -0.7665730268288746 
0.919999999999915, -0.7675340607383581 
0.9299999999999139, -0.7679606884091121 
0.9399999999999128, -0.7680046769308682 
0.9499999999999117, -0.7677265814604357 
0.9599999999999106, -0.7671133040375595 
0.9699999999999095, -0.7660743381586016 
0.9799999999999084, -0.7644166786330853 
0.9899999999999073, -0.7617972439363743 
0.9999999999999062, -0.7576616140471326 
1.0099999999999052, -0.751216889554519 
1.019999999999904, -0.7415652302997545 
1.029999999999903, -0.7281587139412962 
1.039999999999902, -0.7114743759913014 
1.0499999999999008, -0.6932704785849195 
1.0599999999998997, -0.6758835533099459 
1.0699999999998986, -0.661115963579694 
1.0799999999998975, -0.649702813636847 
1.0899999999998964, -0.6415077912027725 
1.0999999999998953, -0.635964335132072 
1.1099999999998942, -0.6324101856481249 
1.119999999999893, -0.6302536617545776 
1.129999999999892, -0.6290279555320166 
1.1399999999998909, -0.6283911603117075 
1.1499999999998898, -0.6281056223907923 
1.1599999999998887, -0.62801253311718 
1.1699999999998876, -0.6280085741190559 
1.1799999999998865, -0.628027229707463 
1.1899999999998854, -0.6280255145971031 
1.1999999999998843, -0.6279760783763424 
1.2099999999998832, -0.6278641554714119 
1.219999999999882, -0.6276879324348048 
1.229999999999881, -0.6274594229344925 
1.2399999999998799, -0.6272020487625134 
1.2499999999998788, -0.626942821410666 
1.2599999999998777, -0.6267012849345974 
1.2699999999998766, -0.6264808098477446 
1.2799999999998755, -0.6262672004311239 
1.2899999999998744, -0.626035389548742 
1.2999999999998733, -0.6257603085544214 
1.3099999999998722, -0.6254261141731419 
1.319999999999871, -0.6250302933523443 
1.32999999999987, -0.6245835470696951 
1.3399999999998689, -0.6241089848213396 
1.3499999999998678, -0.6236439153022338 
1.3599999999998666, -0.6232460720800275 
1.3699999999998655, -0.6230050493735132 
1.3799999999998644, -0.6230592336126526 
1.3899999999998633, -0.623618012040019 
1.3999999999998622, -0.6249877668808794 
1.4099999999998611, -0.6275970203953066 
1.41999999999986, -0.6320087862995225 
1.429999999999859, -0.6388926570632437 
1.4399999999998578, -0.6489033640337165 
1.4499999999998567, -0.6623951559196687 
1.4599999999998556, -0.6789695071823652 
1.4699999999998545, -0.6971143242775704 
1.4799999999998534, -0.7144736957295488 
1.4899999999998523, -0.7289092416308669 
1.4999999999998512, -0.7394949946420091 
1.5099999999998501, -0.746542931344177 
1.519999999999849, -0.7509380108135064 
1.529999999999848, -0.7535576897781175 
1.5399999999998468, -0.7550476606669403 
1.5499999999998457, -0.7558194580290493 
1.5599999999998446, -0.7561122628405863 
1.5699999999998435, -0.7560486839502272 
1.5799999999998424, -0.7556680815852377 
1.5899999999998413, -0.7549378316424494 
1.5999999999998402, -0.7537439233785468 
1.6099999999998391, -0.7518593039250622 
1.619999999999838, -0.7488880654559235 
1.629999999999837, -0.7441968428708925 
1.6399999999998358, -0.7368937559659303 
1.6499999999998347, -0.7260096731425377 
1.6599999999998336, -0.7110588407627778 
1.6699999999998325, -0.6927958764951684 
1.6799999999998314, -0.6733640019370224 
1.6899999999998303, -0.6553309483376275 
1.6999999999998292, -0.6404554479777561 
1.709999999999828, -0.6292680571961548 
1.719999999999827, -0.6214267601187113 
1.729999999999826, -0.6162313079624038 
1.7399999999998248, -0.612957874746526 
1.7499999999998237, -0.6110006547622094 
1.7599999999998226, -0.6099026486092223 
1.7699999999998215, -0.6093400861654369 
1.7799999999998204, -0.6090933938253873 
1.7899999999998193, -0.6090183412677221 
1.7999999999998182, -0.6090221000948076 
1.809999999999817, -0.6090453463311774 
1.819999999999816, -0.6090502510156963 
1.8299999999998149, -0.6090138087621405 
1.8399999999998138, -0.6089256113736201 
1.8499999999998127, -0.6087882846345226 
1.8599999999998116, -0.6086174839262177 
1.8699999999998105, -0.6084379939295268 
1.8799999999998094, -0.6082747592990797 
1.8899999999998083, -0.6081418370446753 
1.8999999999998072, -0.6080349106519352 
1.909999999999806, -0.6079317658297123 
1.919999999999805, -0.6078007978585127 
1.9299999999998039, -0.6076129383980462 
1.9399999999998028, -0.6073507423328899 
1.9499999999998017, -0.6070113720557986 
1.9599999999998006, -0.6066050921100048 
1.9699999999997995, -0.6061534158958292 
1.9799999999997984, -0.6056904681166769 
1.9899999999997973, -0.6052696399076605 
1.9999999999997962, -0.6049769263162411 
2.0099999999998173, -0.6049525108142315 
2.0199999999998384, -0.6054223914431917 
2.0299999999998595, -0.6067408979880831 
2.0399999999998806, -0.6094405120035994 
2.0499999999999017, -0.6142723490340557 
2.059999999999923, -0.6221897067957777 
2.069999999999944, -0.6341726416191474 
2.079999999999965, -0.650755417784141 
2.089999999999986, -0.6712748471008227 
2.100000000000007, -0.6933937349964073 
2.1100000000000283, -0.7138192841749025 
2.1200000000000494, -0.730051719979645 
2.1300000000000705, -0.7414589042056142 
2.1400000000000916, -0.7488231406379977 
2.1500000000001127, -0.7533406900699353 
2.160000000000134, -0.7560240415087356 
2.170000000000155, -0.7575625295447587 
2.180000000000176, -0.758378782393012 
2.190000000000197, -0.7587145918057894 
2.2000000000002182, -0.7586939739548718 
2.2100000000002393, -0.7583582546318068 
2.2200000000002604, -0.7576780045109717 
2.2300000000002815, -0.7565450535737581 
2.2400000000003026, -0.7547450651229483 
2.2500000000003237, -0.7519133758164024 
2.260000000000345, -0.7474942636532551 
2.270000000000366, -0.7407701241560245 
2.280000000000387, -0.7310831071547683 
2.290000000000408, -0.7183064133331661 
2.3000000000004293, -0.703286749202377 
2.3100000000004504, -0.6877152834392366 
2.3200000000004715, -0.6733689314145679 
2.3300000000004926, -0.6613959080509202 
2.3400000000005137, -0.6521518597925005 
2.3500000000005348, -0.6454402086711611 
2.360000000000556, -0.6408145326218977 
2.370000000000577, -0.637780803527566 
2.380000000000598, -0.635895308363075 
2.390000000000619, -0.6347985555976091 
2.4000000000006403, -0.6342177397366502 
2.4100000000006614, -0.633955776660004 
2.4200000000006825, -0.6338757717614318 
2.4300000000007036, -0.6338853643666966 
2.4400000000007247, -0.6339233126483393 
2.450000000000746, -0.6339495707892661 
2.460000000000767, -0.6339393747884677 
2.470000000000788, -0.6338810646997077 
2.480000000000809, -0.6337761396051546 
2.49000000000083, -0.6336386073085403 
2.5000000000008513, -0.6334904736297535 
2.5100000000008724, -0.6333526553371389 
2.5200000000008935, -0.6332346402970017 
2.5300000000009146, -0.6331284413793369 
2.5400000000009357, -0.6330106430280293 
2.550000000000957, -0.6328516903359243 
2.560000000000978, -0.6326272067584806 
2.570000000000999, -0.6323255226471137 
2.58000000000102, -0.6319493779322642 
2.5900000000010412, -0.6315142929552238 
2.6000000000010624, -0.6310477231748354 
2.6100000000010835, -0.6305920289218765 
2.6200000000011046, -0.6302127580279876 
2.6300000000011257, -0.630012954048225 
2.6400000000011468, -0.6301538757685632 
2.650000000001168, -0.6308818126213513 
2.660000000001189, -0.6325586444990489 
2.67000000000121, -0.6356888595203325 
2.680000000001231, -0.640924745148314 
2.6900000000012523, -0.6490098813556184 
2.7000000000012734, -0.6605913830253727 
2.7100000000012945, -0.6758331640432658 
2.7200000000013156, -0.6939078280240244 
2.7300000000013367, -0.712793091865779 
2.740000000001358, -0.7299230710339362 
2.750000000001379, -0.7434499894453449 
2.7600000000014, -0.7529568770233588 
2.770000000001421, -0.7590983710403464 
2.780000000001442, -0.7628517752760537 
2.7900000000014633, -0.7650523385626932 
2.8000000000014844, -0.7662739367690331 
2.8100000000015055, -0.7668684144630745 
2.8200000000015266, -0.7670330795631728 
2.8300000000015477, -0.7668609524036576 
2.840000000001569, -0.7663669979585094 
2.85000000000159, -0.7654924948957582 
2.860000000001611, -0.7640880969147509 
2.870000000001632, -0.7618729714775349 
2.8800000000016532, -0.7583693997376357 
2.8900000000016743, -0.7528337724838081 
2.9000000000016954, -0.7442715254879333 
2.9100000000017165, -0.7317264752228243 
2.9200000000017377, -0.7149839733773949 
2.9300000000017588, -0.6953021491561604 
2.94000000000178, -0.6752359082259852 
2.950000000001801, -0.6573747586412774 
2.960000000001822, -0.6431890491188376 
2.970000000001843, -0.632879984528154 
2.9800000000018643, -0.6258863539884488 
2.9900000000018854, -0.6214055413700363 
3.0000000000019065, -0.6186858611768898 
3.0100000000019276, -0.6171310208489089 
3.0200000000019487, -0.6163085432656735 
3.03000000000197, -0.6159223552339829 
3.040000000001991, -0.6157779450545098 
3.050000000002012, -0.6157510888023942 
3.060000000002033, -0.6157634407002778 
3.070000000002054, -0.6157652827925846 
3.0800000000020753, -0.6157247914587048 
3.0900000000020964, -0.6156229757547986 
3.1000000000021175, -0.6154530590988111 
3.1100000000021386, -0.6152219384543908 
3.1200000000021597, -0.6149499757446912 
3.130000000002181, -0.6146657078520512 
3.140000000002202, -0.6143954901717705 
3.150000000002223, -0.6141525553453553 
3.160000000002244, -0.6139314350709315 
3.1700000000022652, -0.6137108584229083 
3.1800000000022863, -0.6134633678656389 
3.1900000000023074, -0.6131662655775941 
3.2000000000023285, -0.6128086795534406 
3.2100000000023496, -0.6123933253461182 
3.2200000000023707, -0.6119354865065059 
3.230000000002392, -0.6114629549849989 
3.240000000002413, -0.6110196491188631 
3.250000000002434, -0.6106743457895778 
3.260000000002455, -0.610535383503495 
3.2700000000024763, -0.6107720303009272 
3.2800000000024974, -0.6116426972211635 
3.2900000000025185, -0.61352824201778 
3.3000000000025396, -0.6169631700604011 
3.3100000000025607, -0.6226442853679226 
3.3200000000025818, -0.6313692179709591 
3.330000000002603, -0.6438199024298629 
3.340000000002624, -0.6601121184498632 
3.350000000002645, -0.6792259840812472 
3.360000000002666, -0.6988566424651514 
3.3700000000026873, -0.7162736871401658 
3.3800000000027084, -0.7297176964388943 
3.3900000000027295, -0.7389897464786545 
3.4000000000027506, -0.7449054816847127 
3.4100000000027717, -0.7484987772486015 
3.420000000002793, -0.7506019422590873 
3.430000000002814, -0.7517696038454158 
3.440000000002835, -0.7523362375210654 
3.450000000002856, -0.7524872275196764 
3.460000000002877, -0.7523079240215922 
3.4700000000028983, -0.7518079985219775 
3.4800000000029194, -0.7509243636201577 
3.4900000000029405, -0.7495037215088526 
3.5000000000029616, -0.7472637376790219 
3.5100000000029827, -0.743737343722717 
3.520000000003004, -0.7382323905476971 
3.530000000003025, -0.7299044250933882 
3.540000000003046, -0.7180983357805164 
3.550000000003067, -0.7029612464106278 
3.5600000000030882, -0.6858482716340532 
3.5700000000031094, -0.6688939904278599 
3.5800000000031305, -0.6539868264878624 
3.5900000000031516, -0.6420892238403366 
3.6000000000031727, -0.6332755640510569 
3.6100000000031938, -0.6271167462338884 
3.620000000003215, -0.6230226096772227 
3.630000000003236, -0.62043036250089 
3.640000000003257, -0.6188766429227531 
3.650000000003278, -0.6180093789253065 
3.6600000000032993, -0.6175749407680734 
3.6700000000033204, -0.6173978016381207 
3.6800000000033415, -0.6173601457219065 
3.6900000000033626, -0.6173844754872219 
3.7000000000033837, -0.6174203842315599 
3.710000000003405, -0.6174358236934847 
3.720000000003426, -0.6174126830903952 
3.730000000003447, -0.617345747898312 
3.740000000003468, -0.6172428518262191 
3.750000000003489, -0.6171229534609599 
3.7600000000035103, -0.6170096185961005 
3.7700000000035314, -0.6169206923764985 
3.7800000000035525, -0.6168586717588086 
3.7900000000035736, -0.6168071969202595 
3.8000000000035947, -0.6167361755273416 
3.810000000003616, -0.6166130546690824 
3.820000000003637, -0.616414046653275 
3.830000000003658, -0.616129951697723 
3.840000000003679, -0.6157659939787703 
3.8500000000037002, -0.6153392571064558 
3.8600000000037213, -0.6148779816158376 
3.8700000000037424, -0.6144255016949091 
3.8800000000037635, -0.6140503560288784 
3.8900000000037847, -0.6138639037797455 
3.9000000000038058, -0.6140470336658721 
3.910000000003827, -0.6148872032568882 
3.920000000003848, -0.6168244650360394 
3.930000000003869, -0.6204970069484738 
3.94000000000389, -0.6267563310513402 
3.9500000000039113, -0.6365810178696859 
3.9600000000039324, -0.650766903512947 
3.9700000000039535, -0.669306593194717 
3.9800000000039746, -0.6907048238225548 
3.9900000000039957, -0.7120325367046034 
4.000000000004016, -0.730261271683187 
4.010000000003993, -0.7438353036265393 
4.02000000000397, -0.7529415133557221 
4.030000000003946, -0.758651207706611 
4.040000000003923, -0.7620878226363345 
4.0500000000039, -0.7640898927221936 
4.0600000000038765, -0.7651958142384438 
4.070000000003853, -0.7657240274269028 
4.08000000000383, -0.7658482749242975 
4.090000000003807, -0.765645389621899 
4.100000000003783, -0.7651174272011991 
4.11000000000376, -0.7641923044062027 
4.120000000003737, -0.762703999114437 
4.130000000003713, -0.7603517995448972 
4.14000000000369, -0.7566457705992327 
4.150000000003667, -0.7508776232079164 
4.1600000000036434, -0.7422232210538315 
4.17000000000362, -0.7301211073813001 
4.180000000003597, -0.7148716900083228 
4.1900000000035735, -0.6979365202252271 
4.20000000000355, -0.6814122663230342 
4.210000000003527, -0.6670474419621384 
4.220000000003504, -0.6556767804791465 
4.23000000000348, -0.6473124850140002 
4.240000000003457, -0.6415139345061314 
4.250000000003434, -0.6377005764584871 
4.26000000000341, -0.6353229445897293 
4.270000000003387, -0.6339291169409369 
4.280000000003364, -0.6331762457904453 
4.2900000000033405, -0.632818454767732 
4.300000000003317, -0.632686864171794 
4.310000000003294, -0.6326691167874262 
4.320000000003271, -0.6326917729220688 
4.330000000003247, -0.632707011914059 
4.340000000003224, -0.6326841119273166 
4.350000000003201, -0.632605550720868 
4.360000000003177, -0.6324666716760187 
4.370000000003154, -0.6322764103045296 
4.380000000003131, -0.6320554558870277 
4.390000000003107, -0.6318293403118557 
4.400000000003084, -0.6316178033463212 
4.410000000003061, -0.6314255471383181 
4.4200000000030375, -0.6312396646563712 
4.430000000003014, -0.6310353307559498 
4.440000000002991, -0.6307864733987051 
4.450000000002968, -0.6304755587918107 
4.460000000002944, -0.6300983877951994 
4.470000000002921, -0.6296642311470623 
4.480000000002898, -0.629194738163748 
4.490000000002874, -0.6287251305952671 
4.500000000002851, -0.6283097356314953 
4.510000000002828, -0.6280327082743958 
4.520000000002804, -0.6280242125148764 
4.530000000002781, -0.6284818176039514 
4.540000000002758, -0.6296956832240004 
4.5500000000027345, -0.6320732996666021 
4.560000000002711, -0.6361531938195242 
4.570000000002688, -0.6425835261948657 
4.580000000002665, -0.6520182466857131 
4.590000000002641, -0.6648637894920695 
4.600000000002618, -0.6808569354756006 
4.610000000002595, -0.6986760340534114 
4.620000000002571, -0.716084799745417 
4.630000000002548, -0.7308770177390689 
4.640000000002525, -0.741929815775818 
4.6500000000025015, -0.7493911337887467 
4.660000000002478, -0.7540858115095288 
4.670000000002455, -0.7569010997427748 
4.6800000000024315, -0.758513517909416 
4.690000000002408, -0.7593625588458706 
4.700000000002385, -0.7597073053708602 
4.710000000002362, -0.7596839241719343 
4.720000000002338, -0.7593419853643149 
4.730000000002315, -0.7586585693899077 
4.740000000002292, -0.7575316152158449 
4.750000000002268, -0.755751083267014 
4.760000000002245, -0.7529449891085489 
4.770000000002222, -0.7485067821286584 
4.7800000000021985, -0.7415521252861582 
4.790000000002175, -0.7310470490655557 
4.800000000002152, -0.7163145013995645 
4.810000000002129, -0.6978505484516779 
4.820000000002105, -0.6776912847423812 
4.830000000002082, -0.6585842339228142 
4.840000000002059, -0.6426037004956242 
4.850000000002035, -0.6305054574012241 
4.860000000002012, -0.6220164542018214 
4.870000000001989, -0.6164057513785812 
4.880000000001965, -0.6128862844595186 
4.890000000001942, -0.610792742576386 
4.900000000001919, -0.6096238276009994 
4.9100000000018955, -0.6090265650386397 
4.920000000001872, -0.6087636129530704 
