t, s[1].omega / s[0].omega 
0, -0.9799799298568838 
0.009999999999999995, -0.9778565307293109 
0.019999999999999934, -0.9755597087351046 
0.029999999999999874, -0.9731811672128501 
0.04000000000000012, -0.9708182743754538 
0.050000000000000405, -0.9685731863953231 
0.06000000000000069, -0.9665499745066886 
0.07000000000000098, -0.964844404611986 
0.08000000000000126, -0.9635255072457498 
0.09000000000000155, -0.9626151604389358 
0.10000000000000184, -0.9620776803733861 
0.11000000000000212, -0.9618287078914252 
0.12000000000000241, -0.9617600706941489 
0.130000000000002, -0.9617661009371256 
0.1400000000000009, -0.9617585689880634 
0.1499999999999998, -0.9616682193317418 
0.1599999999999987, -0.9614392645075938 
0.1699999999999976, -0.9610245489974346 
0.1799999999999965, -0.9603860975618547 
0.1899999999999954, -0.9595011853245069 
0.1999999999999943, -0.9583694517324712 
0.2099999999999932, -0.957014875403949 
0.2199999999999921, -0.9554802733838821 
0.229999999999991, -0.953818344698394 
0.2399999999999899, -0.9520854162658006 
0.2499999999999888, -0.9503403982834604 
0.2599999999999877, -0.9486467110345304 
0.2699999999999866, -0.9470729932558823 
0.2799999999999855, -0.9456892240727235 
0.2899999999999844, -0.9445571191364245 
0.2999999999999833, -0.9437166432889595 
0.3099999999999822, -0.9431737065047903 
0.3199999999999811, -0.9428957093226344 
0.32999999999998, -0.9428187890911482 
0.3399999999999789, -0.9428637384077735 
0.3499999999999778, -0.942952338287735 
0.35999999999997667, -0.9430172997779478 
0.36999999999997557, -0.9430049713347806 
0.37999999999997447, -0.9428745090642622 
0.38999999999997337, -0.9425974861446529 
0.39999999999997227, -0.9421591203770385 
0.40999999999997117, -0.9415591950816449 
0.41999999999997006, -0.9408101100053076 
0.42999999999996896, -0.9399320887182551 
0.43999999999996786, -0.9389485708569397 
0.44999999999996676, -0.9378847733736542 
0.45999999999996566, -0.9367696609759106 
0.46999999999996456, -0.9356392206394574 
0.47999999999996346, -0.9345385134293581 
0.48999999999996235, -0.9335206208279357 
0.49999999999996125, -0.9326414795859576 
0.5099999999999602, -0.9319509370701645 
0.519999999999959, -0.9314822064243782 
0.529999999999958, -0.9312433386106636 
0.5399999999999568, -0.9312142889521022 
0.5499999999999557, -0.931351233089136 
0.5599999999999546, -0.9315965473830905 
0.5699999999999535, -0.9318902374561198 
0.5799999999999524, -0.9321786984840333 
0.5899999999999513, -0.9324192556613656 
0.5999999999999502, -0.9325813611027787 
0.6099999999999491, -0.9326457708632427 
0.619999999999948, -0.9326022222978458 
0.6299999999999469, -0.932446008956266 
0.6399999999999458, -0.9321749098307697 
0.6499999999999447, -0.9317884706549776 
0.6599999999999436, -0.9312902118610943 
0.6699999999999425, -0.9306912055156975 
0.6799999999999414, -0.9300129997340469 
0.6899999999999403, -0.9292891570823357 
0.6999999999999392, -0.9285655487111105 
0.7099999999999381, -0.9278988060205693 
0.719999999999937, -0.9273512754805401 
0.7299999999999359, -0.9269815682093568 
0.7399999999999348, -0.9268326725917196 
0.7499999999999337, -0.9269222306093721 
0.7599999999999326, -0.9272392190879477 
0.7699999999999315, -0.9277480797906053 
0.7799999999999304, -0.9283979622220733 
0.7899999999999293, -0.929133184694798 
0.7999999999999282, -0.9299014476333456 
0.8099999999999271, -0.9306579491303509 
0.819999999999926, -0.9313653585002568 
0.8299999999999249, -0.9319910427532193 
0.8399999999999238, -0.9325040599846168 
0.8499999999999227, -0.9328748709995717 
0.8599999999999216, -0.9330792683430159 
0.8699999999999205, -0.9331046487551408 
0.8799999999999194, -0.932954411264304 
0.8899999999999183, -0.9326479577230347 
0.8999999999999172, -0.9322179298611285 
0.9099999999999161, -0.9317084085577623 
0.919999999999915, -0.9311760461067511 
0.9299999999999139, -0.9306923950001037 
0.9399999999999128, -0.9303427004550213 
0.9499999999999117, -0.9302164965961834 
0.9599999999999106, -0.9303899929944788 
0.9699999999999095, -0.9309072159663287 
0.9799999999999084, -0.9317696886738327 
0.9899999999999073, -0.932939338148363 
0.9999999999999062, -0.9343510066347498 
1.0099999999999052, -0.9359267706108115 
1.019999999999904, -0.9375858684020419 
1.029999999999903, -0.9392482619373188 
1.039999999999902, -0.9408339803439084 
1.0499999999999008, -0.9422632424396788 
1.0599999999998997, -0.9434624200194064 
1.0699999999998986, -0.9443764210939587 
1.0799999999998975, -0.9449809910978288 
1.0899999999998964, -0.9452860270772193 
1.0999999999998953, -0.9453275434011571 
1.1099999999998942, -0.9451548281248282 
1.119999999999893, -0.9448215926528084 
1.129999999999892, -0.9443857043383558 
1.1399999999998909, -0.9439169283044239 
1.1499999999998898, -0.943508195286876 
1.1599999999998887, -0.9432822851608315 
1.1699999999998876, -0.943383807560713 
1.1799999999998865, -0.9439513609105609 
1.1899999999998854, -0.9450786667600056 
1.1999999999998843, -0.9467853610696734 
1.2099999999998832, -0.9490131170591642 
1.219999999999882, -0.9516441415417358 
1.229999999999881, -0.9545261895050606 
1.2399999999998799, -0.9574911540431799 
1.2499999999998788, -0.9603659197667778 
1.2599999999998777, -0.9629834524573221 
1.2699999999998766, -0.965202229833977 
1.2799999999998755, -0.9669317173202756 
1.2899999999998744, -0.9681491610002823 
1.2999999999998733, -0.9688940221592646 
1.3099999999998722, -0.9692429321600263 
1.319999999999871, -0.9692815851485099 
1.32999999999987, -0.9690876671510675 
1.3399999999998689, -0.9687287678798067 
1.3499999999998678, -0.9682728532831291 
1.3599999999998666, -0.9678073144775048 
1.3699999999998655, -0.9674603914844203 
1.3799999999998644, -0.9674125222489005 
1.3899999999998633, -0.9678799554669439 
1.3999999999998622, -0.9690622049518064 
1.4099999999998611, -0.9710727447368457 
1.41999999999986, -0.9738934695050225 
1.429999999999859, -0.9773780228526812 
1.4399999999998578, -0.9812915574995253 
1.4499999999998567, -0.985357003033869 
1.4599999999998556, -0.9892916358361324 
1.4699999999998545, -0.9928384152233951 
1.4799999999998534, -0.9958008524193005 
1.4899999999998523, -0.9980756966222261 
1.4999999999998512, -0.9996635725673432 
1.5099999999998501, -1.0006461049848128 
1.519999999999849, -1.0011426933140617 
1.529999999999848, -1.001271830519781 
1.5399999999998468, -1.0011316785523845 
1.5499999999998457, -1.0008000575285716 
1.5599999999998446, -1.0003484251767127 
1.5699999999998435, -0.9998652638894127 
1.5799999999998424, -0.999483201878754 
1.5899999999998413, -0.9993962927796938 
1.5999999999998402, -0.99984471855041 
1.6099999999998391, -1.0010527121591932 
1.619999999999838, -1.0031422747317897 
1.629999999999837, -1.0060774006481927 
1.6399999999998358, -1.0096739313744518 
1.6499999999998347, -1.0136566725851937 
1.6599999999998336, -1.0177211802577975 
1.6699999999998325, -1.0215777417844252 
1.6799999999998314, -1.0249824866533328 
1.6899999999998303, -1.0277660446005454 
1.6999999999998292, -1.0298557936721118 
1.709999999999828, -1.0312760122178668 
1.719999999999827, -1.0321197837436862 
1.729999999999826, -1.0325073905512565 
1.7399999999998248, -1.0325529656123904 
1.7499999999998237, -1.032350420911879 
1.7599999999998226, -1.031977449566796 
1.7699999999998215, -1.031512214668553 
1.7799999999998204, -1.0310569574149908 
1.7899999999998193, -1.0307586335031758 
1.7999999999998182, -1.0308082999515649 
1.809999999999817, -1.0314015658763556 
1.819999999999816, -1.032668411732431 
1.8299999999998149, -1.0346161700956964 
1.8399999999998138, -1.0371267060479465 
1.8499999999998127, -1.0400024007270514 
1.8599999999998116, -1.0430219015019446 
1.8699999999998105, -1.0459768850038098 
1.8799999999998094, -1.0486883777251204 
1.8899999999998083, -1.0510154466307937 
1.8999999999998072, -1.0528657443388085 
1.909999999999806, -1.054205453953371 
1.919999999999805, -1.0550584927497517 
1.9299999999998039, -1.055490263794931 
1.9399999999998028, -1.055583722239598 
1.9499999999998017, -1.0554206987658508 
1.9599999999998006, -1.0550760672605908 
1.9699999999997995, -1.0546246489680917 
1.9799999999997984, -1.054155660962885 
1.9899999999997973, -1.0537849576759581 
1.9999999999997962, -1.0536509302921622 
2.0099999999998173, -1.0538842454912847 
2.0199999999998384, -1.0545620778789462 
2.0299999999998595, -1.0556777174413026 
2.0399999999998806, -1.0571473260356457 
2.0499999999999017, -1.0588441355016855 
2.059999999999923, -1.0606342083227287 
2.069999999999944, -1.062397752484856 
2.079999999999965, -1.0640356653792353 
2.089999999999986, -1.0654685463875349 
2.100000000000007, -1.0666356512052237 
2.1100000000000283, -1.0674975688281774 
2.1200000000000494, -1.0680408931881238 
2.1300000000000705, -1.0682795681118158 
2.1400000000000916, -1.0682497496748962 
2.1500000000001127, -1.068001063388165 
2.160000000000134, -1.0675904816230108 
2.170000000000155, -1.0670826693681332 
2.180000000000176, -1.0665549968943153 
2.190000000000197, -1.0660998936687283 
2.2000000000002182, -1.0658155166887726 
2.2100000000002393, -1.0657826220988345 
2.2200000000002604, -1.0660390819974208 
2.2300000000002815, -1.066569123737243 
2.2400000000003026, -1.0673130190858493 
2.2500000000003237, -1.068188060098216 
2.260000000000345, -1.0691086996670331 
2.270000000000366, -1.0699996096356252 
2.280000000000387, -1.0708009540440866 
2.290000000000408, -1.0714679723623157 
2.3000000000004293, -1.0719680217377556 
2.3100000000004504, -1.0722781094202216 
2.3200000000004715, -1.0723847547565903 
2.3300000000004926, -1.072285921726683 
2.3400000000005137, -1.071992999388036 
2.3500000000005348, -1.0715312099560004 
2.360000000000556, -1.0709390255483944 
2.370000000000577, -1.0702681958975366 
2.380000000000598, -1.0695839390977542 
2.390000000000619, -1.0689616008514171 
2.4000000000006403, -1.068475961590324 
2.4100000000006614, -1.068184623374132 
2.4200000000006825, -1.0681130897900721 
2.4300000000007036, -1.0682489778173214 
2.4400000000007247, -1.0685469190731802 
2.450000000000746, -1.068940940329341 
2.460000000000767, -1.0693593444740443 
2.470000000000788, -1.0697369388640667 
2.480000000000809, -1.070021604081859 
2.49000000000083, -1.0701757737517714 
2.5000000000008513, -1.0701752000701428 
2.5100000000008724, -1.0700067510433762 
2.5200000000008935, -1.069666098084628 
2.5300000000009146, -1.0691561928784314 
2.5400000000009357, -1.0684874010543581 
2.550000000000957, -1.0676792933529622 
2.560000000000978, -1.0667632224293977 
2.570000000000999, -1.0657845323346855 
2.58000000000102, -1.064802840899124 
2.5900000000010412, -1.063888184494936 
2.6000000000010624, -1.0631114714032235 
2.6100000000010835, -1.0625303818600946 
2.6200000000011046, -1.0621747013570324 
2.6300000000011257, -1.0620364902649562 
2.6400000000011468, -1.0620703525564466 
2.650000000001168, -1.0622053737633053 
2.660000000001189, -1.0623629796161258 
2.67000000000121, -1.0624712794166464 
2.680000000001231, -1.0624711899277772 
2.6900000000012523, -1.0623168558098812 
2.7000000000012734, -1.0619752507454003 
2.7100000000012945, -1.0614271495824763 
2.7200000000013156, -1.060668146376798 
2.7300000000013367, -1.0597076984752485 
2.740000000001358, -1.0585664809197948 
2.750000000001379, -1.0572744787708117 
2.7600000000014, -1.0558716690374683 
2.770000000001421, -1.0544107363734252 
2.780000000001442, -1.0529592419169753 
2.7900000000014633, -1.0515979160852809 
2.8000000000014844, -1.0504122140238326 
2.8100000000015055, -1.0494761091724527 
2.8200000000015266, -1.0488310941633414 
2.8300000000015477, -1.0484694156328804 
2.840000000001569, -1.04833322132163 
2.85000000000159, -1.0483327211556435 
2.860000000001611, -1.0483718055321962 
2.870000000001632, -1.0483655518939077 
2.8800000000016532, -1.0482442207520646 
2.8900000000016743, -1.047949396949223 
2.9000000000016954, -1.04743074508735 
2.9100000000017165, -1.046648250980877 
2.9200000000017377, -1.04557916009996 
2.9300000000017588, -1.0442244292145517 
2.94000000000178, -1.0426096965083045 
2.950000000001801, -1.0407808307149442 
2.960000000001822, -1.0387987982598714 
2.970000000001843, -1.0367379788933593 
2.9800000000018643, -1.0346875395403077 
2.9900000000018854, -1.0327514133678195 
3.0000000000019065, -1.0310409859811476 
3.0100000000019276, -1.0296563360952007 
3.0200000000019487, -1.028658318259731 
3.03000000000197, -1.028044316636543 
3.040000000001991, -1.0277454663175547 
3.050000000002012, -1.0276507060956266 
3.060000000002033, -1.027641686674758 
3.070000000002054, -1.0276165975494371 
3.0800000000020753, -1.0274948609801648 
3.0900000000020964, -1.027209586900481 
3.1000000000021175, -1.026698793643963 
3.1100000000021386, -1.0259032292220849 
3.1200000000021597, -1.0247735664364466 
3.130000000002181, -1.0232838258679182 
3.140000000002202, -1.0214427667427306 
3.150000000002223, -1.0192957034191337 
3.160000000002244, -1.016917016586515 
3.1700000000022652, -1.0144007236805124 
3.1800000000022863, -1.0118553555949945 
3.1900000000023074, -1.0094024558666053 
3.2000000000023285, -1.0071722452853522 
3.2100000000023496, -1.0052891028356297 
3.2200000000023707, -1.003844733843864 
3.230000000002392, -1.0028681183199775 
3.240000000002413, -1.002311394646802 
3.250000000002434, -1.0020655090502666 
3.260000000002455, -1.0019974270682812 
3.2700000000024763, -1.001984715639264 
3.2800000000024974, -1.0019305215094072 
3.2900000000025185, -1.0017600195961907 
3.3000000000025396, -1.0014092238164145 
3.3100000000025607, -1.0008163871853257 
3.3200000000025818, -0.9999220135537712 
3.330000000002603, -0.998678843902056 
3.340000000002624, -0.9970672696011726 
3.350000000002645, -0.9951065939739872 
3.360000000002666, -0.992854472332 
3.3700000000026873, -0.9903962344956717 
3.3800000000027084, -0.9878330320077996 
3.3900000000027295, -0.9852754193970041 
3.4000000000027506, -0.9828412058324345 
3.4100000000027717, -0.9806510332616662 
3.420000000002793, -0.9788152349935985 
3.430000000002814, -0.9774109520098888 
3.440000000002835, -0.9764578484006096 
3.450000000002856, -0.9759079157901336 
3.460000000002877, -0.9756597225073337 
3.4700000000028983, -0.9755901822147346 
3.4800000000029194, -0.9755845277997963 
3.4900000000029405, -0.9755504280747971 
3.5000000000029616, -0.9754164124942953 
3.5100000000029827, -0.9751233632633379 
3.520000000003004, -0.9746179309903642 
3.530000000003025, -0.9738530674502817 
3.540000000003046, -0.9727961823544922 
3.550000000003067, -0.9714401171024456 
3.5600000000030882, -0.9698089452336143 
3.5700000000031094, -0.9679539067508325 
3.5800000000031305, -0.9659428482794052 
3.5900000000031516, -0.9638509488812916 
3.6000000000031727, -0.9617571876147192 
3.6100000000031938, -0.9597448118566779 
3.620000000003215, -0.9579007189784937 
3.630000000003236, -0.9563091771225839 
3.640000000003257, -0.9550383797591003 
3.650000000003278, -0.9541231189188946 
3.6600000000032993, -0.9535518128895843 
3.6700000000033204, -0.9532668842666145 
3.6800000000033415, -0.9531804164780248 
3.6900000000033626, -0.9531966490094103 
3.7000000000033837, -0.9532293934105184 
3.710000000003405, -0.9532086459331846 
3.720000000003426, -0.9530790455166006 
3.730000000003447, -0.9527964720531132 
3.740000000003468, -0.9523276406450434 
3.750000000003489, -0.9516535739699261 
3.7600000000035103, -0.950773754098989 
3.7700000000035314, -0.9497063871654199 
3.7800000000035525, -0.9484833326632984 
3.7900000000035736, -0.9471430848557238 
3.8000000000035947, -0.9457265447483264 
3.810000000003616, -0.9442772523629467 
3.820000000003637, -0.9428440591486895 
3.830000000003658, -0.9414828285027692 
3.840000000003679, -0.9402544257850647 
3.8500000000037002, -0.9392178511579512 
3.8600000000037213, -0.9384194218019744 
3.8700000000037424, -0.9378811700467529 
3.8800000000037635, -0.9375932652676721 
3.8900000000037847, -0.9375147448977866 
3.9000000000038058, -0.9375831083235241 
3.910000000003827, -0.9377283179722438 
3.920000000003848, -0.9378848216137954 
3.930000000003869, -0.9379980505642422 
3.94000000000389, -0.9380262494339624 
3.9500000000039113, -0.9379404949821879 
3.9600000000039324, -0.9377245916031243 
3.9700000000039535, -0.9373742814228582 
3.9800000000039746, -0.9368945552762687 
3.9900000000039957, -0.9362955813431284 
4.000000000004016, -0.9355896902667542 
4.010000000003993, -0.9347913922402717 
4.02000000000397, -0.9339200615150423 
4.030000000003946, -0.9330033212614447 
4.040000000003923, -0.9320793027303855 
4.0500000000039, -0.9311965770393156 
4.0600000000038765, -0.9304107244740356 
4.070000000003853, -0.9297769649455867 
4.08000000000383, -0.9293399222875965 
4.090000000003807, -0.9291236660442452 
4.100000000003783, -0.9291258601981127 
4.11000000000376, -0.9293184161175823 
4.120000000003737, -0.9296543646429617 
4.130000000003713, -0.9300781383983605 
4.14000000000369, -0.9305354246346322 
4.150000000003667, -0.9309797947532557 
4.1600000000036434, -0.931375404733117 
4.17000000000362, -0.9316964746074381 
4.180000000003597, -0.9319246046548667 
4.1900000000035735, -0.932045288464364 
4.20000000000355, -0.9320456498047287 
4.210000000003527, -0.9319152261309135 
4.220000000003504, -0.931649605021984 
4.23000000000348, -0.9312544954070713 
4.240000000003457, -0.9307479501738627 
4.250000000003434, -0.9301607349503366 
4.26000000000341, -0.9295363253180533 
4.270000000003387, -0.9289309427068823 
4.280000000003364, -0.9284116674360832 
4.2900000000033405, -0.9280496951198192 
4.300000000003317, -0.9279080635709862 
4.310000000003294, -0.9280276413408266 
4.320000000003271, -0.92841782603751 
4.330000000003247, -0.9290562323398541 
4.340000000003224, -0.9298965421075301 
4.350000000003201, -0.9308800259525063 
4.360000000003177, -0.9319458877118659 
4.370000000003154, -0.933037381153268 
4.380000000003131, -0.9341030160621908 
4.390000000003107, -0.9350943732343797 
4.400000000003084, -0.9359638052454182 
4.410000000003061, -0.9366657833053136 
4.4200000000030375, -0.9371634172925918 
4.430000000003014, -0.9374370769886659 
4.440000000002991, -0.9374892109681394 
4.450000000002968, -0.9373422723184992 
4.460000000002944, -0.937032583447408 
4.470000000002921, -0.9366058111242722 
4.480000000002898, -0.9361175881244426 
4.490000000002874, -0.9356384802243989 
4.500000000002851, -0.9352584786051208 
4.510000000002828, -0.9350839637453581 
4.520000000002804, -0.9352221497063141 
4.530000000002781, -0.9357559846556145 
4.540000000002758, -0.9367214506671697 
4.5500000000027345, -0.9380995997843051 
4.560000000002711, -0.9398255812815322 
4.570000000002688, -0.9418062744404109 
4.580000000002665, -0.9439359445288644 
4.590000000002641, -0.9461045340115677 
4.600000000002618, -0.9482000978389827 
4.610000000002595, -0.9501116731152465 
4.620000000002571, -0.9517390923009948 
4.630000000002548, -0.953010063515299 
4.640000000002525, -0.9538955103719584 
4.6500000000025015, -0.9544117093300615 
4.660000000002478, -0.9546072157904584 
4.670000000002455, -0.9545440880437732 
4.6800000000024315, -0.9542848089934897 
4.690000000002408, -0.9538902258240001 
4.700000000002385, -0.953427886860484 
4.710000000002362, -0.952986863804681 
4.720000000002338, -0.9526917509732028 
4.730000000002315, -0.9527040655855101 
4.740000000002292, -0.9531994104175793 
4.750000000002268, -0.9543214757116998 
4.760000000002245, -0.9561343038303753 
4.770000000002222, -0.958600409151893 
4.7800000000021985, -0.9615933162400487 
4.790000000002175, -0.9649289319064863 
4.800000000002152, -0.968395221870251 
4.810000000002129, -0.9717728342585741 
4.820000000002105, -0.9748535831627938 
4.830000000002082, -0.9774660066909535 
4.840000000002059, -0.9795052865516339 
4.850000000002035, -0.9809504540725362 
4.860000000002012, -0.9818541630013347 
4.870000000001989, -0.9823104318017488 
4.880000000001965, -0.9824205894678496 
4.890000000001942, -0.9822732383372875 
4.900000000001919, -0.9819415320563112 
4.9100000000018955, -0.9814942015772459 
4.920000000001872, -0.9810160911135576 
4.930000000001849, -0.9806327409729224 
