t, s[1].omega / s[0].omega 
0, -0.7799629395420864 
0.009999999999999995, -0.776228527516954 
0.019999999999999934, -0.7725761921186891 
0.029999999999999874, -0.7691716151155632 
0.04000000000000012, -0.7661238951417304 
0.050000000000000405, -0.7634958237723247 
0.06000000000000069, -0.7613168915237206 
0.07000000000000098, -0.759591379173141 
0.08000000000000126, -0.7583014475409451 
0.09000000000000155, -0.7574085490289365 
0.10000000000000184, -0.7568564788585241 
0.11000000000000212, -0.7565774296235575 
0.12000000000000241, -0.7565000392345018 
0.130000000000002, -0.7565570724759142 
0.1400000000000009, -0.7566907151591045 
0.1499999999999998, -0.7568549384878651 
0.1599999999999987, -0.7570157955624724 
0.1699999999999976, -0.7571509123931273 
0.1799999999999965, -0.7572486753923012 
0.1899999999999954, -0.7573063685387865 
0.1999999999999943, -0.757326097602783 
0.2099999999999932, -0.7573087630436638 
0.2199999999999921, -0.757248764152645 
0.229999999999991, -0.7571329652574704 
0.2399999999999899, -0.7569451368671963 
0.2499999999999888, -0.7566732525147287 
0.2599999999999877, -0.7563153181924396 
0.2699999999999866, -0.7558814827798758 
0.2799999999999855, -0.7553936552455264 
0.2899999999999844, -0.7548853995041191 
0.2999999999999833, -0.7544038709488463 
0.3099999999999822, -0.7540135372088851 
0.3199999999999811, -0.7537997161247054 
0.32999999999998, -0.7538691173303688 
0.3399999999999789, -0.7543449770689763 
0.3499999999999778, -0.7553561916393077 
0.35999999999997667, -0.7570222469534328 
0.36999999999997557, -0.759436821823421 
0.37999999999997447, -0.7626513026222262 
0.38999999999997337, -0.7666560756698145 
0.39999999999997227, -0.7713562125958908 
0.40999999999997117, -0.7765443368608511 
0.41999999999997006, -0.7818893506500405 
0.42999999999996896, -0.7869741593832132 
0.43999999999996786, -0.7913987919749598 
0.44999999999996676, -0.7949054073993829 
0.45999999999996566, -0.7974398951481623 
0.46999999999996456, -0.7991126513184436 
0.47999999999996346, -0.8001065554742572 
0.48999999999996235, -0.8005995930303431 
0.49999999999996125, -0.8007278974849299 
0.5099999999999602, -0.8005790966394544 
0.519999999999959, -0.8001988389058343 
0.529999999999958, -0.7996005161940374 
0.5399999999999568, -0.7987762264766144 
0.5499999999999557, -0.7977131161656971 
0.5599999999999546, -0.7964247509167894 
0.5699999999999535, -0.7950117824151842 
0.5799999999999524, -0.7937626997488167 
0.5899999999999513, -0.7932744654569261 
0.5999999999999502, -0.7944920580261282 
0.6099999999999491, -0.7984722209559914 
0.619999999999948, -0.8057649832594116 
0.6299999999999469, -0.8157720526934653 
0.6399999999999458, -0.8268211798107774 
0.6499999999999447, -0.837073996895431 
0.6599999999999436, -0.8453927306873703 
0.6699999999999425, -0.8515068360403601 
0.6799999999999414, -0.8556922277108437 
0.6899999999999403, -0.8584089240798818 
0.6999999999999392, -0.8600887059398017 
0.7099999999999381, -0.861059540274473 
0.719999999999937, -0.8615415530246067 
0.7299999999999359, -0.8616661942654694 
0.7399999999999348, -0.861494987158129 
0.7499999999999337, -0.861028987233986 
0.7599999999999326, -0.860205691428454 
0.7699999999999315, -0.858881111016969 
0.7799999999999304, -0.8567954109567764 
0.7899999999999293, -0.8535271186740545 
0.7999999999999282, -0.8484645457436004 
0.8099999999999271, -0.8408729928666402 
0.819999999999926, -0.830177081865866 
0.8299999999999249, -0.8164691131367124 
0.8399999999999238, -0.8009034318509929 
0.8499999999999227, -0.7854485820239884 
0.8599999999999216, -0.7720181501679149 
0.8699999999999205, -0.7617013005899703 
0.8799999999999194, -0.7546175673036271 
0.8899999999999183, -0.7502451693513641 
0.8999999999999172, -0.7478323418361865 
0.9099999999999161, -0.7466743938407141 
0.919999999999915, -0.7462318670953535 
0.9299999999999139, -0.7461429838989334 
0.9399999999999128, -0.746187641459334 
0.9499999999999117, -0.7462405221249077 
0.9599999999999106, -0.7462309691133815 
0.9699999999999095, -0.7461144241845604 
0.9799999999999084, -0.7458545306830255 
0.9899999999999073, -0.7454140873282913 
0.9999999999999062, -0.744754276861282 
1.0099999999999052, -0.7438424443584212 
1.019999999999904, -0.742666589903643 
1.029999999999903, -0.7412492057626049 
1.039999999999902, -0.739649483745148 
1.0499999999999008, -0.7379489970811026 
1.0599999999998997, -0.7362289792457081 
1.0699999999998986, -0.7345532605288493 
1.0799999999998975, -0.7329640318174382 
1.0899999999998964, -0.7314875098834592 
1.0999999999998953, -0.7301426071922859 
1.1099999999998942, -0.7289475678825111 
1.119999999999893, -0.7279228054445362 
1.129999999999892, -0.7270902912400342 
1.1399999999998909, -0.7264706655605009 
1.1499999999998898, -0.7260794693325499 
1.1599999999998887, -0.7259239080754403 
1.1699999999998876, -0.7260013117816988 
1.1799999999998865, -0.7262998500570547 
1.1899999999998854, -0.7268012419580439 
1.1999999999998843, -0.727484481197874 
1.2099999999998832, -0.7283292085915389 
1.219999999999882, -0.7293172831827505 
1.229999999999881, -0.7304312227053136 
1.2399999999998799, -0.7316487108991934 
1.2499999999998788, -0.7329339773705289 
1.2599999999998777, -0.7342299380313159 
1.2699999999998766, -0.735457985169846 
1.2799999999998755, -0.7365309644971172 
1.2899999999998744, -0.7373761801995581 
1.2999999999998733, -0.7379552139215507 
1.3099999999998722, -0.7382681573925535 
1.319999999999871, -0.7383424283750847 
1.32999999999987, -0.7382166060705595 
1.3399999999998689, -0.7379290079300219 
1.3499999999998678, -0.7375146532805161 
1.3599999999998666, -0.7370105151172472 
1.3699999999998655, -0.7364690451722328 
1.3799999999998644, -0.7359816929215642 
1.3899999999998633, -0.7357150454137702 
1.3999999999998622, -0.7359597669869988 
1.4099999999998611, -0.7371834621918064 
1.41999999999986, -0.7400596316259362 
1.429999999999859, -0.7454165805328601 
1.4399999999998578, -0.7540274059125893 
1.4499999999998567, -0.7661951519378928 
1.4599999999998556, -0.7812612193776609 
1.4699999999998545, -0.7974545207988644 
1.4799999999998534, -0.8124960741076144 
1.4899999999998523, -0.8246728929050636 
1.4999999999998512, -0.8334570728317365 
1.5099999999998501, -0.8392706287144319 
1.519999999999849, -0.842892573791248 
1.529999999999848, -0.8450442731375288 
1.5399999999998468, -0.846249302347758 
1.5499999999998457, -0.8468425006494359 
1.5599999999998446, -0.8470191551750563 
1.5699999999998435, -0.846877920362752 
1.5799999999998424, -0.8464463973037282 
1.5899999999998413, -0.845689614069968 
1.5999999999998402, -0.8445027551491371 
1.6099999999998391, -0.8426882148758835 
1.619999999999838, -0.8399179146399025 
1.629999999999837, -0.8356909726887194 
1.6399999999998358, -0.8293254245836467 
1.6499999999998347, -0.8200790143850567 
1.6599999999998336, -0.8075335191404818 
1.6699999999998325, -0.7922194523909851 
1.6799999999998314, -0.775973066937009 
1.6899999999998303, -0.7613191300568241 
1.6999999999998292, -0.7501446258455327 
1.709999999999828, -0.7429132545266367 
1.719999999999827, -0.7389529366954696 
1.729999999999826, -0.7371890144796793 
1.7399999999998248, -0.7366666128537404 
1.7499999999998237, -0.7367291504961491 
1.7599999999998226, -0.7369935117075062 
1.7699999999998215, -0.7372628193951527 
1.7799999999998204, -0.7374459767417211 
1.7899999999998193, -0.7375022723085989 
1.7999999999998182, -0.7374080375364387 
1.809999999999817, -0.7371377624295694 
1.819999999999816, -0.7366540035924316 
1.8299999999998149, -0.7359041850805292 
1.8399999999998138, -0.7348261319766989 
1.8499999999998127, -0.7333656204874255 
1.8599999999998116, -0.7315044562376605 
1.8699999999998105, -0.7292859251772856 
1.8799999999998094, -0.7268172397279168 
1.8899999999998083, -0.7242414898877194 
1.8999999999998072, -0.7216966158682246 
1.909999999999806, -0.7192870378685006 
1.919999999999805, -0.717077922273327 
1.9299999999998039, -0.7151046140619388 
1.9399999999998028, -0.7133854664604231 
1.9499999999998017, -0.7119309986627416 
1.9599999999998006, -0.7107477431218769 
1.9699999999997995, -0.7098380831872019 
1.9799999999997984, -0.7091982428566697 
1.9899999999997973, -0.7088164164903759 
1.9999999999997962, -0.7086723872595001 
2.0099999999998173, -0.7087391155142506 
2.0199999999998384, -0.7089859207813485 
2.0299999999998595, -0.7093823260451946 
2.0399999999998806, -0.7099015261417377 
2.0499999999999017, -0.7105226225552641 
2.059999999999923, -0.7112308950767383 
2.069999999999944, -0.712015339663506 
2.079999999999965, -0.7128629491471858 
2.089999999999986, -0.7137505771708936 
2.100000000000007, -0.7146378748725346 
2.1100000000000283, -0.7154669696887463 
2.1200000000000494, -0.7161727977677733 
2.1300000000000705, -0.7167008502876788 
2.1400000000000916, -0.7170220058337196 
2.1500000000001127, -0.7171356612862465 
2.160000000000134, -0.717061844847272 
2.170000000000155, -0.7168301078125647 
2.180000000000176, -0.7164723492612005 
2.190000000000197, -0.7160225702454014 
2.2000000000002182, -0.7155240617153656 
2.2100000000002393, -0.7150445664482007 
2.2200000000002604, -0.7147008178973453 
2.2300000000002815, -0.7146934948846316 
2.2400000000003026, -0.7153499505655749 
2.2500000000003237, -0.7171627704832076 
2.260000000000345, -0.720795434246646 
2.270000000000366, -0.7270036915798342 
2.280000000000387, -0.7364076364971373 
2.290000000000408, -0.7490934963166699 
2.3000000000004293, -0.7642005218487287 
2.3100000000004504, -0.7798979381091841 
2.3200000000004715, -0.7940637449367519 
2.3300000000004926, -0.8052695892128817 
2.3400000000005137, -0.8132196456285323 
2.3500000000005348, -0.818425026344608 
2.360000000000556, -0.82164633947941 
2.370000000000577, -0.8235480861694091 
2.380000000000598, -0.8245996853818 
2.390000000000619, -0.8250965564213871 
2.4000000000006403, -0.8252079319315259 
2.4100000000006614, -0.8250151031463938 
2.4200000000006825, -0.8245325288257386 
2.4300000000007036, -0.8237124117402976 
2.4400000000007247, -0.8224333676294389 
2.450000000000746, -0.8204722575376822 
2.460000000000767, -0.8174596111001969 
2.470000000000788, -0.8128311671487303 
2.480000000000809, -0.8058255755485171 
2.49000000000083, -0.7956475073733544 
2.5000000000008513, -0.7819391021771407 
2.5100000000008724, -0.7654488160571418 
2.5200000000008935, -0.7482430543405549 
2.5300000000009146, -0.7328640112016507 
2.5400000000009357, -0.7210313199766298 
2.550000000000957, -0.7130873112506558 
2.560000000000978, -0.7083839443314366 
2.570000000000999, -0.7059394465551186 
2.58000000000102, -0.704869672905197 
2.5900000000010412, -0.7045382312772607 
2.6000000000010624, -0.7045456891212033 
2.6100000000010835, -0.7046646263356826 
2.6200000000011046, -0.7047742282049776 
2.6300000000011257, -0.7048115352395394 
2.6400000000011468, -0.7047398480106041 
2.650000000001168, -0.704529994716421 
2.660000000001189, -0.7041506638493751 
2.67000000000121, -0.7035662420159897 
2.680000000001231, -0.7027424973596313 
2.6900000000012523, -0.7016598677726225 
2.7000000000012734, -0.7003294785976958 
2.7100000000012945, -0.6988012350343139 
2.7200000000013156, -0.6971549104862916 
2.7300000000013367, -0.6954773892770301 
2.740000000001358, -0.6938403812678738 
2.750000000001379, -0.6922905117223384 
2.7600000000014, -0.6908524972308062 
2.770000000001421, -0.689538687694772 
2.780000000001442, -0.6883583236869493 
2.7900000000014633, -0.6873233357565312 
2.8000000000014844, -0.6864504144318374 
2.8100000000015055, -0.6857603023169817 
2.8200000000015266, -0.6852754176934128 
2.8300000000015477, -0.685016815495459 
2.840000000001569, -0.6850014342913107 
2.85000000000159, -0.6852404583817489 
2.860000000001611, -0.6857392710683355 
2.870000000001632, -0.6864988831145571 
2.8800000000016532, -0.687518031131926 
2.8900000000016743, -0.6887944958552586 
2.9000000000016954, -0.6903236861236974 
2.9100000000017165, -0.6920924388480783 
2.9200000000017377, -0.6940671101094398 
2.9300000000017588, -0.6961786659024588 
2.94000000000178, -0.6983137264437109 
2.950000000001801, -0.70032468913823 
2.960000000001822, -0.7020644681093854 
2.970000000001843, -0.7034305148212074 
2.9800000000018643, -0.7043894386029951 
2.9900000000018854, -0.7049682928211506 
3.0000000000019065, -0.7052254371012622 
3.0100000000019276, -0.7052224737783559 
3.0200000000019487, -0.7050081207485226 
3.03000000000197, -0.7046133805774352 
3.040000000001991, -0.704053837426361 
3.050000000002012, -0.7033368427481586 
3.060000000002033, -0.7024748574279164 
3.070000000002054, -0.7015096448446216 
3.0800000000020753, -0.7005541047864786 
3.0900000000020964, -0.6998550998222277 
3.1000000000021175, -0.6998611142977212 
3.1100000000021386, -0.7012295064658793 
3.1200000000021597, -0.7046468912642144 
3.130000000002181, -0.7103882694492633 
3.140000000002202, -0.7178809677038405 
3.150000000002223, -0.725858261093562 
3.160000000002244, -0.7331310310180329 
3.1700000000022652, -0.739125586089745 
3.1800000000022863, -0.7437783059342079 
3.1900000000023074, -0.7472397713080323 
3.2000000000023285, -0.7497175267340879 
3.2100000000023496, -0.7514215756009845 
3.2200000000023707, -0.7525384351362396 
3.230000000002392, -0.7532165623058142 
3.240000000002413, -0.7535618851480852 
3.250000000002434, -0.7536394308417457 
3.260000000002455, -0.7534759952326568 
3.2700000000024763, -0.7530602883727449 
3.2800000000024974, -0.752338949732304 
3.2900000000025185, -0.7512093164835031 
3.3000000000025396, -0.7495145855013734 
3.3100000000025607, -0.7470553956426867 
3.3200000000025818, -0.743639069196411 
3.330000000002603, -0.7391754924202438 
3.340000000002624, -0.7337799680411327 
3.350000000002645, -0.7277964889415185 
3.360000000002666, -0.7216966076500928 
3.3700000000026873, -0.7159223359798615 
3.3800000000027084, -0.7107808249007588 
3.3900000000027295, -0.7064265987274169 
3.4000000000027506, -0.7028960972579144 
3.4100000000027717, -0.7001511932299397 
3.420000000002793, -0.6981117497103794 
3.430000000002814, -0.6966758949783661 
3.440000000002835, -0.6957329067328696 
3.450000000002856, -0.695172751451116 
3.460000000002877, -0.6948937146552855 
3.4700000000028983, -0.6948078144738564 
3.4800000000029194, -0.6948434401346704 
3.4900000000029405, -0.6949453797411624 
3.5000000000029616, -0.6950732316711433 
3.5100000000029827, -0.6951995050460122 
3.520000000003004, -0.6953082747064792 
3.530000000003025, -0.6953941658214688 
3.540000000003046, -0.6954602709934178 
3.550000000003067, -0.6955134751299147 
3.5600000000030882, -0.6955574196121858 
3.5700000000031094, -0.6955860549427478 
3.5800000000031305, -0.6955818657707888 
3.5900000000031516, -0.6955206577620958 
3.6000000000031727, -0.6953804688528232 
3.6100000000031938, -0.6951494101098463 
3.620000000003215, -0.6948287946508643 
3.630000000003236, -0.6944321397750588 
3.640000000003257, -0.6939834305702529 
3.650000000003278, -0.6935178066416164 
3.6600000000032993, -0.6930861241703955 
3.6700000000033204, -0.6927633205960717 
3.6800000000033415, -0.6926594229384971 
3.6900000000033626, -0.6929309575578478 
3.7000000000033837, -0.6937892471605199 
3.710000000003405, -0.6955007964108859 
3.720000000003426, -0.6983736453380459 
3.730000000003447, -0.7027214851285918 
3.740000000003468, -0.708794259744448 
3.750000000003489, -0.7166649121714808 
3.7600000000035103, -0.7260833348777532 
3.7700000000035314, -0.7363696227785327 
3.7800000000035525, -0.7464868893639792 
3.7900000000035736, -0.7553733747279501 
3.8000000000035947, -0.7623591203213114 
3.810000000003616, -0.7673404185285051 
3.820000000003637, -0.7706227322156635 
3.830000000003658, -0.7726475366095706 
3.840000000003679, -0.7738082729636233 
3.8500000000037002, -0.7743882879587181 
3.8600000000037213, -0.7745659266141361 
3.8700000000037424, -0.7744377756748737 
3.8800000000037635, -0.7740376557509465 
3.8900000000037847, -0.7733448321421269 
3.9000000000038058, -0.7722800882752134 
3.910000000003827, -0.7706885909747866 
3.920000000003848, -0.7683080749534896 
3.930000000003869, -0.7647241648636443 
3.94000000000389, -0.7593308781219201 
3.9500000000039113, -0.7513604426507532 
3.9600000000039324, -0.7401216455169395 
3.9700000000039535, -0.7255654088375754 
3.9800000000039746, -0.7089052149826993 
3.9900000000039957, -0.6924879675551829 
4.000000000004016, -0.6786282486672609 
4.010000000003993, -0.6684745040154033 
4.02000000000397, -0.6618946328517312 
4.030000000003946, -0.658072081892332 
4.040000000003923, -0.6560857162901644 
4.0500000000039, -0.655193063130816 
4.0600000000038765, -0.6548874626037694 
4.070000000003853, -0.6548571114802382 
4.08000000000383, -0.6549232435105172 
4.090000000003807, -0.6549876640451906 
4.100000000003783, -0.6549960104797254 
4.11000000000376, -0.6549145701780915 
4.120000000003737, -0.6547170338968746 
4.130000000003713, -0.6543786974349723 
4.14000000000369, -0.6538771326090987 
4.150000000003667, -0.6531986926233434 
4.1600000000036434, -0.652348189843738 
4.17000000000362, -0.6513555045828946 
4.180000000003597, -0.6502722095010246 
4.1900000000035735, -0.649157452287278 
4.20000000000355, -0.6480610048384571 
4.210000000003527, -0.6470132702009124 
4.220000000003504, -0.6460257798927186 
4.23000000000348, -0.645098770451505 
4.240000000003457, -0.6442302483528091 
4.250000000003434, -0.6434228340980133 
4.26000000000341, -0.6426875496424984 
4.270000000003387, -0.6420454541899787 
4.280000000003364, -0.6415282520284733 
4.2900000000033405, -0.641178424134282 
4.300000000003317, -0.6410489013570522 
4.310000000003294, -0.6412021631814241 
4.320000000003271, -0.6417088310375214 
4.330000000003247, -0.6426460105689038 
4.340000000003224, -0.6440954294526391 
4.350000000003201, -0.6461404718708075 
4.360000000003177, -0.648859372577675 
4.370000000003154, -0.6523094560426618 
4.380000000003131, -0.6564961563695195 
4.390000000003107, -0.661325365759373 
4.400000000003084, -0.6665553351020803 
4.410000000003061, -0.6717919701339522 
4.4200000000030375, -0.6765744555624401 
4.430000000003014, -0.6805324332321663 
4.440000000002991, -0.6835080019909257 
4.450000000002968, -0.685554826400229 
4.460000000002944, -0.6868440259082786 
4.470000000002921, -0.6875656825040084 
4.480000000002898, -0.687874063584855 
4.490000000002874, -0.687871855261469 
4.500000000002851, -0.6876123113469597 
4.510000000002828, -0.687103939947683 
4.520000000002804, -0.6863101694705019 
4.530000000002781, -0.6851401047587807 
4.540000000002758, -0.6834267822884613 
4.5500000000027345, -0.6808886951738743 
4.560000000002711, -0.6770739471558261 
4.570000000002688, -0.6713086869613882 
4.580000000002665, -0.6627393460089838 
4.590000000002641, -0.6506571389034859 
4.600000000002618, -0.6351978753849166 
4.610000000002595, -0.617911065545653 
4.620000000002571, -0.6012823552149148 
4.630000000002548, -0.587386232731542 
4.640000000002525, -0.5770332705258743 
4.6500000000025015, -0.5699595064751731 
4.660000000002478, -0.5654299243002261 
4.670000000002455, -0.5626788333287228 
4.6800000000024315, -0.561090584861834 
4.690000000002408, -0.5602265207303001 
4.700000000002385, -0.5597942483853374 
4.710000000002362, -0.5596065701081084 
4.720000000002338, -0.5595465425464451 
4.730000000002315, -0.5595419363606613 
4.740000000002292, -0.559548089492786 
4.750000000002268, -0.5595373772280919 
4.760000000002245, -0.5594937977452107 
4.770000000002222, -0.5594113895688463 
4.7800000000021985, -0.5592948168072767 
4.790000000002175, -0.5591595733313567 
4.800000000002152, -0.5590289414356228 
4.810000000002129, -0.5589264695326819 
4.820000000002105, -0.558866044835869 
4.830000000002082, -0.5588442185080396 
4.840000000002059, -0.5588391548253255 
4.850000000002035, -0.5588174000686084 
4.860000000002012, -0.5587452314269085 
4.870000000001989, -0.558598599531717 
4.880000000001965, -0.558367238557113 
4.890000000001942, -0.5580531122680621 
4.900000000001919, -0.5576667199520321 
4.9100000000018955, -0.5572249075558803 
4.920000000001872, -0.5567523656153733 
