t, s[1].omega / s[0].omega 
0, -1.2599725421567114 
0.009999999999999995, -1.2568864539037636 
0.019999999999999934, -1.2531640619366842 
0.029999999999999874, -1.2489525766522818 
0.04000000000000012, -1.244558165406035 
0.050000000000000405, -1.2404595306796216 
0.06000000000000069, -1.237200716819245 
0.07000000000000098, -1.23513238831663 
0.08000000000000126, -1.2341936086336136 
0.09000000000000155, -1.233989918610878 
0.10000000000000184, -1.2340798196558314 
0.11000000000000212, -1.234163702505404 
0.12000000000000241, -1.2340853363496653 
0.130000000000002, -1.233752299828807 
0.1400000000000009, -1.233057379014117 
0.1499999999999998, -1.2318100894398434 
0.1599999999999987, -1.2296595323513118 
0.1699999999999976, -1.2259999360146747 
0.1799999999999965, -1.219903205633581 
0.1899999999999954, -1.2102516474071179 
0.1999999999999943, -1.1963973193084254 
0.2099999999999932, -1.1794342338195698 
0.2199999999999921, -1.162959275653034 
0.229999999999991, -1.1513609449307052 
0.2399999999999899, -1.146453365448985 
0.2499999999999888, -1.1465379869289887 
0.2599999999999877, -1.1487132770720885 
0.2699999999999866, -1.1510161372064183 
0.2799999999999855, -1.1527149632728602 
0.2899999999999844, -1.1537437122223886 
0.2999999999999833, -1.1542346260287382 
0.3099999999999822, -1.1543155700941417 
0.3199999999999811, -1.1540526830075741 
0.32999999999998, -1.1534399542161589 
0.3399999999999789, -1.1523955468645346 
0.3499999999999778, -1.150762653229095 
0.35999999999997667, -1.1483508146213384 
0.36999999999997557, -1.1451167373305 
0.37999999999997447, -1.1416297083540994 
0.38999999999997337, -1.1397321058475647 
0.39999999999997227, -1.1424768260613924 
0.40999999999997117, -1.152085919660684 
0.41999999999997006, -1.1672405394611522 
0.42999999999996896, -1.183544624411001 
0.43999999999996786, -1.197047810416683 
0.44999999999996676, -1.2063793510608323 
0.45999999999996566, -1.212098740359311 
0.46999999999996456, -1.2153279924440494 
0.47999999999996346, -1.217016056603322 
0.48999999999996235, -1.217783235386463 
0.49999999999996125, -1.2179872757752985 
0.5099999999999602, -1.2178193698589204 
0.519999999999959, -1.2173807581491292 
0.529999999999958, -1.2167486856751786 
0.5399999999999568, -1.216055870871143 
0.5499999999999557, -1.2155904591840048 
0.5599999999999546, -1.2158497448369296 
0.5699999999999535, -1.2173970689881686 
0.5799999999999524, -1.2205010946102681 
0.5899999999999513, -1.2248850545242436 
0.5999999999999502, -1.22988124814966 
0.6099999999999491, -1.2347945120777728 
0.619999999999948, -1.2391331583267022 
0.6299999999999469, -1.2426444809114423 
0.6399999999999458, -1.2452623623929893 
0.6499999999999447, -1.2470445442214666 
0.6599999999999436, -1.248118016942668 
0.6699999999999425, -1.2486330919399204 
0.6799999999999414, -1.248730757129074 
0.6899999999999403, -1.248528740711393 
0.6999999999999392, -1.2481260018244478 
0.7099999999999381, -1.2476191727324106 
0.719999999999937, -1.2471183248975026 
0.7299999999999359, -1.2467439596864076 
0.7399999999999348, -1.246595721223874 
0.7499999999999337, -1.246713306799095 
0.7599999999999326, -1.247065314505686 
0.7699999999999315, -1.2475715416611337 
0.7799999999999304, -1.2481338842759793 
0.7899999999999293, -1.2486585710932587 
0.7999999999999282, -1.2490681528706205 
0.8099999999999271, -1.249305088420337 
0.819999999999926, -1.2493297181658858 
0.8299999999999249, -1.2491166553117783 
0.8399999999999238, -1.2486521899356327 
0.8499999999999227, -1.2479331649978438 
0.8599999999999216, -1.2469673305236966 
0.8699999999999205, -1.2457757333503978 
0.8799999999999194, -1.2443976883353334 
0.8899999999999183, -1.2428977014132163 
0.8999999999999172, -1.2413715984837586 
0.9099999999999161, -1.2399460565082052 
0.919999999999915, -1.2387610712065127 
0.9299999999999139, -1.2379255030838576 
0.9399999999999128, -1.237460555492106 
0.9499999999999117, -1.2372803768990213 
0.9599999999999106, -1.2372360391848902 
0.9699999999999095, -1.2371792574440585 
0.9799999999999084, -1.2369904237646179 
0.9899999999999073, -1.2365651030331621 
0.9999999999999062, -1.235782914528443 
1.0099999999999052, -1.2344782065479785 
1.019999999999904, -1.2324245270535237 
1.029999999999903, -1.2293467232211268 
1.039999999999902, -1.2249763812956407 
1.0499999999999008, -1.2191571088085602 
1.0599999999998997, -1.211987264441076 
1.0699999999998986, -1.2039628801577527 
1.0799999999998975, -1.1960298903987312 
1.0899999999998964, -1.1893790915256994 
1.0999999999998953, -1.18490970856041 
1.1099999999998942, -1.182712627314389 
1.119999999999893, -1.1821286580042893 
1.129999999999892, -1.1823084834176918 
1.1399999999998909, -1.1826538512930478 
1.1499999999998898, -1.1828773468422438 
1.1599999999998887, -1.1828732307287768 
1.1699999999998876, -1.1825913867174571 
1.1799999999998865, -1.1819579071642257 
1.1899999999998854, -1.1808179376570223 
1.1999999999998843, -1.1788715062636568 
1.2099999999998832, -1.1755897670100606 
1.219999999999882, -1.1701449011122926 
1.229999999999881, -1.1615037246987827 
1.2399999999998799, -1.1490024063426605 
1.2499999999998788, -1.1335628909466684 
1.2599999999998777, -1.1185647518089088 
1.2699999999998766, -1.1083473328765403 
1.2799999999998755, -1.1048345059200497 
1.2899999999998744, -1.1063475282952544 
1.2999999999998733, -1.1098340779129003 
1.3099999999998722, -1.1131789398342455 
1.319999999999871, -1.1156167152683079 
1.32999999999987, -1.1171379139957767 
1.3399999999998689, -1.1179563670162487 
1.3499999999998678, -1.118272391409157 
1.3599999999998666, -1.1182104178539194 
1.3699999999998655, -1.1178159015757128 
1.3799999999998644, -1.1170606266483765 
1.3899999999998633, -1.1158445915528707 
1.3999999999998622, -1.1140080252525855 
1.4099999999998611, -1.1114035161828875 
1.41999999999986, -1.1081335380931805 
1.429999999999859, -1.105049108184491 
1.4399999999998578, -1.1042571946279731 
1.4499999999998567, -1.108639774465255 
1.4599999999998556, -1.1196365663276693 
1.4699999999998545, -1.1352019507711397 
1.4799999999998534, -1.1510019983228506 
1.4899999999998523, -1.1636711293531434 
1.4999999999998512, -1.1722877930649211 
1.5099999999998501, -1.1775388329548404 
1.519999999999849, -1.1805021634637647 
1.529999999999848, -1.182050693905073 
1.5399999999998468, -1.1827472059315798 
1.5499999999998457, -1.1829142437873037 
1.5599999999998446, -1.182721786494728 
1.5699999999998435, -1.1822551721130388 
1.5799999999998424, -1.1815738049599307 
1.5899999999998413, -1.1807869800822588 
1.5999999999998402, -1.1801660206503435 
1.6099999999998391, -1.1802493039865865 
1.619999999999838, -1.1817752537440163 
1.629999999999837, -1.1852997422353488 
1.6399999999998358, -1.1907393075080104 
1.6499999999998347, -1.1973384367582947 
1.6599999999998336, -1.2040934736806777 
1.6699999999998325, -1.2101848910003103 
1.6799999999998314, -1.2151485375600815 
1.6899999999998303, -1.218847517559396 
1.6999999999998292, -1.2213716812336162 
1.709999999999828, -1.2229290537209354 
1.719999999999827, -1.2237557577267657 
1.729999999999826, -1.2240595936673313 
1.7399999999998248, -1.2239999848673926 
1.7499999999998237, -1.2236955231407909 
1.7599999999998226, -1.2232475019949096 
1.7699999999998215, -1.222768046397229 
1.7799999999998204, -1.2223956287195175 
1.7899999999998193, -1.2222755269245078 
1.7999999999998182, -1.2225043832913194 
1.809999999999817, -1.2230829907145284 
1.819999999999816, -1.2239229915992482 
1.8299999999998149, -1.2248949256873911 
1.8399999999998138, -1.2258732301855608 
1.8499999999998127, -1.2267580081213714 
1.8599999999998116, -1.2274790499618127 
1.8699999999998105, -1.227991630183654 
1.8799999999998094, -1.2282701792101696 
1.8899999999998083, -1.2283031512161036 
1.8999999999998072, -1.228090278070644 
1.909999999999806, -1.2276419195127808 
1.919999999999805, -1.2269797910182443 
1.9299999999998039, -1.226138834724146 
1.9399999999998028, -1.225170137875144 
1.9499999999998017, -1.2241432053207109 
1.9599999999998006, -1.2231438159829635 
1.9699999999997995, -1.222264385091441 
1.9799999999997984, -1.2215863668218576 
1.9899999999997973, -1.2211559124402769 
1.9999999999997962, -1.2209609877945597 
2.0099999999998173, -1.2209289500235 
2.0199999999998384, -1.220952691977121 
2.0299999999998595, -1.220924087345097 
2.0399999999998806, -1.2207489418448674 
2.0499999999999017, -1.2203411628599399 
2.059999999999923, -1.219610357157185 
2.069999999999944, -1.2184562662114178 
2.079999999999965, -1.2167764141314095 
2.089999999999986, -1.2144860137140319 
2.100000000000007, -1.2115434880032294 
2.1100000000000283, -1.20797551635718 
2.1200000000000494, -1.2039026119156218 
2.1300000000000705, -1.1995681592520582 
2.1400000000000916, -1.1953550844481835 
2.1500000000001127, -1.1917382694613072 
2.160000000000134, -1.1891222555982734 
2.170000000000155, -1.187629943467292 
2.180000000000176, -1.1870410375143805 
2.190000000000197, -1.186961042731231 
2.2000000000002182, -1.1870398136495488 
2.2100000000002393, -1.1870591382199154 
2.2200000000002604, -1.1868997874169747 
2.2300000000002815, -1.1864730833084711 
2.2400000000003026, -1.1856586864896272 
2.2500000000003237, -1.18424709556958 
2.260000000000345, -1.1818760206007553 
2.270000000000366, -1.1779677269996947 
2.280000000000387, -1.1717239109470807 
2.290000000000408, -1.162312971881598 
2.3000000000004293, -1.1494042938564457 
2.3100000000004504, -1.133944995837828 
2.3200000000004715, -1.1184802356554742 
2.3300000000004926, -1.1061502527809925 
2.3400000000005137, -1.0987775045520096 
2.3500000000005348, -1.095926816551066 
2.360000000000556, -1.0958139921910701 
2.370000000000577, -1.0967468235869997 
2.380000000000598, -1.0977598847773686 
2.390000000000619, -1.098491599916858 
2.4000000000006403, -1.0988767912157573 
2.4100000000006614, -1.0989388833170954 
2.4200000000006825, -1.0986935243367866 
2.4300000000007036, -1.0981068766506779 
2.4400000000007247, -1.0970660368765812 
2.450000000000746, -1.0953395821279324 
2.460000000000767, -1.0925231067509042 
2.470000000000788, -1.0879961534869216 
2.480000000000809, -1.0809926252750433 
2.49000000000083, -1.0709948920849908 
2.5000000000008513, -1.0585825710810732 
2.5100000000008724, -1.0461716913376191 
2.5200000000008935, -1.0372509048742358 
2.5300000000009146, -1.0339452067683987 
2.5400000000009357, -1.0354832773364386 
2.550000000000957, -1.0393569015880328 
2.560000000000978, -1.0433812921518346 
2.570000000000999, -1.046533395692221 
2.58000000000102, -1.0486512995570856 
2.5900000000010412, -1.0499211919940885 
2.6000000000010624, -1.0505762313295786 
2.6100000000010835, -1.0507899417072313 
2.6200000000011046, -1.0506579936045175 
2.6300000000011257, -1.0502026729923368 
2.6400000000011468, -1.049373711701492 
2.650000000001168, -1.04803874087364 
2.660000000001189, -1.045969220230647 
2.67000000000121, -1.0428497942443564 
2.680000000001231, -1.0383842777006849 
2.6900000000012523, -1.0326171264429695 
2.7000000000012734, -1.026487101732084 
2.7100000000012945, -1.022151005342308 
2.7200000000013156, -1.022140096737796 
2.7300000000013367, -1.0273727106127855 
2.740000000001358, -1.0361153189830792 
2.750000000001379, -1.0453754371795392 
2.7600000000014, -1.053003226996125 
2.770000000001421, -1.0583605707045587 
2.780000000001442, -1.0617510095444183 
2.7900000000014633, -1.0637355490908744 
2.8000000000014844, -1.0647949882193903 
2.8100000000015055, -1.0652521341143502 
2.8200000000015266, -1.0652928323576387 
2.8300000000015477, -1.0650018917787583 
2.840000000001569, -1.0643883191494883 
2.85000000000159, -1.0633997765648227 
2.860000000001611, -1.0619401674155893 
2.870000000001632, -1.059924745004256 
2.8800000000016532, -1.0574398120830752 
2.8900000000016743, -1.0550784949926275 
2.9000000000016954, -1.054353907234151 
2.9100000000017165, -1.0576276925708619 
2.9200000000017377, -1.0668005828795817 
2.9300000000017588, -1.0813225531503579 
2.94000000000178, -1.0978804170363896 
2.950000000001801, -1.1126601275780499 
2.960000000001822, -1.1236413465997357 
2.970000000001843, -1.1308069835674284 
2.9800000000018643, -1.135085975595432 
2.9900000000018854, -1.137472134141518 
3.0000000000019065, -1.1386945863758466 
3.0100000000019276, -1.1392059869202142 
3.0200000000019487, -1.1392605348236686 
3.03000000000197, -1.1389883865984234 
3.040000000001991, -1.1384511841706624 
3.050000000002012, -1.137693525108979 
3.060000000002033, -1.1368175614933465 
3.070000000002054, -1.1361043578655425 
3.0800000000020753, -1.1361491239583716 
3.0900000000020964, -1.137842923348377 
3.1000000000021175, -1.1419897291358667 
3.1100000000021386, -1.1487037519842906 
3.1200000000021597, -1.1571731340013287 
3.130000000002181, -1.1660679503269578 
3.140000000002202, -1.1741699712794358 
3.150000000002223, -1.1807441467170645 
3.160000000002244, -1.1855760344598605 
3.1700000000022652, -1.188821505578545 
3.1800000000022863, -1.1908107076931782 
3.1900000000023074, -1.1918927351793585 
3.2000000000023285, -1.1923534991227567 
3.2100000000023496, -1.1923963240755069 
3.2200000000023707, -1.1921584751702776 
3.230000000002392, -1.1917434434274385 
3.240000000002413, -1.1912594585353278 
3.250000000002434, -1.1908537814729572 
3.260000000002455, -1.1907176069899545 
3.2700000000024763, -1.1910335608388665 
3.2800000000024974, -1.1918854498760723 
3.2900000000025185, -1.1932097432556041 
3.3000000000025396, -1.1948353879044227 
3.3100000000025607, -1.1965653029901318 
3.3200000000025818, -1.1982336784841696 
3.330000000002603, -1.199723133728965 
3.340000000002624, -1.2009591382828249 
3.350000000002645, -1.2018991630965332 
3.360000000002666, -1.2025247263563945 
3.3700000000026873, -1.202837518867002 
3.3800000000027084, -1.202857156243819 
3.3900000000027295, -1.202618110188363 
3.4000000000027506, -1.2021662611006776 
3.4100000000027717, -1.201557734239769 
3.420000000002793, -1.2008608667667993 
3.430000000002814, -1.2001570399568189 
3.440000000002835, -1.1995332360450681 
3.450000000002856, -1.1990646747218505 
3.460000000002877, -1.1987958843597641 
3.4700000000028983, -1.1987297256858598 
3.4800000000029194, -1.1988267562182258 
3.4900000000029405, -1.199014909892595 
3.5000000000029616, -1.1992078147248955 
3.5100000000029827, -1.1993229816096325 
3.520000000003004, -1.1992906815962532 
3.530000000003025, -1.1990538793499932 
3.540000000003046, -1.1985661455983885 
3.550000000003067, -1.1977924012594074 
3.5600000000030882, -1.1967121498552165 
3.5700000000031094, -1.195322505083506 
3.5800000000031305, -1.193640163034227 
3.5900000000031516, -1.1917044624713737 
3.6000000000031727, -1.189584086765022 
3.6100000000031938, -1.1873868448596314 
3.620000000003215, -1.1852659499984 
3.630000000003236, -1.1834080006158765 
3.640000000003257, -1.181985541838705 
3.650000000003278, -1.181081614889266 
3.6600000000032993, -1.1806407852306864 
3.6700000000033204, -1.1804996801354886 
3.6800000000033415, -1.1804702211282634 
3.6900000000033626, -1.1803998747387907 
3.7000000000033837, -1.18017715982617 
3.710000000003405, -1.1797032896047006 
3.720000000003426, -1.1788565643063784 
3.730000000003447, -1.1774625150897424 
3.740000000003468, -1.175278754567798 
3.750000000003489, -1.1720101916945629 
3.7600000000035103, -1.1673740483544524 
3.7700000000035314, -1.1612195022040575 
3.7800000000035525, -1.1536746567395197 
3.7900000000035736, -1.1452636097414481 
3.8000000000035947, -1.1369120836137392 
3.810000000003616, -1.1297407887289963 
3.820000000003637, -1.1246253947459814 
3.830000000003658, -1.1217684080495134 
3.840000000003679, -1.120678285811683 
3.8500000000037002, -1.1205804026912807 
3.8600000000037213, -1.120837719198374 
3.8700000000037424, -1.1210885030906415 
3.8800000000037635, -1.1211750467285668 
3.8900000000037847, -1.1210308977922538 
3.9000000000038058, -1.120598713256878 
3.910000000003827, -1.119775488467999 
3.920000000003848, -1.1183625501486323 
3.930000000003869, -1.116003405474745 
3.94000000000389, -1.1121122276171613 
3.9500000000039113, -1.105844756689921 
3.9600000000039324, -1.0962551389142428 
3.9700000000039535, -1.0828379740635923 
3.9800000000039746, -1.066401505051712 
3.9900000000039957, -1.0495172880755947 
4.000000000004016, -1.0355435217793771 
4.010000000003993, -1.026629427328924 
4.02000000000397, -1.0226412667523932 
4.030000000003946, -1.0219168018093845 
4.040000000003923, -1.0226712464557306 
4.0500000000039, -1.0237551387684296 
4.0600000000038765, -1.024657324553742 
4.070000000003853, -1.0252353017246016 
4.08000000000383, -1.0254908757640977 
4.090000000003807, -1.0254512119393673 
4.100000000003783, -1.0251166219586756 
4.11000000000376, -1.0244332296214291 
4.120000000003737, -1.023264813001969 
4.130000000003713, -1.0213497345437097 
4.14000000000369, -1.0182395231802088 
4.150000000003667, -1.0132414227304587 
4.1600000000036434, -1.0054506035531907 
4.17000000000362, -0.9940478960999342 
4.180000000003597, -0.9789974837895482 
4.1900000000035735, -0.961814730780804 
4.20000000000355, -0.9454444615477966 
4.210000000003527, -0.9327842349618392 
4.220000000003504, -0.9250681834038325 
4.23000000000348, -0.9216332704200317 
4.240000000003457, -0.9209092104445793 
4.250000000003434, -0.9214426283596504 
4.26000000000341, -0.9223161251870213 
4.270000000003387, -0.9230955587522006 
4.280000000003364, -0.9236331527258432 
4.2900000000033405, -0.9239061626484639 
4.300000000003317, -0.9239247958117373 
4.310000000003294, -0.9236872459058935 
4.320000000003271, -0.9231555571617213 
4.330000000003247, -0.9222349985903936 
4.340000000003224, -0.9207481321917934 
4.350000000003201, -0.9184039415029153 
4.360000000003177, -0.9147794014739677 
4.370000000003154, -0.9093599577373244 
4.380000000003131, -0.9017047814393628 
4.390000000003107, -0.8917441391894332 
4.400000000003084, -0.8800457630382892 
4.410000000003061, -0.867781901254974 
4.4200000000030375, -0.8563319362982241 
4.430000000003014, -0.8467870447338586 
4.440000000002991, -0.8396651548437803 
4.450000000002968, -0.8349165325916308 
4.460000000002944, -0.832114443237443 
4.470000000002921, -0.8306895079355574 
4.480000000002898, -0.8301099859490865 
4.490000000002874, -0.8299713144936287 
4.500000000002851, -0.8300080639999372 
4.510000000002828, -0.830063763389098 
4.520000000002804, -0.8300500774403232 
4.530000000002781, -0.8299119810829987 
4.540000000002758, -0.8296034636866649 
4.5500000000027345, -0.8290732087307875 
4.560000000002711, -0.828259927179295 
4.570000000002688, -0.8270990577091336 
4.580000000002665, -0.8255420217427938 
4.590000000002641, -0.8235824074126162 
4.600000000002618, -0.82127358942624 
4.610000000002595, -0.8187225201447885 
4.620000000002571, -0.8160614407246578 
4.630000000002548, -0.8134164282530243 
4.640000000002525, -0.8108897852391621 
4.6500000000025015, -0.8085583232317626 
4.660000000002478, -0.8064793312155656 
4.670000000002455, -0.8046958693310582 
4.6800000000024315, -0.80323762668177 
4.690000000002408, -0.8021178701113744 
4.700000000002385, -0.8013294213102918 
4.710000000002362, -0.8008430927179468 
4.720000000002338, -0.8006107228907364 
4.730000000002315, -0.8005724751762457 
4.740000000002292, -0.8006658402579078 
4.750000000002268, -0.8008332806260382 
4.760000000002245, -0.8010268202203665 
4.770000000002222, -0.8012098105136143 
4.7800000000021985, -0.8013570965989469 
4.790000000002175, -0.8014543447387495 
4.800000000002152, -0.8014961129562106 
4.810000000002129, -0.8014818707834017 
4.820000000002105, -0.8014105836913996 
4.830000000002082, -0.8012765800466133 
4.840000000002059, -0.8010696434924288 
4.850000000002035, -0.800779616783764 
4.860000000002012, -0.8004025695497552 
4.870000000001989, -0.7999450471428258 
4.880000000001965, -0.799425408872471 
4.890000000001942, -0.7988738666124051 
4.900000000001919, -0.7983331283433882 
4.9100000000018955, -0.7978598777479006 
4.920000000001872, -0.7975253901898605 
4.930000000001849, -0.7974127577155911 
4.940000000001826, -0.7976091635039296 
