t, s[1].omega / s[0].omega 
0, -0.7399976764924033 
0.009999999999999995, -0.7397479730635812 
0.019999999999999934, -0.739459598554983 
0.029999999999999874, -0.7391224998660275 
0.04000000000000012, -0.7387274681516793 
0.050000000000000405, -0.7382724431799847 
0.06000000000000069, -0.7377659025852047 
0.07000000000000098, -0.7372277395110016 
0.08000000000000126, -0.736689713207247 
0.09000000000000155, -0.7361969905903006 
0.10000000000000184, -0.7358106491135761 
0.11000000000000212, -0.735609597221927 
0.12000000000000241, -0.7356898391077185 
0.130000000000002, -0.736159607782041 
0.1400000000000009, -0.7371304388323974 
0.1499999999999998, -0.7387058364749011 
0.1599999999999987, -0.7409693968113646 
0.1699999999999976, -0.743972364422455 
0.1799999999999965, -0.7477176257309934 
0.1899999999999954, -0.7521361175522128 
0.1999999999999943, -0.7570570724773653 
0.2099999999999932, -0.7621885205038156 
0.2199999999999921, -0.767141062628956 
0.229999999999991, -0.7715182563692606 
0.2399999999999899, -0.7750414389886106 
0.2499999999999888, -0.7776254986067752 
0.2599999999999877, -0.779355554508988 
0.2699999999999866, -0.780401187182869 
0.2799999999999855, -0.78093660073132 
0.2899999999999844, -0.78109890019093 
0.2999999999999833, -0.7809779872944794 
0.3099999999999822, -0.7806211401745454 
0.3199999999999811, -0.7800411693273835 
0.32999999999998, -0.7792247694233292 
0.3399999999999789, -0.7781433675312208 
0.3499999999999778, -0.7767735248033387 
0.35999999999997667, -0.7751383538156709 
0.36999999999997557, -0.7733810575549744 
0.37999999999997447, -0.7718622208718696 
0.38999999999997337, -0.7712140624566443 
0.39999999999997227, -0.7722089508729684 
0.40999999999997117, -0.7753540337444894 
0.41999999999997006, -0.7804599227426703 
0.42999999999996896, -0.7866722255580292 
0.43999999999996786, -0.7929719149422312 
0.44999999999996676, -0.7986023051826736 
0.45999999999996566, -0.8031783974092672 
0.46999999999996456, -0.8066250972181942 
0.47999999999996346, -0.809063191517127 
0.48999999999996235, -0.8106937997400664 
0.49999999999996125, -0.8117169310045724 
0.5099999999999602, -0.8122923484084131 
0.519999999999959, -0.8125291393097498 
0.529999999999958, -0.8124873331892981 
0.5399999999999568, -0.8121804267498917 
0.5499999999999557, -0.8115729161298708 
0.5599999999999546, -0.8105700303974279 
0.5699999999999535, -0.8089997862484021 
0.5799999999999524, -0.8065943891893813 
0.5899999999999513, -0.8029937653041012 
0.5999999999999502, -0.7978151112758307 
0.6099999999999491, -0.7908258866908853 
0.619999999999948, -0.7821697284147523 
0.6299999999999469, -0.7724661503179667 
0.6399999999999458, -0.7626395326637971 
0.6499999999999447, -0.7535813077111746 
0.6599999999999436, -0.7458928137470332 
0.6699999999999425, -0.739823134442459 
0.6799999999999414, -0.7353410464217285 
0.6899999999999403, -0.7322438383780925 
0.6999999999999392, -0.730251277786038 
0.7099999999999381, -0.7290723821662268 
0.719999999999937, -0.7284468140052576 
0.7299999999999359, -0.7281649552570572 
0.7399999999999348, -0.7280714301928277 
0.7499999999999337, -0.7280579126362543 
0.7599999999999326, -0.7280511861729739 
0.7699999999999315, -0.7280012141949137 
0.7799999999999304, -0.7278722420130281 
0.7899999999999293, -0.7276384579486355 
0.7999999999999282, -0.7272843604364179 
0.8099999999999271, -0.7268080701775707 
0.819999999999926, -0.726223657026668 
0.8299999999999249, -0.7255582946738618 
0.8399999999999238, -0.7248436193691379 
0.8499999999999227, -0.7241057361929178 
0.8599999999999216, -0.7233597559112245 
0.8699999999999205, -0.7226112052058113 
0.8799999999999194, -0.7218620403953546 
0.8899999999999183, -0.7211172389070326 
0.8999999999999172, -0.7203893629173047 
0.9099999999999161, -0.7197008083151137 
0.919999999999915, -0.7190845918842361 
0.9299999999999139, -0.7185842192401234 
0.9399999999999128, -0.7182524104882108 
0.9499999999999117, -0.718148189389848 
0.9599999999999106, -0.7183323307750596 
0.9699999999999095, -0.7188620291094479 
0.9799999999999084, -0.7197861810813659 
0.9899999999999073, -0.7211422800383349 
0.9999999999999062, -0.722954554347242 
1.0099999999999052, -0.7252311835792464 
1.019999999999904, -0.7279571171627532 
1.029999999999903, -0.7310795715131759 
1.039999999999902, -0.734487761393368 
1.0499999999999008, -0.7379981565898885 
1.0599999999998997, -0.7413664063047961 
1.0699999999998986, -0.7443407075657358 
1.0799999999998975, -0.7467381254591816 
1.0899999999998964, -0.7484942024889547 
1.0999999999998953, -0.7496535326763722 
1.1099999999998942, -0.7503194294421207 
1.119999999999893, -0.7506030196677107 
1.129999999999892, -0.7505938508438637 
1.1399999999998909, -0.7503507482005256 
1.1499999999998898, -0.7499036593583067 
1.1599999999998887, -0.74925999076903 
1.1699999999998876, -0.7484141890691068 
1.1799999999998865, -0.747364096037052 
1.1899999999998854, -0.7461418300541419 
1.1999999999998843, -0.7448691317880273 
1.2099999999998832, -0.743839910771419 
1.219999999999882, -0.7435999535594322 
1.229999999999881, -0.7449240644778576 
1.2399999999998799, -0.7485401380714345 
1.2499999999998788, -0.7546056035288854 
1.2599999999998777, -0.7623682095253338 
1.2699999999998766, -0.7705143545667601 
1.2799999999998755, -0.777908668255286 
1.2899999999998744, -0.7839714827613167 
1.2999999999998733, -0.7885909101585126 
1.3099999999998722, -0.7919145790141654 
1.319999999999871, -0.794192464549333 
1.32999999999987, -0.7956806447539932 
1.3399999999998689, -0.7965928422467698 
1.3499999999998678, -0.7970851359962308 
1.3599999999998666, -0.7972576792385151 
1.3699999999998655, -0.7971608873903231 
1.3799999999998644, -0.7967988324456625 
1.3899999999998633, -0.7961262382694422 
1.3999999999998622, -0.795037693679713 
1.4099999999998611, -0.7933509221343014 
1.41999999999986, -0.7907942490183115 
1.429999999999859, -0.7870249571706336 
1.4399999999998578, -0.7817203776225796 
1.4499999999998567, -0.7747580652201839 
1.4599999999998556, -0.7664003230871504 
1.4699999999998545, -0.7573107790889588 
1.4799999999998534, -0.748335730821194 
1.4899999999998523, -0.7402083367116384 
1.4999999999998512, -0.7333761963353946 
1.5099999999998501, -0.7279937595487074 
1.519999999999849, -0.7240011584512068 
1.529999999999848, -0.7212139337870775 
1.5399999999998468, -0.7193933517026196 
1.5499999999998457, -0.7182946363150318 
1.5599999999998446, -0.7176972040111934 
1.5699999999998435, -0.7174202195034571 
1.5799999999998424, -0.717326297871368 
1.5899999999998413, -0.7173169281000695 
1.5999999999998402, -0.7173237550900107 
1.6099999999998391, -0.7172994465133539 
1.619999999999838, -0.7172108014830443 
1.629999999999837, -0.7170355097836896 
1.6399999999998358, -0.7167624976374162 
1.6499999999998347, -0.7163938787804124 
1.6599999999998336, -0.7159449393253449 
1.6699999999998325, -0.7154393146915881 
1.6799999999998314, -0.7149002780839969 
1.6899999999998303, -0.7143428476531033 
1.6999999999998292, -0.7137713165285429 
1.709999999999828, -0.7131829559980162 
1.719999999999827, -0.7125748214497576 
1.729999999999826, -0.7119498151973223 
1.7399999999998248, -0.7113201947449558 
1.7499999999998237, -0.710709106514548 
1.7599999999998226, -0.7101515287302871 
1.7699999999998215, -0.7096952647785715 
1.7799999999998204, -0.709401499165154 
1.7899999999998193, -0.7093438445125247 
1.7999999999998182, -0.7096050789268257 
1.809999999999817, -0.7102716920573584 
1.819999999999816, -0.7114272833965276 
1.8299999999998149, -0.7131459441324172 
1.8399999999998138, -0.7154854919188638 
1.8499999999998127, -0.7184781388367266 
1.8599999999998116, -0.7221142547040287 
1.8699999999998105, -0.7263160911594655 
1.8799999999998094, -0.7309066560181124 
1.8899999999998083, -0.7355955981784771 
1.8999999999998072, -0.7400159919923619 
1.909999999999806, -0.7438234047294164 
1.919999999999805, -0.7468079680664909 
1.9299999999998039, -0.7489400358956722 
1.9399999999998028, -0.7503261941649528 
1.9499999999998017, -0.7511267370321628 
1.9599999999998006, -0.7514916950081986 
1.9699999999997995, -0.7515322080275986 
1.9799999999997984, -0.751315940890941 
1.9899999999997973, -0.7508718194954253 
1.9999999999997962, -0.7501958271181945 
2.0099999999998173, -0.7492556882951582 
2.0199999999998384, -0.7479962983675048 
2.0299999999998595, -0.7463508787428474 
2.0399999999998806, -0.7442649220334001 
2.0499999999999017, -0.7417366195403099 
2.059999999999923, -0.7388591139256075 
2.069999999999944, -0.7358172954665658 
2.079999999999965, -0.7328011718176086 
2.089999999999986, -0.7299346818356183 
2.100000000000007, -0.7274006303057641 
2.1100000000000283, -0.7255835985526635 
2.1200000000000494, -0.724838310638042 
2.1300000000000705, -0.725139754126378 
2.1400000000000916, -0.7261134584119734 
2.1500000000001127, -0.7273216948350487 
2.160000000000134, -0.728458650196948 
2.170000000000155, -0.729377631704134 
2.180000000000176, -0.730039283000828 
2.190000000000197, -0.7304548479249389 
2.2000000000002182, -0.7306484412176921 
2.2100000000002393, -0.7306365990007829 
2.2200000000002604, -0.7304176390162186 
2.2300000000002815, -0.7299651198032998 
2.2400000000003026, -0.7292231612959137 
2.2500000000003237, -0.7281055508968619 
2.260000000000345, -0.7265053747820125 
2.270000000000366, -0.7243244064424997 
2.280000000000387, -0.7215233901500197 
2.290000000000408, -0.7181710781827924 
2.3000000000004293, -0.7144518551301597 
2.3100000000004504, -0.7106144731313087 
2.3200000000004715, -0.7068952879747099 
2.3300000000004926, -0.7034661688256857 
2.3400000000005137, -0.700424925469199 
2.3500000000005348, -0.6978124535240535 
2.360000000000556, -0.6956349275294629 
2.370000000000577, -0.6938796748037936 
2.380000000000598, -0.6925231293182168 
2.390000000000619, -0.6915336067066858 
2.4000000000006403, -0.6908722090152446 
2.4100000000006614, -0.6904941377348608 
2.4200000000006825, -0.6903512832725703 
2.4300000000007036, -0.6903957887875303 
2.4400000000007247, -0.6905837054380483 
2.450000000000746, -0.6908779238285214 
2.460000000000767, -0.6912499978883198 
2.470000000000788, -0.6916807942547486 
2.480000000000809, -0.6921597566849724 
2.49000000000083, -0.6926821060055293 
2.5000000000008513, -0.6932432521222271 
2.5100000000008724, -0.6938309708233132 
2.5200000000008935, -0.6944184132986553 
2.5300000000009146, -0.6949628882262708 
2.5400000000009357, -0.695413714134122 
2.550000000000957, -0.6957265324144432 
2.560000000000978, -0.6958758367714596 
2.570000000000999, -0.6958586090949236 
2.58000000000102, -0.6956892612249137 
2.5900000000010412, -0.6953918183787426 
2.6000000000010624, -0.6949951796966023 
2.6100000000010835, -0.6945342919069463 
2.6200000000011046, -0.6940580864493178 
2.6300000000011257, -0.6936448356148558 
2.6400000000011468, -0.69342588773054 
2.650000000001168, -0.6936178795050886 
2.660000000001189, -0.6945598381095206 
2.67000000000121, -0.6967432763185644 
2.680000000001231, -0.7008087280045815 
2.6900000000012523, -0.7074618533795116 
2.7000000000012734, -0.7172494179747326 
2.7100000000012945, -0.7301777191333927 
2.7200000000013156, -0.7453285031916217 
2.7300000000013367, -0.7608687675803532 
2.740000000001358, -0.7747420475435339 
2.750000000001379, -0.7856211324118032 
2.7600000000014, -0.7932907073072973 
2.770000000001421, -0.798293396662576 
2.780000000001442, -0.8013840232141545 
2.7900000000014633, -0.8032074208824274 
2.8000000000014844, -0.8042139748370696 
2.8100000000015055, -0.8046851969626667 
2.8200000000015266, -0.8047811741387081 
2.8300000000015477, -0.8045771390527371 
2.840000000001569, -0.804082869290187 
2.85000000000159, -0.8032456056188441 
2.860000000001611, -0.801936725868995 
2.870000000001632, -0.7999207477571576 
2.8800000000016532, -0.7968071886228787 
2.8900000000016743, -0.7920007158485032 
2.9000000000016954, -0.7847092971756842 
2.9100000000017165, -0.7741431731894513 
2.9200000000017377, -0.7600317717227699 
2.9300000000017588, -0.7432620139097132 
2.94000000000178, -0.7259392677173698 
2.950000000001801, -0.710461301811643 
2.960000000001822, -0.6983645089297654 
2.970000000001843, -0.6899448481483671 
2.9800000000018643, -0.684645842003675 
2.9900000000018854, -0.6816127722251272 
3.0000000000019065, -0.680049273027205 
3.0100000000019276, -0.6793518934796754 
3.0200000000019487, -0.6791157464053399 
3.03000000000197, -0.679090894935496 
3.040000000001991, -0.6791317223701012 
3.050000000002012, -0.6791554603786577 
3.060000000002033, -0.6791130659014365 
3.070000000002054, -0.6789708378880998 
3.0800000000020753, -0.6787005039355873 
3.0900000000020964, -0.6782764387798583 
3.1000000000021175, -0.6776793791458221 
3.1100000000021386, -0.6769048871130687 
3.1200000000021597, -0.6759715857010569 
3.130000000002181, -0.6749219428752518 
3.140000000002202, -0.6738119846909976 
3.150000000002223, -0.6726948713398485 
3.160000000002244, -0.6716081818622909 
3.1700000000022652, -0.6705709492668521 
3.1800000000022863, -0.6695891185319318 
3.1900000000023074, -0.6686641866758344 
3.2000000000023285, -0.6678005762944188 
3.2100000000023496, -0.6670100571353702 
3.2200000000023707, -0.6663136302070523 
3.230000000002392, -0.6657418577856891 
3.240000000002413, -0.6653342264731227 
3.250000000002434, -0.6651376702368481 
3.260000000002455, -0.665204321827387 
3.2700000000024763, -0.6655888386701552 
3.2800000000024974, -0.6663459042658156 
3.2900000000025185, -0.6675283500628161 
3.3000000000025396, -0.6691855507961991 
3.3100000000025607, -0.6713603423907641 
3.3200000000025818, -0.6740810361802286 
3.330000000002603, -0.6773441614138657 
3.340000000002624, -0.6810858209800518 
3.350000000002645, -0.685148913982304 
3.360000000002666, -0.6892702757759276 
3.3700000000026873, -0.6931205093100894 
3.3800000000027084, -0.6964007494676016 
3.3900000000027295, -0.6989415867496527 
3.4000000000027506, -0.7007331005486208 
3.4100000000027717, -0.7018770726225781 
3.420000000002793, -0.7025135246755769 
3.430000000002814, -0.7027682573845317 
3.440000000002835, -0.7027307829220016 
3.450000000002856, -0.7024509054748532 
3.460000000002877, -0.7019412950283505 
3.4700000000028983, -0.7011788795736977 
3.4800000000029194, -0.7001020001212591 
3.4900000000029405, -0.6986019505372794 
3.5000000000029616, -0.6965075405566055 
3.5100000000029827, -0.6935603528158547 
3.520000000003004, -0.6893789827755284 
3.530000000003025, -0.6834268288384338 
3.540000000003046, -0.6750668724949562 
3.550000000003067, -0.663898815045121 
3.5600000000030882, -0.6504315645618226 
3.5700000000031094, -0.6364352563398166 
3.5800000000031305, -0.6241393627505988 
3.5900000000031516, -0.6149241245314349 
3.6000000000031727, -0.6088939910202099 
3.6100000000031938, -0.6053787969370888 
3.620000000003215, -0.6035460904168316 
3.630000000003236, -0.6027150971639682 
3.640000000003257, -0.602423162936829 
3.650000000003278, -0.6023873364056729 
3.6600000000032993, -0.6024457444958233 
3.6700000000033204, -0.6025092185857475 
3.6800000000033415, -0.6025283195267296 
3.6900000000033626, -0.6024729933296704 
3.7000000000033837, -0.6023212234454426 
3.710000000003405, -0.6020542854127201 
3.720000000003426, -0.6016574842992827 
3.730000000003447, -0.6011253715938891 
3.740000000003468, -0.6004687057180929 
3.750000000003489, -0.5997179198599337 
3.7600000000035103, -0.5989181562179166 
3.7700000000035314, -0.598116331570505 
3.7800000000035525, -0.5973471624281189 
3.7900000000035736, -0.5966258678698424 
3.8000000000035947, -0.5959500783018229 
3.810000000003616, -0.5953079109762115 
3.820000000003637, -0.5946871545435757 
3.830000000003658, -0.5940819305184494 
3.840000000003679, -0.5934960611837462 
3.8500000000037002, -0.5929445575998473 
3.8600000000037213, -0.5924551824446319 
3.8700000000037424, -0.592071423941875 
3.8800000000037635, -0.591857384186636 
3.8900000000037847, -0.5919045276596552 
3.9000000000038058, -0.5923399266935392 
3.910000000003827, -0.5933353005626764 
3.920000000003848, -0.5951152765896885 
3.930000000003869, -0.5979609543284528 
3.94000000000389, -0.6021994518634661 
3.9500000000039113, -0.6081603900428169 
3.9600000000039324, -0.616070106566141 
3.9700000000039535, -0.6258647936708657 
3.9800000000039746, -0.6369783834796857 
3.9900000000039957, -0.6483009422310143 
4.000000000004016, -0.6585171395095155 
4.010000000003993, -0.666686395032116 
4.02000000000397, -0.6725713931926551 
4.030000000003946, -0.67648650168331 
4.040000000003923, -0.6789437633163315 
4.0500000000039, -0.6804072774752777 
4.0600000000038765, -0.6812118338026966 
4.070000000003853, -0.6815700215009444 
4.08000000000383, -0.681602050454065 
4.090000000003807, -0.6813602941938987 
4.100000000003783, -0.6808415575934516 
4.11000000000376, -0.6799865820356372 
4.120000000003737, -0.6786672355541188 
4.130000000003713, -0.6766634816060606 
4.14000000000369, -0.6736409097589143 
4.150000000003667, -0.6691626350704123 
4.1600000000036434, -0.6628002821651141 
4.17000000000362, -0.6543892304970308 
4.180000000003597, -0.6443149674392148 
4.1900000000035735, -0.6335333380604914 
4.20000000000355, -0.6231919469409478 
4.210000000003527, -0.6141584688768134 
4.220000000003504, -0.6068217132887381 
4.23000000000348, -0.6011795171805085 
4.240000000003457, -0.597019959203445 
4.250000000003434, -0.594062885509847 
4.26000000000341, -0.592035913678563 
4.270000000003387, -0.5907047337704435 
4.280000000003364, -0.5898800759491318 
4.2900000000033405, -0.5894149635452444 
4.300000000003317, -0.5891986990927622 
4.310000000003294, -0.5891502427377905 
4.320000000003271, -0.5892120776705794 
4.330000000003247, -0.5893451228624618 
4.340000000003224, -0.5895250268588018 
4.350000000003201, -0.5897398628065924 
4.360000000003177, -0.5899886405825447 
4.370000000003154, -0.5902792409399926 
4.380000000003131, -0.5906239460293541 
4.390000000003107, -0.5910315776723112 
4.400000000003084, -0.5914976461872126 
4.410000000003061, -0.5919967947129883 
4.4200000000030375, -0.592482999201404 
4.430000000003014, -0.592900104475905 
4.440000000002991, -0.5931984625456318 
4.450000000002968, -0.5933481660464718 
4.460000000002944, -0.5933419528628014 
4.470000000002921, -0.5931889976113975 
4.480000000002898, -0.5929059637759665 
4.490000000002874, -0.5925107061340115 
4.500000000002851, -0.5920207396602192 
4.510000000002828, -0.5914568153948814 
4.520000000002804, -0.5908522518115384 
4.530000000002781, -0.5902700452895054 
4.540000000002758, -0.5898308861599189 
4.5500000000027345, -0.5897535616911191 
4.560000000002711, -0.590398723847458 
4.570000000002688, -0.592276069759245 
4.580000000002665, -0.595918892697931 
4.590000000002641, -0.6015127476329896 
4.600000000002618, -0.6083979099517638 
4.610000000002595, -0.6150829269280765 
4.620000000002571, -0.6202307271920573 
4.630000000002548, -0.6236087618778976 
4.640000000002525, -0.6258123033885076 
4.6500000000025015, -0.6274420790521327 
4.660000000002478, -0.6287768858490217 
4.670000000002455, -0.6298812222769007 
4.6800000000024315, -0.6307565460186076 
4.690000000002408, -0.6314072021953084 
4.700000000002385, -0.6318498559665017 
4.710000000002362, -0.6321053520470632 
4.720000000002338, -0.6321898538063248 
4.730000000002315, -0.6321089052086787 
4.740000000002292, -0.631854009943469 
4.750000000002268, -0.6314014152146419 
4.760000000002245, -0.630714364847369 
4.770000000002222, -0.6297517194421394 
4.7800000000021985, -0.6284853124038683 
4.790000000002175, -0.6269227474529974 
4.800000000002152, -0.6251228623697388 
4.810000000002129, -0.6231887772830943 
4.820000000002105, -0.621238085804411 
4.830000000002082, -0.619368988509241 
4.840000000002059, -0.617642269471902 
4.850000000002035, -0.6160831634683982 
4.860000000002012, -0.6146942738983532 
4.870000000001989, -0.6134695307129431 
4.880000000001965, -0.612404062882086 
4.890000000001942, -0.611499297951313 
4.900000000001919, -0.6107646082644629 
4.9100000000018955, -0.6102170394873202 
4.920000000001872, -0.6098801963508163 
4.930000000001849, -0.6097829325711936 
