t, s[1].omega / s[0].omega 
0, -0.5199977537494175 
0.009999999999999995, -0.5198102203489543 
0.019999999999999934, -0.519683600816275 
0.029999999999999874, -0.519585231410669 
0.04000000000000012, -0.5194742394848255 
0.050000000000000405, -0.5193148060555222 
0.06000000000000069, -0.5190846620751401 
0.07000000000000098, -0.5187765361922927 
0.08000000000000126, -0.5183950698349944 
0.09000000000000155, -0.517953556154136 
0.10000000000000184, -0.5174738424762297 
0.11000000000000212, -0.5169914101004134 
0.12000000000000241, -0.5165676274697459 
0.130000000000002, -0.5163125257137778 
0.1400000000000009, -0.5164233655260633 
0.1499999999999998, -0.5172444519574841 
0.1599999999999987, -0.5193446331602529 
0.1699999999999976, -0.5235701611757897 
0.1799999999999965, -0.5309272999532453 
0.1899999999999954, -0.5420096082572561 
0.1999999999999943, -0.5558845012680005 
0.2099999999999932, -0.5695305084311941 
0.2199999999999921, -0.5796326407593166 
0.229999999999991, -0.5853277611541186 
0.2399999999999899, -0.5881021711136853 
0.2499999999999888, -0.5896504620346652 
0.2599999999999877, -0.5908241768720762 
0.2699999999999866, -0.5918478555671556 
0.2799999999999855, -0.5927218513013858 
0.2899999999999844, -0.5934177817551376 
0.2999999999999833, -0.5939265762263705 
0.3099999999999822, -0.5942549693303039 
0.3199999999999811, -0.5944134539764124 
0.32999999999998, -0.5944071365044368 
0.3399999999999789, -0.5942304938854015 
0.3499999999999778, -0.5938655105216124 
0.35999999999997667, -0.5932839284866696 
0.36999999999997557, -0.5924557610365866 
0.37999999999997447, -0.5913653839523115 
0.38999999999997337, -0.5900310002765886 
0.39999999999997227, -0.5885152595582707 
0.40999999999997117, -0.5869147490568901 
0.41999999999997006, -0.5853308282435115 
0.42999999999996896, -0.5838402310273547 
0.43999999999996786, -0.5824820634679313 
0.44999999999996676, -0.5812627956850747 
0.45999999999996566, -0.5801704109140012 
0.46999999999996456, -0.579188697769046 
0.47999999999996346, -0.5783071885465936 
0.48999999999996235, -0.577526371562752 
0.49999999999996125, -0.5768598946286367 
0.5099999999999602, -0.5763357103015144 
0.519999999999959, -0.5759973966386049 
0.529999999999958, -0.5759061182793508 
0.5399999999999568, -0.5761432965309923 
0.5499999999999557, -0.5768140044885391 
0.5599999999999546, -0.5780511139077475 
0.5699999999999535, -0.5800198342229183 
0.5799999999999524, -0.5829207689664414 
0.5899999999999513, -0.586985849605219 
0.5999999999999502, -0.592454314235825 
0.6099999999999491, -0.5995065070727598 
0.619999999999948, -0.60813318303604 
0.6299999999999469, -0.6179589870432699 
0.6399999999999458, -0.6281460478451524 
0.6499999999999447, -0.6375775156406976 
0.6599999999999436, -0.645323433195379 
0.6699999999999425, -0.6510219929737715 
0.6799999999999414, -0.6548565448770558 
0.6899999999999403, -0.6572636028606026 
0.6999999999999392, -0.6586776370864894 
0.7099999999999381, -0.6594241853234662 
0.719999999999937, -0.6597111940230052 
0.7299999999999359, -0.6596520589821487 
0.7399999999999348, -0.6592866395241793 
0.7499999999999337, -0.6585893374281065 
0.7599999999999326, -0.657461015496301 
0.7699999999999315, -0.6557022571255362 
0.7799999999999304, -0.6529672573082548 
0.7899999999999293, -0.6487122403085489 
0.7999999999999282, -0.6421991711866781 
0.8099999999999271, -0.6326922464941847 
0.819999999999926, -0.61996002638944 
0.8299999999999249, -0.6048272639605213 
0.8399999999999238, -0.5890965136777367 
0.8499999999999227, -0.5746666841603807 
0.8599999999999216, -0.5626899302514399 
0.8699999999999205, -0.5534330512826502 
0.8799999999999194, -0.5466131793534874 
0.8899999999999183, -0.5417524878790143 
0.8999999999999172, -0.5383785739927369 
0.9099999999999161, -0.5360983332682514 
0.919999999999915, -0.5346086059609202 
0.9299999999999139, -0.5336841715673688 
0.9399999999999128, -0.5331612578603708 
0.9499999999999117, -0.5329228170739652 
0.9599999999999106, -0.5328869762723278 
0.9699999999999095, -0.5329985394805733 
0.9799999999999084, -0.5332231313513013 
0.9899999999999073, -0.5335435599047822 
0.9999999999999062, -0.5339577802778152 
1.0099999999999052, -0.5344772694582878 
1.019999999999904, -0.5351238258025992 
1.029999999999903, -0.5359224130557272 
1.039999999999902, -0.5368885561942773 
1.0499999999999008, -0.538011634866318 
1.0599999999998997, -0.5392402782766192 
1.0699999999998986, -0.5404807851639889 
1.0799999999998975, -0.5416172409774209 
1.0899999999998964, -0.5425473141869686 
1.0999999999998953, -0.543211809525838 
1.1099999999998942, -0.5435999104936227 
1.119999999999893, -0.5437328565302747 
1.129999999999892, -0.5436416567099515 
1.1399999999998909, -0.5433501870382585 
1.1499999999998898, -0.5428654183838983 
1.1599999999998887, -0.5421712027280052 
1.1699999999998876, -0.54122080193435 
1.1799999999998865, -0.5399224757650363 
1.1899999999998854, -0.5381087230991495 
1.1999999999998843, -0.535470474052272 
1.2099999999998832, -0.5314243032333162 
1.219999999999882, -0.5248954110645789 
1.229999999999881, -0.5141684966603932 
1.2399999999998799, -0.49742066419390996 
1.2499999999998788, -0.47457281489563485 
1.2599999999998777, -0.4489052799806002 
1.2699999999998766, -0.4253322108798421 
1.2799999999998755, -0.40692869639854895 
1.2899999999998744, -0.39400640643533025 
1.2999999999998733, -0.3854409117921683 
1.3099999999998722, -0.3799108450824766 
1.319999999999871, -0.3763777951437135 
1.32999999999987, -0.37413464332378227 
1.3399999999998689, -0.3727272979246262 
1.3499999999998678, -0.3718710846831902 
1.3599999999998666, -0.37138985303184574 
1.3699999999998655, -0.3711767961044158 
1.3799999999998644, -0.3711707277541963 
1.3899999999998633, -0.37134255249830583 
1.3999999999998622, -0.3716884486647377 
1.4099999999998611, -0.37222754103642647 
1.41999999999986, -0.3730023373632059 
1.429999999999859, -0.3740798967060603 
1.4399999999998578, -0.3755504752922463 
1.4499999999998567, -0.3775180316405939 
1.4599999999998556, -0.38007385230017565 
1.4699999999998545, -0.38324480351768503 
1.4799999999998534, -0.3869231050114887 
1.4899999999998523, -0.39082341064985227 
1.4999999999998512, -0.39453847544834164 
1.5099999999998501, -0.3976979854738451 
1.519999999999849, -0.4001124452532673 
1.529999999999848, -0.4017897178457098 
1.5399999999998468, -0.4028505200755471 
1.5499999999998457, -0.4034373243538055 
1.5599999999998446, -0.40366421817252796 
1.5699999999998435, -0.4036014951875587 
1.5799999999998424, -0.4032751762297463 
1.5899999999998413, -0.4026686592127823 
1.5999999999998402, -0.4017224448905899 
1.6099999999998391, -0.4003350747863286 
1.619999999999838, -0.3983764088668114 
1.629999999999837, -0.39573114022663886 
1.6399999999998358, -0.3923804052733392 
1.6499999999998347, -0.3884833990502972 
1.6599999999998336, -0.3843738997465813 
1.6699999999998325, -0.3804365143941462 
1.6799999999998314, -0.3769550610246681 
1.6899999999998303, -0.37404848069431174 
1.6999999999998292, -0.37170287305184463 
1.709999999999828, -0.36983642631474045 
1.719999999999827, -0.3683505383572637 
1.729999999999826, -0.3671572812209402 
1.7399999999998248, -0.36619007820204363 
1.7499999999998237, -0.36540583736996846 
1.7599999999998226, -0.3647841336270458 
1.7699999999998215, -0.36432681565324987 
1.7799999999998204, -0.3640602151671368 
1.7899999999998193, -0.3640418142866463 
1.7999999999998182, -0.36437373831219566 
1.809999999999817, -0.36522680563694754 
1.819999999999816, -0.3668809371012668 
1.8299999999998149, -0.36978928149390483 
1.8399999999998138, -0.3746688875959815 
1.8499999999998127, -0.382591126062567 
1.8599999999998116, -0.39494374717024827 
1.8699999999998105, -0.41292455550180984 
1.8799999999998094, -0.4361771718895245 
1.8899999999998083, -0.46131621783616994 
1.8999999999998072, -0.4830557499635944 
1.909999999999806, -0.4981743021671507 
1.919999999999805, -0.5071942424215131 
1.9299999999998039, -0.5122826016122037 
1.9399999999998028, -0.5152296391117172 
1.9499999999998017, -0.5170406920121738 
1.9599999999998006, -0.5182068312226983 
1.9699999999997995, -0.5189669381172 
1.9799999999997984, -0.5194447660686783 
1.9899999999997973, -0.519708098338428 
1.9999999999997962, -0.5197929774519705 
2.0099999999998173, -0.5197139589062806 
2.0199999999998384, -0.5194693727623015 
2.0299999999998595, -0.5190461295364897 
2.0399999999998806, -0.5184273305929485 
2.0499999999999017, -0.5176046387045685 
2.059999999999923, -0.516593485368972 
2.069999999999944, -0.515443075148202 
2.079999999999965, -0.5142311725191041 
2.089999999999986, -0.5130425604179134 
2.100000000000007, -0.5119434477684125 
2.1100000000000283, -0.5109666560953693 
2.1200000000000494, -0.5101123916802511 
2.1300000000000705, -0.5093594867194556 
2.1400000000000916, -0.5086794246829591 
2.1500000000001127, -0.5080476674662416 
2.160000000000134, -0.5074501734372647 
2.170000000000155, -0.5068859743349223 
2.180000000000176, -0.5063683257259934 
2.190000000000197, -0.5059270587138186 
2.2000000000002182, -0.5056141615590111 
2.2100000000002393, -0.5055142669015026 
2.2200000000002604, -0.505761994210375 
2.2300000000002815, -0.5065688354735967 
2.2400000000003026, -0.5082628030693571 
2.2500000000003237, -0.5113424069235344 
2.260000000000345, -0.5165370150673408 
2.270000000000366, -0.5248346982648711 
2.280000000000387, -0.5373660908917652 
2.290000000000408, -0.5549371019029786 
2.3000000000004293, -0.5770956684938857 
2.3100000000004504, -0.6013164179971097 
2.3200000000004715, -0.6236960019875434 
2.3300000000004926, -0.6412455179358203 
2.3400000000005137, -0.6533397039801352 
2.3500000000005348, -0.6610310806495312 
2.360000000000556, -0.6657360727535253 
2.370000000000577, -0.668567245522234 
2.380000000000598, -0.6702441337598742 
2.390000000000619, -0.6711959581113519 
2.4000000000006403, -0.6716681792956227 
2.4100000000006614, -0.6717924802675002 
2.4200000000006825, -0.6716252007440664 
2.4300000000007036, -0.6711644214596242 
2.4400000000007247, -0.6703529717836862 
2.450000000000746, -0.6690733406369619 
2.460000000000767, -0.6671442538176648 
2.470000000000788, -0.6643388461135162 
2.480000000000809, -0.6604529891033414 
2.49000000000083, -0.6554311569469365 
2.5000000000008513, -0.6494839370425939 
2.5100000000008724, -0.643076486658022 
2.5200000000008935, -0.6367582324424739 
2.5300000000009146, -0.630965907913889 
2.5400000000009357, -0.6259366242253491 
2.550000000000957, -0.6217352885782025 
2.560000000000978, -0.6183243524754025 
2.570000000000999, -0.615622564672696 
2.58000000000102, -0.6135386910930845 
2.5900000000010412, -0.6119858825947269 
2.6000000000010624, -0.6108856409789473 
2.6100000000010835, -0.6101677796612821 
2.6200000000011046, -0.6097697441564718 
2.6300000000011257, -0.609636554177672 
2.6400000000011468, -0.6097214804217675 
2.650000000001168, -0.6099871242120019 
2.660000000001189, -0.6104065393973547 
2.67000000000121, -0.6109641015332422 
2.680000000001231, -0.6116556694642368 
2.6900000000012523, -0.6124870377553034 
2.7000000000012734, -0.6134690024523192 
2.7100000000012945, -0.6146073903246431 
2.7200000000013156, -0.6158882793941701 
2.7300000000013367, -0.6172630082111912 
2.740000000001358, -0.6186428692798895 
2.750000000001379, -0.6199136485816361 
2.7600000000014, -0.6209685619119529 
2.770000000001421, -0.6217408017279716 
2.780000000001442, -0.622214635782648 
2.7900000000014633, -0.6224124517364245 
2.8000000000014844, -0.6223721887176907 
2.8100000000015055, -0.6221292305619994 
2.8200000000015266, -0.6217073471645842 
2.8300000000015477, -0.6211169936553256 
2.840000000001569, -0.6203586198082263 
2.85000000000159, -0.6194307456191027 
2.860000000001611, -0.6183449858022679 
2.870000000001632, -0.6171509163634503 
2.8800000000016532, -0.615967511235618 
2.8900000000016743, -0.6149918426031594 
2.9000000000016954, -0.6143952085611734 
2.9100000000017165, -0.6139740418956452 
2.9200000000017377, -0.6126747043398122 
2.9300000000017588, -0.6088576702004798 
2.94000000000178, -0.601976869954202 
2.950000000001801, -0.5937311547048488 
2.960000000001822, -0.5865739321023025 
2.970000000001843, -0.5817367351193751 
2.9800000000018643, -0.5790776575183781 
2.9900000000018854, -0.577906966510019 
3.0000000000019065, -0.5775727078059397 
3.0100000000019276, -0.5776330647448311 
3.0200000000019487, -0.5778332398501814 
3.03000000000197, -0.5780400976271146 
3.040000000001991, -0.5781880385371398 
3.050000000002012, -0.5782441179943156 
3.060000000002033, -0.5781879936211107 
3.070000000002054, -0.578001660335852 
3.0800000000020753, -0.5776661378766696 
3.0900000000020964, -0.5771642820296567 
3.1000000000021175, -0.5764891755776411 
3.1100000000021386, -0.5756550046836633 
3.1200000000021597, -0.5747032063728359 
3.130000000002181, -0.5736964128303451 
3.140000000002202, -0.5727004918822562 
3.150000000002223, -0.5717647574550193 
3.160000000002244, -0.5709114517961267 
3.1700000000022652, -0.5701377974055124 
3.1800000000022863, -0.5694263483553824 
3.1900000000023074, -0.5687570995206761 
3.2000000000023285, -0.5681166317922957 
3.2100000000023496, -0.5675029343809714 
3.2200000000023707, -0.5669273648059104 
3.230000000002392, -0.5664162505121328 
3.240000000002413, -0.5660141537867267 
3.250000000002434, -0.5657899070041496 
3.260000000002455, -0.5658459241082061 
3.2700000000024763, -0.5663310812463851 
3.2800000000024974, -0.5674573161593447 
3.2900000000025185, -0.569519382829981 
3.3000000000025396, -0.5729145112812134 
3.3100000000025607, -0.5781510393379847 
3.3200000000025818, -0.5858175027510021 
3.330000000002603, -0.5964545860374345 
3.340000000002624, -0.6102569815629371 
3.350000000002645, -0.6266251658005231 
3.360000000002666, -0.643890287190697 
3.3700000000026873, -0.6597614716610627 
3.3800000000027084, -0.6724524540753835 
3.3900000000027295, -0.6814574062482668 
3.4000000000027506, -0.6873159865233318 
3.4100000000027717, -0.6909195130081985 
3.420000000002793, -0.6930480813707953 
3.430000000002814, -0.6942417809827606 
3.440000000002835, -0.6948324985009148 
3.450000000002856, -0.6950063875106519 
3.460000000002877, -0.6948509227564533 
3.4700000000028983, -0.6943794928879464 
3.4800000000029194, -0.6935359066155381 
3.4900000000029405, -0.692180777292769 
3.5000000000029616, -0.6900616495448915 
3.5100000000029827, -0.6867772330214963 
3.520000000003004, -0.6817747344760294 
3.530000000003025, -0.6744675086355855 
3.540000000003046, -0.6645575185421022 
3.550000000003067, -0.6524462667070321 
3.5600000000030882, -0.6393184402304136 
3.5700000000031094, -0.6266544443351745 
3.5800000000031305, -0.6155791301071669 
3.5900000000031516, -0.6065868834397965 
3.6000000000031727, -0.5996675109816645 
3.6100000000031938, -0.5945518986235907 
3.620000000003215, -0.5908946048619677 
3.630000000003236, -0.5883659833214626 
3.640000000003257, -0.586685548075842 
3.650000000003278, -0.5856275667973728 
3.6600000000032993, -0.5850163086176161 
3.6700000000033204, -0.5847184933786237 
3.6800000000033415, -0.5846356331669182 
3.6900000000033626, -0.5846971403862513 
3.7000000000033837, -0.5848546041936439 
3.710000000003405, -0.5850775402268436 
3.720000000003426, -0.5853506941420078 
3.730000000003447, -0.585672369689582 
3.740000000003468, -0.5860523013720687 
3.750000000003489, -0.5865069008477964 
3.7600000000035103, -0.58705030835391 
3.7700000000035314, -0.5876821346395033 
3.7800000000035525, -0.5883763363339505 
3.7900000000035736, -0.5890782574155867 
3.8000000000035947, -0.589715213473909 
3.810000000003616, -0.590217917218899 
3.820000000003637, -0.5905406885591628 
3.830000000003658, -0.5906686047755916 
3.840000000003679, -0.590610606257379 
3.8500000000037002, -0.5903868664998531 
3.8600000000037213, -0.590018715581037 
3.8700000000037424, -0.5895245644350952 
3.8800000000037635, -0.5889220880830692 
3.8900000000037847, -0.5882369774972067 
3.9000000000038058, -0.5875205702309881 
3.910000000003827, -0.5868810228149701 
3.920000000003848, -0.5865327380256122 
3.930000000003869, -0.5868587127591176 
3.94000000000389, -0.5884411793515661 
3.9500000000039113, -0.5919248654243507 
3.9600000000039324, -0.5975015621410741 
3.9700000000039535, -0.6041170160424465 
3.9800000000039746, -0.6094872526898598 
3.9900000000039957, -0.6119106564879313 
4.000000000004016, -0.6118800006612417 
4.010000000003993, -0.6110906647342567 
4.02000000000397, -0.6106746950272051 
4.030000000003946, -0.6108410797500727 
4.040000000003923, -0.6113706096639279 
4.0500000000039, -0.6120107281769527 
4.0600000000038765, -0.6126005938368804 
4.070000000003853, -0.6130645593537125 
4.08000000000383, -0.6133767020931814 
4.090000000003807, -0.6135317600808132 
4.100000000003783, -0.6135272595302685 
4.11000000000376, -0.613353821040308 
4.120000000003737, -0.6129909393467503 
4.130000000003713, -0.6124078613517164 
4.14000000000369, -0.6115712830995635 
4.150000000003667, -0.6104612725025176 
4.1600000000036434, -0.6090915687071047 
4.17000000000362, -0.6075219789500108 
4.180000000003597, -0.6058495160134539 
4.1900000000035735, -0.6041793814876232 
4.20000000000355, -0.6025941380001316 
4.210000000003527, -0.6011389529762431 
4.220000000003504, -0.5998255642105037 
4.23000000000348, -0.5986461885755063 
4.240000000003457, -0.5975879395045232 
4.250000000003434, -0.5966429415113219 
4.26000000000341, -0.595813624122713 
4.270000000003387, -0.5951147855833316 
4.280000000003364, -0.5945742179405239 
4.2900000000033405, -0.5942329887936542 
4.300000000003317, -0.5941457862428793 
4.310000000003294, -0.5943814389235028 
4.320000000003271, -0.5950237522846995 
4.330000000003247, -0.5961728546119083 
4.340000000003224, -0.5979469172233487 
4.350000000003201, -0.6004829027419166 
4.360000000003177, -0.6039322946579585 
4.370000000003154, -0.6084431324123297 
4.380000000003131, -0.6141143898933547 
4.390000000003107, -0.6209101516117811 
4.400000000003084, -0.6285473031761953 
4.410000000003061, -0.6364343325771944 
4.4200000000030375, -0.6437837508034048 
4.430000000003014, -0.6499108131141517 
4.440000000002991, -0.6545043886417685 
4.450000000002968, -0.6576479713821837 
4.460000000002944, -0.6596381939517393 
4.470000000002921, -0.6607973156749672 
4.480000000002898, -0.6613789381458948 
4.490000000002874, -0.6615488450968747 
4.500000000002851, -0.66139561894267 
4.510000000002828, -0.6609429414714837 
4.520000000002804, -0.660151976135154 
4.530000000002781, -0.6589085115380255 
4.540000000002758, -0.6569895758037219 
4.5500000000027345, -0.6540041107912725 
4.560000000002711, -0.6493140355254264 
4.570000000002688, -0.6419932672770936 
4.580000000002665, -0.6309978611733995 
4.590000000002641, -0.6157794305057719 
4.600000000002618, -0.597162693828909 
4.610000000002595, -0.5774979871683261 
4.620000000002571, -0.559482383729436 
4.630000000002548, -0.5447862236260026 
4.640000000002525, -0.5337498470417049 
4.6500000000025015, -0.5259010510694242 
4.660000000002478, -0.5205158284052307 
4.670000000002455, -0.5169181950325712 
4.6800000000024315, -0.5145749131828873 
4.690000000002408, -0.5130959892645307 
4.700000000002385, -0.5122066145396661 
4.710000000002362, -0.5117171087881829 
4.720000000002338, -0.5114985622324456 
4.730000000002315, -0.5114649890731465 
4.740000000002292, -0.5115609692779957 
4.750000000002268, -0.5117536091589098 
4.760000000002245, -0.5120278326715152 
4.770000000002222, -0.5123839692235231 
4.7800000000021985, -0.5128361322001442 
4.790000000002175, -0.5134091732332764 
4.800000000002152, -0.5141317112735223 
4.810000000002129, -0.5150236981301419 
4.820000000002105, -0.516079719255323 
4.830000000002082, -0.5172538372271671 
4.840000000002059, -0.5184565781060798 
4.850000000002035, -0.5195732692647007 
4.860000000002012, -0.5204991685544553 
4.870000000001989, -0.5211702892317346 
4.880000000001965, -0.5215708289200911 
4.890000000001942, -0.5217182917010371 
4.900000000001919, -0.5216413503466633 
4.9100000000018955, -0.5213622510637224 
