t, s[1].omega / s[0].omega 
0, -0.7398727246241582 
0.009999999999999995, -0.7273096366914141 
0.019999999999999934, -0.7159171481074075 
0.029999999999999874, -0.7065337884135107 
0.04000000000000012, -0.6994099214031345 
0.050000000000000405, -0.6943714678410843 
0.06000000000000069, -0.691036378490461 
0.07000000000000098, -0.6889745071312655 
0.08000000000000126, -0.6877961737678515 
0.09000000000000155, -0.6871885779421755 
0.10000000000000184, -0.6869209347214549 
0.11000000000000212, -0.6868335168102874 
0.12000000000000241, -0.6868205968863401 
0.130000000000002, -0.6868133714909566 
0.1400000000000009, -0.6867660907697914 
0.1499999999999998, -0.6866468015007012 
0.1599999999999987, -0.6864331200365332 
0.1699999999999976, -0.6861126055414117 
0.1799999999999965, -0.6856858232064491 
0.1899999999999954, -0.6851683210131702 
0.1999999999999943, -0.6845875510835531 
0.2099999999999932, -0.68397411962707 
0.2199999999999921, -0.6833516357005686 
0.229999999999991, -0.6827310283511173 
0.2399999999999899, -0.6821119550039405 
0.2499999999999888, -0.6814892604618494 
0.2599999999999877, -0.6808602708128956 
0.2699999999999866, -0.6802298860541849 
0.2799999999999855, -0.6796130746101468 
0.2899999999999844, -0.6790360905978658 
0.2999999999999833, -0.6785377113239026 
0.3099999999999822, -0.6781708001203838 
0.3199999999999811, -0.6780035762170851 
0.32999999999998, -0.6781196307361372 
0.3399999999999789, -0.6786160009916534 
0.3499999999999778, -0.6795992233818414 
0.35999999999997667, -0.6811796607219099 
0.36999999999997557, -0.6834638415123607 
0.37999999999997447, -0.6865426484415621 
0.38999999999997337, -0.690470490042765 
0.39999999999997227, -0.6952295805701869 
0.40999999999997117, -0.7006798078771125 
0.41999999999997006, -0.7065150711822344 
0.42999999999996896, -0.7122746802088218 
0.43999999999996786, -0.7174530110699278 
0.44999999999996676, -0.7216723691904792 
0.45999999999996566, -0.7247990349740858 
0.46999999999996456, -0.7269223184487207 
0.47999999999996346, -0.7282440925871441 
0.48999999999996235, -0.7289748802217902 
0.49999999999996125, -0.7292806212796856 
0.5099999999999602, -0.7292701854688817 
0.519999999999959, -0.7290002988130072 
0.529999999999958, -0.7284824210195813 
0.5399999999999568, -0.727684819518051 
0.5499999999999557, -0.7265273052224794 
0.5599999999999546, -0.7248671497905803 
0.5699999999999535, -0.7224746694959346 
0.5799999999999524, -0.7189982822536845 
0.5899999999999513, -0.7139281158925687 
0.5999999999999502, -0.7066028643550567 
0.6099999999999491, -0.6963858339027035 
0.619999999999948, -0.6831691160679012 
0.6299999999999469, -0.668016011191111 
0.6399999999999458, -0.6531140569577343 
0.6499999999999447, -0.640638505038247 
0.6599999999999436, -0.6316200475646163 
0.6699999999999425, -0.6258655314915782 
0.6799999999999414, -0.6225734051184457 
0.6899999999999403, -0.6208878466290788 
0.6999999999999392, -0.6201432136898617 
0.7099999999999381, -0.6198968376205113 
0.719999999999937, -0.6198808861781855 
0.7299999999999359, -0.6199430274688379 
0.7399999999999348, -0.6199994219764403 
0.7499999999999337, -0.6200030707555791 
0.7599999999999326, -0.6199244049713755 
0.7699999999999315, -0.619740627090703 
0.7799999999999304, -0.6194316482823383 
0.7899999999999293, -0.6189816749553978 
0.7999999999999282, -0.6183853555248778 
0.8099999999999271, -0.6176552699488458 
0.819999999999926, -0.6168249496541858 
0.8299999999999249, -0.6159425951175553 
0.8399999999999238, -0.6150570076349161 
0.8499999999999227, -0.6142036482869873 
0.8599999999999216, -0.6133983984369472 
0.8699999999999205, -0.6126405656104703 
0.8799999999999194, -0.6119213094563996 
0.8899999999999183, -0.6112324191719626 
0.8999999999999172, -0.6105723702258352 
0.9099999999999161, -0.6099494021507816 
0.919999999999915, -0.6093830715595948 
0.9299999999999139, -0.6089058641672451 
0.9399999999999128, -0.6085657034339633 
0.9499999999999117, -0.6084294175769762 
0.9599999999999106, -0.6085867818860773 
0.9699999999999095, -0.6091545904296384 
0.9799999999999084, -0.6102800768091274 
0.9899999999999073, -0.6121424423787174 
0.9999999999999062, -0.61494950436851 
1.0099999999999052, -0.6189226030438764 
1.019999999999904, -0.6242568304547225 
1.029999999999903, -0.6310396689371249 
1.039999999999902, -0.639124401614939 
1.0499999999999008, -0.6480087101344735 
1.0599999999998997, -0.656848489670596 
1.0699999999998986, -0.6647155438983237 
1.0799999999998975, -0.6709783289977593 
1.0899999999998964, -0.6754966706492221 
1.0999999999998953, -0.6785084380044374 
1.1099999999998942, -0.6803894818143748 
1.119999999999893, -0.6814834944123654 
1.129999999999892, -0.682041041342874 
1.1399999999998909, -0.6822206702706703 
1.1499999999998898, -0.6821075279579447 
1.1599999999998887, -0.6817285386905686 
1.1699999999998876, -0.681057498704126 
1.1799999999998865, -0.6800080703370363 
1.1899999999998854, -0.6784132715574808 
1.1999999999998843, -0.6759920660949608 
1.2099999999998832, -0.6723149663688621 
1.219999999999882, -0.6668128729847763 
1.229999999999881, -0.6589220547009206 
1.2399999999998799, -0.6484396330518905 
1.2499999999998788, -0.6359305139256801 
1.2599999999998777, -0.6227363323621466 
1.2699999999998766, -0.6103963298891888 
1.2799999999998755, -0.5999763448812929 
1.2899999999998744, -0.5918455543098472 
1.2999999999998733, -0.585862341193984 
1.3099999999998722, -0.5816529948362575 
1.319999999999871, -0.5788030288364383 
1.32999999999987, -0.5769460138804774 
1.3399999999998689, -0.5757897155416707 
1.3499999999998678, -0.5751139491601462 
1.3599999999998666, -0.5747588074541763 
1.3699999999998655, -0.5746113377776961 
1.3799999999998644, -0.574593648214375 
1.3899999999998633, -0.5746533833281007 
1.3999999999998622, -0.5747567955367588 
1.4099999999998611, -0.5748843432556745 
1.41999999999986, -0.5750283971315201 
1.429999999999859, -0.5751919940893138 
1.4399999999998578, -0.5753868041667671 
1.4499999999998567, -0.5756283126519384 
1.4599999999998556, -0.5759275417808949 
1.4699999999998545, -0.5762813345034721 
1.4799999999998534, -0.5766657924551521 
1.4899999999998523, -0.5770377877052268 
1.4999999999998512, -0.5773459362747031 
1.5099999999998501, -0.5775460638265032 
1.519999999999849, -0.5776124040032853 
1.529999999999848, -0.5775392192174229 
1.5399999999998468, -0.5773348391304706 
1.5499999999998457, -0.5770139452064187 
1.5599999999998446, -0.5765926001138466 
1.5699999999998435, -0.5760877254742418 
1.5799999999998424, -0.5755214351958918 
1.5899999999998413, -0.5749310792998418 
1.5999999999998402, -0.5743870587449225 
1.6099999999998391, -0.574021010600219 
1.619999999999838, -0.5740638296929682 
1.629999999999837, -0.5748790138321651 
1.6399999999998358, -0.5769403905054068 
1.6499999999998347, -0.5806492011816091 
1.6599999999998336, -0.5859129051395185 
1.6699999999998325, -0.5917444655446673 
1.6799999999998314, -0.5966065866327265 
1.6899999999998303, -0.599594874387628 
1.6999999999998292, -0.6010398710622786 
1.709999999999828, -0.6018007393627076 
1.719999999999827, -0.6024482205471346 
1.729999999999826, -0.6031373442229813 
1.7399999999998248, -0.6038235869686186 
1.7499999999998237, -0.6044323502885152 
1.7599999999998226, -0.604917128416605 
1.7699999999998215, -0.6052607266810535 
1.7799999999998204, -0.6054618088835444 
1.7899999999998193, -0.6055227092729407 
1.7999999999998182, -0.6054414949745607 
1.809999999999817, -0.60520766607389 
1.819999999999816, -0.6048010865913783 
1.8299999999998149, -0.6041950369127013 
1.8399999999998138, -0.6033650582852814 
1.8499999999998127, -0.6023035739700376 
1.8599999999998116, -0.6010349313762806 
1.8699999999998105, -0.5996201632352383 
1.8799999999998094, -0.5981439575608285 
1.8899999999998083, -0.5966895537495819 
1.8999999999998072, -0.5953171064678385 
1.909999999999806, -0.5940563868195703 
1.919999999999805, -0.5929128251007045 
1.9299999999998039, -0.5918793230079966 
1.9399999999998028, -0.5909471693495034 
1.9499999999998017, -0.5901132019891587 
1.9599999999998006, -0.5893834207780128 
1.9699999999997995, -0.5887745119018741 
1.9799999999997984, -0.5883146270705292 
1.9899999999997973, -0.5880441408246087 
1.9999999999997962, -0.5880166107774526 
2.0099999999998173, -0.5882999688168027 
2.0199999999998384, -0.588977947124251 
2.0299999999998595, -0.5901516098795295 
2.0399999999998806, -0.5919402332748395 
2.0499999999999017, -0.5944791562378122 
2.059999999999923, -0.5979091305731236 
2.069999999999944, -0.6023474310349577 
2.079999999999965, -0.6078290703824181 
2.089999999999986, -0.6142177115507037 
2.100000000000007, -0.6211250172918704 
2.1100000000000283, -0.6279292921524352 
2.1200000000000494, -0.6339618694814402 
2.1300000000000705, -0.6387712989892864 
2.1400000000000916, -0.6422559395134868 
2.1500000000001127, -0.6445853442286775 
2.160000000000134, -0.646032432135553 
2.170000000000155, -0.6468506642444211 
2.180000000000176, -0.6472264280364276 
2.190000000000197, -0.6472762444708609 
2.2000000000002182, -0.6470574858498042 
2.2100000000002393, -0.6465765865574988 
2.2200000000002604, -0.6457886575832261 
2.2300000000002815, -0.6445858370164885 
2.2400000000003026, -0.6427728125854391 
2.2500000000003237, -0.6400324381785869 
2.260000000000345, -0.6359018097523004 
2.270000000000366, -0.6298193731735334 
2.280000000000387, -0.6213407919773366 
2.290000000000408, -0.610533701867461 
2.3000000000004293, -0.598263541998637 
2.3100000000004504, -0.5859532187935772 
2.3200000000004715, -0.574915789207271 
2.3300000000004926, -0.5658679407498103 
2.3400000000005137, -0.5589207875003959 
2.3500000000005348, -0.5538286419242907 
2.360000000000556, -0.550223723905619 
2.370000000000577, -0.5477473823977298 
2.380000000000598, -0.5460998495739399 
2.390000000000619, -0.5450482893316555 
2.4000000000006403, -0.5444189428282191 
2.4100000000006614, -0.5440854694057635 
2.4200000000006825, -0.5439580221364924 
2.4300000000007036, -0.5439743584273914 
2.4400000000007247, -0.5440931616937041 
2.450000000000746, -0.5442894362616684 
2.460000000000767, -0.5445516763241425 
2.470000000000788, -0.5448801658971504 
2.480000000000809, -0.5452851540893662 
2.49000000000083, -0.5457830691584207 
2.5000000000008513, -0.5463891001255209 
2.5100000000008724, -0.5471060811145597 
2.5200000000008935, -0.5479126850782242 
2.5300000000009146, -0.5487572978209494 
2.5400000000009357, -0.5495645105778556 
2.550000000000957, -0.5502550744488826 
2.560000000000978, -0.5507693938837479 
2.570000000000999, -0.5510803266043068 
2.58000000000102, -0.5511897644831482 
2.5900000000010412, -0.5511153869490611 
2.6000000000010624, -0.550877072286412 
2.6100000000010835, -0.5504877961361468 
2.6200000000011046, -0.5499488744887117 
2.6300000000011257, -0.5492473721732314 
2.6400000000011468, -0.5483532653325087 
2.650000000001168, -0.5472134383880473 
2.660000000001189, -0.545736849432221 
2.67000000000121, -0.5437580555544347 
2.680000000001231, -0.5409556900847355 
2.6900000000012523, -0.5367113802687793 
2.7000000000012734, -0.5300063831656068 
2.7100000000012945, -0.519731262739242 
2.7200000000013156, -0.5057544417224872 
2.7300000000013367, -0.4898664978814379 
2.740000000001358, -0.4749365010010799 
2.750000000001379, -0.4629911004240232 
2.7600000000014, -0.45447421690128864 
2.770000000001421, -0.4488354039504382 
2.780000000001442, -0.4452693207578068 
2.7900000000014633, -0.4430822948217423 
2.8000000000014844, -0.44177634680958555 
2.8100000000015055, -0.4410221816819003 
2.8200000000015266, -0.44061057832294026 
2.8300000000015477, -0.4404114181270177 
2.840000000001569, -0.44034512604192055 
2.85000000000159, -0.4403644037792235 
2.860000000001611, -0.44044330739359844 
2.870000000001632, -0.440571358613865 
2.8800000000016532, -0.4407509597625208 
2.8900000000016743, -0.44099647275890314 
2.9000000000016954, -0.44133297939724764 
2.9100000000017165, -0.4417924369239226 
2.9200000000017377, -0.4424053542136681 
2.9300000000017588, -0.443187671068475 
2.94000000000178, -0.44412543264252446 
2.950000000001801, -0.4451640806222116 
2.960000000001822, -0.4462121639410408 
2.970000000001843, -0.44716433204268186 
2.9800000000018643, -0.4479337796563022 
2.9900000000018854, -0.4484740021397511 
3.0000000000019065, -0.4487784057850777 
3.0100000000019276, -0.44886405489532855 
3.0200000000019487, -0.44875271148191825 
3.03000000000197, -0.4484565804668533 
3.040000000001991, -0.4479685490579513 
3.050000000002012, -0.4472529386531779 
3.060000000002033, -0.4462317729313773 
3.070000000002054, -0.4447612682646264 
3.0800000000020753, -0.4425946183498146 
3.0900000000020964, -0.4393376961059123 
3.1000000000021175, -0.4344414995712119 
3.1100000000021386, -0.42734460919859085 
3.1200000000021597, -0.4178753095853597 
3.130000000002181, -0.40671002298694336 
3.140000000002202, -0.395287488584147 
3.150000000002223, -0.385039437768918 
3.160000000002244, -0.37672247906784817 
3.1700000000022652, -0.37039386400383634 
3.1800000000022863, -0.36574298094033 
3.1900000000023074, -0.36237677855137107 
3.2000000000023285, -0.35995319432330636 
3.2100000000023496, -0.3582146707785396 
3.2200000000023707, -0.3569809832556175 
3.230000000002392, -0.35613229052034984 
3.240000000002413, -0.355593834955812 
3.250000000002434, -0.35532519101279025 
3.260000000002455, -0.35531414286872864 
3.2700000000024763, -0.3555747182422251 
3.2800000000024974, -0.3561490773183514 
3.2900000000025185, -0.35711320327483187 
3.3000000000025396, -0.35858620298089977 
3.3100000000025607, -0.3607417055857175 
3.3200000000025818, -0.3638155956291097 
3.330000000002603, -0.36809409347698063 
3.340000000002624, -0.37384861990353846 
3.350000000002645, -0.3811742120553899 
3.360000000002666, -0.38974495856462343 
3.3700000000026873, -0.39867824189500894 
3.3800000000027084, -0.4068044017295166 
3.3900000000027295, -0.4132631053908134 
3.4000000000027506, -0.41785467224005296 
3.4100000000027717, -0.42087490720264426 
3.420000000002793, -0.42276597640408464 
3.430000000002814, -0.4239043955316519 
3.440000000002835, -0.4245486691644239 
3.450000000002856, -0.424857644521561 
3.460000000002877, -0.42492075290927467 
3.4700000000028983, -0.4247810835649797 
3.4800000000029194, -0.4244499777727754 
3.4900000000029405, -0.42391684081730485 
3.5000000000029616, -0.4231589349499192 
3.5100000000029827, -0.42215560599320046 
3.520000000003004, -0.4209082316948768 
3.530000000003025, -0.4194593942291829 
3.540000000003046, -0.4178970887296173 
3.550000000003067, -0.4163344324189329 
3.5600000000030882, -0.4148744154160699 
3.5700000000031094, -0.4135821014968383 
3.5800000000031305, -0.4124776937992782 
3.5900000000031516, -0.4115466561654716 
3.6000000000031727, -0.41075601247413707 
3.6100000000031938, -0.41006888360211535 
3.620000000003215, -0.40945410455821857 
3.630000000003236, -0.4088908895859683 
3.640000000003257, -0.4083701881056152 
3.650000000003278, -0.40789499468441204 
3.6600000000032993, -0.4074817117764785 
3.6700000000033204, -0.4071642847141397 
3.6800000000033415, -0.4070027896954317 
3.6900000000033626, -0.40709862938161595 
3.7000000000033837, -0.40761910015531394 
3.710000000003405, -0.40883327513245 
3.720000000003426, -0.41115390802497853 
3.730000000003447, -0.4151533677381102 
3.740000000003468, -0.4214543064132587 
3.750000000003489, -0.4303078479964779 
3.7600000000035103, -0.44080842543649046 
3.7700000000035314, -0.45050589337208324 
3.7800000000035525, -0.4567742094447943 
3.7900000000035736, -0.45903937444475923 
3.8000000000035947, -0.4588065316516278 
3.810000000003616, -0.4578064427602079 
3.820000000003637, -0.4569433278720426 
3.830000000003658, -0.4564369565239291 
3.840000000003679, -0.4562238308087136 
3.8500000000037002, -0.45618705338573495 
3.8600000000037213, -0.4562327804632248 
3.8700000000037424, -0.4563003099502838 
3.8800000000037635, -0.45635370362533945 
3.8900000000037847, -0.45637206821223497 
3.9000000000038058, -0.45634279166424385 
3.910000000003827, -0.4562581721815578 
3.920000000003848, -0.45611511248454023 
3.930000000003869, -0.4559172962665314 
3.94000000000389, -0.45567848177538284 
3.9500000000039113, -0.4554243036682638 
3.9600000000039324, -0.45518956949222106 
3.9700000000039535, -0.4550099473321546 
3.9800000000039746, -0.45491049602896033 
3.9900000000039957, -0.45489587551909494 
4.000000000004016, -0.4549467240423972 
4.010000000003993, -0.4550243915901316 
4.02000000000397, -0.4550826461698242 
4.030000000003946, -0.45508101254451294 
4.040000000003923, -0.45499324094160826 
4.0500000000039, -0.4548080172382967 
4.0600000000038765, -0.4545240897912324 
4.070000000003853, -0.4541439490428467 
4.08000000000383, -0.45366878441261527 
4.090000000003807, -0.4530952154786072 
4.100000000003783, -0.4524127677739756 
4.11000000000376, -0.45159978633023645 
4.120000000003737, -0.4506127358944048 
4.130000000003713, -0.4493568071596261 
4.14000000000369, -0.4476117047737792 
4.150000000003667, -0.4448750106514954 
4.1600000000036434, -0.44014376966799845 
4.17000000000362, -0.4319371457027595 
4.180000000003597, -0.41920906323896634 
4.1900000000035735, -0.40294151322941624 
4.20000000000355, -0.3862088873327306 
4.210000000003527, -0.37195113768164406 
4.220000000003504, -0.3613153318385979 
4.23000000000348, -0.35398418725773156 
4.240000000003457, -0.34912955020295616 
4.250000000003434, -0.3459708095002102 
4.26000000000341, -0.34393218060074515 
4.270000000003387, -0.34262894747750056 
4.280000000003364, -0.34181524632358806 
4.2900000000033405, -0.3413378872755318 
4.300000000003317, -0.341104279639934 
4.310000000003294, -0.3410623295782806 
4.320000000003271, -0.3411888423584254 
4.330000000003247, -0.3414837516747916 
4.340000000003224, -0.3419683633447639 
4.350000000003201, -0.34268619174779524 
4.360000000003177, -0.3437046810991835 
4.370000000003154, -0.3451148934869523 
4.380000000003131, -0.3470237459956572 
4.390000000003107, -0.3495298249387614 
4.400000000003084, -0.35267305113456915 
4.410000000003061, -0.35636228933955405 
4.4200000000030375, -0.3603240370967764 
4.430000000003014, -0.36414731829133296 
4.440000000002991, -0.3674414142431687 
4.450000000002968, -0.3699927410451577 
4.460000000002944, -0.37179509209441763 
4.470000000002921, -0.3729678593199289 
4.480000000002898, -0.3736603024114425 
4.490000000002874, -0.3739972208804623 
4.500000000002851, -0.37406263446676796 
4.510000000002828, -0.37390118369594993 
4.520000000002804, -0.3735236866475758 
4.530000000002781, -0.37291221077460435 
4.540000000002758, -0.3720258673268 
4.5500000000027345, -0.37081236604595796 
4.560000000002711, -0.3692315985386648 
4.570000000002688, -0.367291268155142 
4.580000000002665, -0.36507764827603667 
4.590000000002641, -0.36275156217206345 
4.600000000002618, -0.3604987668035143 
4.610000000002595, -0.35846631001966933 
4.620000000002571, -0.3567280221567161 
4.630000000002548, -0.35528970057007014 
4.640000000002525, -0.3541147197410801 
4.6500000000025015, -0.3531497843969138 
4.660000000002478, -0.35234248143049285 
4.670000000002455, -0.35165052282037945 
4.6800000000024315, -0.351045209816145 
4.690000000002408, -0.350511901640267 
4.700000000002385, -0.35004991398227103 
4.710000000002362, -0.3496737767569475 
4.720000000002338, -0.34941744227944216 
4.730000000002315, -0.3493431021579453 
4.740000000002292, -0.34955669366134956 
4.750000000002268, -0.3502321949623594 
4.760000000002245, -0.3516436191707596 
4.770000000002222, -0.35418866786269404 
4.7800000000021985, -0.3583415194601066 
4.790000000002175, -0.36437770537975467 
4.800000000002152, -0.371687309435694 
4.810000000002129, -0.378039417141007 
4.820000000002105, -0.3803745033246378 
4.830000000002082, -0.37762529575877646 
4.840000000002059, -0.3718627285614101 
4.850000000002035, -0.36591025311945347 
4.860000000002012, -0.3612486148700246 
4.870000000001989, -0.35807704838443893 
4.880000000001965, -0.35607513604807706 
4.890000000001942, -0.3548652031539128 
4.900000000001919, -0.35415759836295274 
