t, s[1].omega / s[0].omega 
0, -0.21984096494646593 
0.009999999999999995, -0.20530400074416466 
0.019999999999999934, -0.19422614691253798 
0.029999999999999874, -0.1864915074276619 
0.04000000000000012, -0.1812803813788386 
0.050000000000000405, -0.17778679449965068 
0.06000000000000069, -0.17542294732158803 
0.07000000000000098, -0.17380547656352385 
0.08000000000000126, -0.17269702319177543 
0.09000000000000155, -0.1719571530216964 
0.10000000000000184, -0.17151074288784415 
0.11000000000000212, -0.17133093226433244 
0.12000000000000241, -0.17143340183117936 
0.130000000000002, -0.1718808361465179 
0.1400000000000009, -0.17279900481225993 
0.1499999999999998, -0.17440859410845422 
0.1599999999999987, -0.17707841401264673 
0.1699999999999976, -0.1813989413631747 
0.1799999999999965, -0.1882353015873692 
0.1899999999999954, -0.19858656904707553 
0.1999999999999943, -0.21284624614713604 
0.2099999999999932, -0.22929617094317473 
0.2199999999999921, -0.24361673180193733 
0.229999999999991, -0.2520630404762828 
0.2399999999999899, -0.2548405502737301 
0.2499999999999888, -0.25458991038714396 
0.2599999999999877, -0.2534555723442594 
0.2699999999999866, -0.25237559198647436 
0.2799999999999855, -0.2515832369877163 
0.2899999999999844, -0.25106002196139887 
0.2999999999999833, -0.25073515935761886 
0.3099999999999822, -0.25054685015241457 
0.3199999999999811, -0.2504536748062371 
0.32999999999998, -0.2504326852701708 
0.3399999999999789, -0.25047605595053446 
0.3499999999999778, -0.25058939039116324 
0.35999999999997667, -0.2507920879562008 
0.36999999999997557, -0.25111929021201856 
0.37999999999997447, -0.2516243739473086 
0.38999999999997337, -0.25238027171365707 
0.39999999999997227, -0.2534767284089351 
0.40999999999997117, -0.2550084141770993 
0.41999999999997006, -0.2570463110066783 
0.42999999999996896, -0.2595878433902722 
0.43999999999996786, -0.2625014127431563 
0.44999999999996676, -0.2655151282982925 
0.45999999999996566, -0.2682970778063184 
0.46999999999996456, -0.27059106308066166 
0.47999999999996346, -0.27229900518884764 
0.48999999999996235, -0.27345933071869494 
0.49999999999996125, -0.27417339178930483 
0.5099999999999602, -0.2745451485208431 
0.519999999999959, -0.27465333667615593 
0.529999999999958, -0.2745456385519184 
0.5399999999999568, -0.2742418697796976 
0.5499999999999557, -0.27373989069681676 
0.5599999999999546, -0.273023730421491 
0.5699999999999535, -0.2720763422296377 
0.5799999999999524, -0.2708985539144428 
0.5899999999999513, -0.26952952148305453 
0.5999999999999502, -0.26805525592598095 
0.6099999999999491, -0.2665925628691071 
0.619999999999948, -0.26525351483907844 
0.6299999999999469, -0.26411311388935677 
0.6399999999999458, -0.2631976529135138 
0.6499999999999447, -0.26249217404240144 
0.6599999999999436, -0.26195573848341025 
0.6699999999999425, -0.26153638415835767 
0.6799999999999414, -0.2611828883119847 
0.6899999999999403, -0.26085234309156013 
0.6999999999999392, -0.2605129848352832 
0.7099999999999381, -0.2601427530078777 
0.719999999999937, -0.25972506571799203 
0.7299999999999359, -0.259243116824647 
0.7399999999999348, -0.2586726037059394 
0.7499999999999337, -0.2579705761796257 
0.7599999999999326, -0.25705475150371104 
0.7699999999999315, -0.2557624303075715 
0.7799999999999304, -0.2537735194417143 
0.7899999999999293, -0.2504974086616732 
0.7999999999999282, -0.24501925729852414 
0.8099999999999271, -0.23641516236339372 
0.819999999999926, -0.22468563039506137 
0.8299999999999249, -0.21148265031360108 
0.8399999999999238, -0.19922011996350475 
0.8499999999999227, -0.1894216513349811 
0.8599999999999216, -0.18228835870627214 
0.8699999999999205, -0.17731817946107914 
0.8799999999999194, -0.17389325526168273 
0.8899999999999183, -0.17151689867737324 
0.8999999999999172, -0.16984554230250995 
0.9099999999999161, -0.16865735336920448 
0.919999999999915, -0.1678160156073633 
0.9299999999999139, -0.16724452297036332 
0.9399999999999128, -0.1669098749990984 
0.9499999999999117, -0.1668171078408353 
0.9599999999999106, -0.16701203038106033 
0.9699999999999095, -0.16759390525721785 
0.9799999999999084, -0.16874143427768634 
0.9899999999999073, -0.17075635653184665 
0.9999999999999062, -0.17412210445873577 
1.0099999999999052, -0.17953623700308707 
1.019999999999904, -0.1877453057530377 
1.029999999999903, -0.19877178429142833 
1.039999999999902, -0.21036087320096902 
1.0499999999999008, -0.21768497924761548 
1.0599999999998997, -0.2174553786188394 
1.0699999999998986, -0.21171322521248376 
1.0799999999998975, -0.2047370198877998 
1.0899999999998964, -0.1989916979056832 
1.0999999999998953, -0.1949465563023582 
1.1099999999998942, -0.19227453332359312 
1.119999999999893, -0.1905495212265677 
1.129999999999892, -0.18944707692177715 
1.1399999999998909, -0.18875603308037045 
1.1499999999998898, -0.18834909774747766 
1.1599999999998887, -0.18815575580546054 
1.1699999999998876, -0.1881449319204665 
1.1799999999998865, -0.18831633189128427 
1.1899999999998854, -0.18869860529048807 
1.1999999999998843, -0.1893532937251606 
1.2099999999998832, -0.1903842616539628 
1.219999999999882, -0.19195212200633818 
1.229999999999881, -0.19429028089952666 
1.2399999999998799, -0.19770920834688957 
1.2499999999998788, -0.2025519983807924 
1.2599999999998777, -0.2090350003568307 
1.2699999999998766, -0.2169446476808498 
1.2799999999998755, -0.225394502167985 
1.2899999999998744, -0.23308529940913827 
1.2999999999998733, -0.23905594975632574 
1.3099999999998722, -0.24313334491963873 
1.319999999999871, -0.24569476506024848 
1.32999999999987, -0.24723278126305193 
1.3399999999998689, -0.24813133260075274 
1.3499999999998678, -0.24863545929688144 
1.3599999999998666, -0.248888233783489 
1.3699999999998655, -0.248969956593241 
1.3799999999998644, -0.24892498346086872 
1.3899999999998633, -0.24877849804507482 
1.3999999999998622, -0.24854784201771163 
1.4099999999998611, -0.24825146748653087 
1.41999999999986, -0.24791625156189304 
1.429999999999859, -0.2475816799402119 
1.4399999999998578, -0.24729855915444166 
1.4499999999998567, -0.2471216066665128 
1.4599999999998556, -0.2470982093379122 
1.4699999999998545, -0.24725672205280103 
1.4799999999998534, -0.2475965385328441 
1.4899999999998523, -0.24808220744186507 
1.4999999999998512, -0.24864615434423323 
1.5099999999998501, -0.24920380442589968 
1.519999999999849, -0.24967674529358974 
1.529999999999848, -0.250011236129352 
1.5399999999998468, -0.250182252597241 
1.5499999999998457, -0.2501845004416803 
1.5599999999998446, -0.2500184870812733 
1.5699999999998435, -0.24967772101373562 
1.5799999999998424, -0.24913826159912125 
1.5899999999998413, -0.24834926281317443 
1.5999999999998402, -0.2472240675521633 
1.6099999999998391, -0.24563633900397694 
1.619999999999838, -0.24343538487003696 
1.629999999999837, -0.240503209200007 
1.6399999999998358, -0.23685778266828508 
1.6499999999998347, -0.2327391402023964 
1.6599999999998336, -0.22856602084187863 
1.6699999999998325, -0.2247545838618342 
1.6799999999998314, -0.22155313462731557 
1.6899999999998303, -0.2190134673431901 
1.6999999999998292, -0.21706101913757658 
1.709999999999828, -0.21557427908876353 
1.719999999999827, -0.21443291712335277 
1.729999999999826, -0.21353742417931398 
1.7399999999998248, -0.21281335863335155 
1.7499999999998237, -0.2122093156994857 
1.7599999999998226, -0.21169311107571748 
1.7699999999998215, -0.21124824655319635 
1.7799999999998204, -0.21087163207752835 
1.7899999999998193, -0.2105728388713941 
1.7999999999998182, -0.21037418432126104 
1.809999999999817, -0.2103084346680732 
1.819999999999816, -0.21040343426196303 
1.8299999999998149, -0.21062267806316676 
1.8399999999998138, -0.21068889096156104 
1.8499999999998127, -0.20969371973872689 
1.8599999999998116, -0.20565669063928166 
1.8699999999998105, -0.19613091895055573 
1.8799999999998094, -0.18091980668461044 
1.8899999999998083, -0.16369426028317785 
1.8999999999998072, -0.1487829474030906 
1.909999999999806, -0.13789697466011322 
1.919999999999805, -0.13058991578228835 
1.9299999999998039, -0.12581662953779604 
1.9399999999998028, -0.12268982418549246 
1.9499999999998017, -0.12061241576232076 
1.9599999999998006, -0.11921561923427682 
1.9699999999997995, -0.11828102168993737 
1.9799999999997984, -0.11768603587957938 
1.9899999999997973, -0.1173722968951203 
1.9999999999997962, -0.11733087919967652 
2.0099999999998173, -0.11760049980121741 
2.0199999999998384, -0.11827833684723185 
2.0299999999998595, -0.11954664233288423 
2.0399999999998806, -0.1217212637649729 
2.0499999999999017, -0.12532540296358924 
2.059999999999923, -0.13116103288154207 
2.069999999999944, -0.14022441837695765 
2.079999999999965, -0.15301731971513136 
2.089999999999986, -0.16781919618409297 
2.100000000000007, -0.17966946913081489 
2.1100000000000283, -0.18411371277637384 
2.1200000000000494, -0.18205615838286404 
2.1300000000000705, -0.17752405424354942 
2.1400000000000916, -0.1732730558294432 
2.1500000000001127, -0.17011989934327482 
2.160000000000134, -0.16798295743174677 
2.170000000000155, -0.16658443820105548 
2.180000000000176, -0.16568541257557368 
2.190000000000197, -0.1651239691298004 
2.2000000000002182, -0.16480188922185163 
2.2100000000002393, -0.16466669230832803 
2.2200000000002604, -0.16469956242867884 
2.2300000000002815, -0.16490995665772445 
2.2400000000003026, -0.16533613492928886 
2.2500000000003237, -0.16605124802226012 
2.260000000000345, -0.16717511233963941 
2.270000000000366, -0.1688912479609146 
2.280000000000387, -0.17146461977037156 
2.290000000000408, -0.17524181909427944 
2.3000000000004293, -0.18058491456439446 
2.3100000000004504, -0.1876603593752333 
2.3200000000004715, -0.19608320866412784 
2.3300000000004926, -0.20473419296488443 
2.3400000000005137, -0.21222855011894098 
2.3500000000005348, -0.21776069338881107 
2.360000000000556, -0.22137890619946837 
2.370000000000577, -0.223578933767193 
2.380000000000598, -0.224869204230368 
2.390000000000619, -0.22560874034185413 
2.4000000000006403, -0.22601455119723166 
2.4100000000006614, -0.22620954999052373 
2.4200000000006825, -0.22626198172569004 
2.4300000000007036, -0.22621032151327364 
2.4400000000007247, -0.22607847331853348 
2.450000000000746, -0.22588605240358023 
2.460000000000767, -0.22565632217919637 
2.470000000000788, -0.22542204221987552 
2.480000000000809, -0.22522779113867183 
2.49000000000083, -0.22512722815826236 
2.5000000000008513, -0.22517541498365984 
2.5100000000008724, -0.2254179197700413 
2.5200000000008935, -0.2258782517391862 
2.5300000000009146, -0.22654500298652663 
2.5400000000009357, -0.22736331109378005 
2.550000000000957, -0.22823973316645318 
2.560000000000978, -0.22906579981769898 
2.570000000000999, -0.22975038558563549 
2.58000000000102, -0.23024080470184746 
2.5900000000010412, -0.2305221161541655 
2.6000000000010624, -0.23060148739930622 
2.6100000000010835, -0.23049020014928417 
2.6200000000011046, -0.23019012013787496 
2.6300000000011257, -0.2296849788173109 
2.6400000000011468, -0.22893489066988354 
2.650000000001168, -0.227874682222805 
2.660000000001189, -0.2264214395704819 
2.67000000000121, -0.22450139998122487 
2.680000000001231, -0.2221017178001743 
2.6900000000012523, -0.21932635080043364 
2.7000000000012734, -0.21640267064067814 
2.7100000000012945, -0.21360599129724728 
2.7200000000013156, -0.21115132337998177 
2.7300000000013367, -0.2091358345510229 
2.740000000001358, -0.20755273044083009 
2.750000000001379, -0.20633665260877226 
2.7600000000014, -0.20540302262061597 
2.770000000001421, -0.20467069118197395 
2.780000000001442, -0.20407188174385876 
2.7900000000014633, -0.20355491830356548 
2.8000000000014844, -0.20308304094844912 
2.8100000000015055, -0.2026311507462609 
2.8200000000015266, -0.2021816077820578 
2.8300000000015477, -0.20171936966676823 
2.840000000001569, -0.20122531701021348 
2.85000000000159, -0.20066393888497344 
2.860000000001611, -0.19995607859157397 
2.870000000001632, -0.19891701660624853 
2.8800000000016532, -0.19712903451025537 
2.8900000000016743, -0.1937481402895827 
2.9000000000016954, -0.18745063532725123 
2.9100000000017165, -0.17711526381216752 
2.9200000000017377, -0.1633653182450015 
2.9300000000017588, -0.1489629022939742 
2.94000000000178, -0.13670059337477256 
2.950000000001801, -0.12762184156356987 
2.960000000001822, -0.1213692156319032 
2.970000000001843, -0.11716615538379702 
2.9800000000018643, -0.11433120031325168 
2.9900000000018854, -0.11238813166769397 
3.0000000000019065, -0.11103236959989671 
3.0100000000019276, -0.11007757769282282 
3.0200000000019487, -0.10941539784140597 
3.03000000000197, -0.10899089363888084 
3.040000000001991, -0.10879041142181375 
3.050000000002012, -0.10883939179337185 
3.060000000002033, -0.10920971047503455 
3.070000000002054, -0.11003787242465501 
3.0800000000020753, -0.1115547477615699 
3.0900000000020964, -0.11411621246393504 
3.1000000000021175, -0.11817402653399837 
3.1100000000021386, -0.12397707093386903 
3.1200000000021597, -0.13059147100275553 
3.130000000002181, -0.1344779930164067 
3.140000000002202, -0.1307564270022416 
3.150000000002223, -0.11908980800181264 
3.160000000002244, -0.10497767145416415 
3.1700000000022652, -0.09325673924974441 
3.1800000000022863, -0.08510704211944917 
3.1900000000023074, -0.07981959613700143 
3.2000000000023285, -0.07643773783589074 
3.2100000000023496, -0.07425689067319755 
3.2200000000023707, -0.072836420697651 
3.230000000002392, -0.07191801514588717 
3.240000000002413, -0.07135844969982594 
3.250000000002434, -0.0710891910099761 
3.260000000002455, -0.07109683175104979 
3.2700000000024763, -0.07141912298765617 
3.2800000000024974, -0.07215541866852847 
3.2900000000025185, -0.07349476771526384 
3.3000000000025396, -0.07576893931597137 
3.3100000000025607, -0.07953630531100127 
3.3200000000025818, -0.08567126109099726 
3.330000000002603, -0.09529412819525816 
3.340000000002624, -0.10902935036934835 
3.350000000002645, -0.12507440029545727 
3.360000000002666, -0.13811594509670982 
3.3700000000026873, -0.1435728527656988 
3.3800000000027084, -0.14252401466749653 
3.3900000000027295, -0.1389595058125029 
3.4000000000027506, -0.13547934813418366 
3.4100000000027717, -0.13285787223409976 
3.420000000002793, -0.13106013370931185 
3.430000000002814, -0.12987135384567375 
3.440000000002835, -0.1291025492095019 
3.450000000002856, -0.12862595910331212 
3.460000000002877, -0.1283663648155377 
3.4700000000028983, -0.1282881415851859 
3.4800000000029194, -0.12838729036733093 
3.4900000000029405, -0.1286896749760153 
3.5000000000029616, -0.12925553982652066 
3.5100000000029827, -0.13019096406146063 
3.520000000003004, -0.1316674702648143 
3.530000000003025, -0.13394958884442285 
3.540000000003046, -0.1374212943312174 
3.550000000003067, -0.14257316545968615 
3.5600000000030882, -0.1498521061712397 
3.5700000000031094, -0.1592492644741929 
3.5800000000031305, -0.16977296213615395 
3.5900000000031516, -0.1795606650179355 
3.6000000000031727, -0.18704410825476012 
3.6100000000031938, -0.1919009695410619 
3.620000000003215, -0.19473578887505325 
3.630000000003236, -0.1963102885519769 
3.640000000003257, -0.19717310763561943 
3.650000000003278, -0.19764314169303182 
3.6600000000032993, -0.19789056202865926 
3.6700000000033204, -0.19800467891146548 
3.6800000000033415, -0.19803398353612828 
3.6900000000033626, -0.1980077770221796 
3.7000000000033837, -0.19794844093626668 
3.710000000003405, -0.1978795146246366 
3.720000000003426, -0.19783170101211506 
3.730000000003447, -0.19784689927836713 
3.740000000003468, -0.19797932416984562 
3.750000000003489, -0.1982927401717472 
3.7600000000035103, -0.19885306048213172 
3.7700000000035314, -0.19971487148435718 
3.7800000000035525, -0.20089991308828953 
3.7900000000035736, -0.20237015958233623 
3.8000000000035947, -0.20401101846682818 
3.810000000003616, -0.20564895217226115 
3.820000000003637, -0.20710815456701787 
3.830000000003658, -0.20827092081840873 
3.840000000003679, -0.2090991633164983 
3.8500000000037002, -0.2096136195264846 
3.8600000000037213, -0.20985875402665397 
3.8700000000037424, -0.20987626147345323 
3.8800000000037635, -0.20969204261560526 
3.8900000000037847, -0.20931243727722032 
3.9000000000038058, -0.20872574643150082 
3.910000000003827, -0.20790855226473398 
3.920000000003848, -0.20683910331312932 
3.930000000003869, -0.20551896936212236 
3.94000000000389, -0.20399640916720013 
3.9500000000039113, -0.2023743283517141 
3.9600000000039324, -0.20078813762012135 
3.9700000000039535, -0.1993624184774374 
3.9800000000039746, -0.1981753478541805 
3.9900000000039957, -0.1972495901590876 
4.000000000004016, -0.1965639629091753 
4.010000000003993, -0.19607102859811937 
4.02000000000397, -0.19571223149155864 
4.030000000003946, -0.19542925786849671 
4.040000000003923, -0.1951717961387712 
4.0500000000039, -0.19490102430093018 
4.0600000000038765, -0.19458847942810847 
4.070000000003853, -0.19421121688109205 
4.08000000000383, -0.19374450003808222 
4.090000000003807, -0.19315208382071386 
4.100000000003783, -0.19237209141512474 
4.11000000000376, -0.19129432945646516 
4.120000000003737, -0.18972452994601913 
4.130000000003713, -0.18733991564526173 
4.14000000000369, -0.18367733894801214 
4.150000000003667, -0.17826790163718093 
4.1600000000036434, -0.17102374671032144 
4.17000000000362, -0.16263609148002273 
4.180000000003597, -0.15437695189138942 
4.1900000000035735, -0.14732510791183462 
4.20000000000355, -0.1418830381907374 
4.210000000003527, -0.13791643932867187 
4.220000000003504, -0.13508939963524208 
4.23000000000348, -0.13307283299482847 
4.240000000003457, -0.13161256042491684 
4.250000000003434, -0.13053102109864376 
4.26000000000341, -0.12971075975542423 
4.270000000003387, -0.12907794076800844 
4.280000000003364, -0.12859035956960566 
4.2900000000033405, -0.12823014445441067 
4.300000000003317, -0.12800047961874902 
4.310000000003294, -0.12792542800615608 
4.320000000003271, -0.1280506384144772 
4.330000000003247, -0.12843741557164565 
4.340000000003224, -0.1291255218200042 
4.350000000003201, -0.1299958268586282 
4.360000000003177, -0.13039750403359057 
4.370000000003154, -0.12852121900830057 
4.380000000003131, -0.12144326918928146 
4.390000000003107, -0.10776313585453012 
4.400000000003084, -0.09066025044339397 
4.410000000003061, -0.07523313553928508 
4.4200000000030375, -0.06391307470583289 
4.430000000003014, -0.056403887589949284 
4.440000000002991, -0.051576980745578926 
4.450000000002968, -0.04845874935494225 
4.460000000002944, -0.04640456442642528 
4.470000000002921, -0.04502437280548279 
4.480000000002898, -0.04409105368883355 
4.490000000002874, -0.04347827533665667 
4.500000000002851, -0.04312532590528022 
4.510000000002828, -0.04302065605031766 
4.520000000002804, -0.043199028768000955 
4.530000000002781, -0.04375078731112198 
4.540000000002758, -0.044843784058845704 
4.5500000000027345, -0.04675478213829943 
4.560000000002711, -0.04988056294940059 
4.570000000002688, -0.054597597624122876 
4.580000000002665, -0.06059881420255799 
4.590000000002641, -0.06536410931898363 
4.600000000002618, -0.0636646562529927 
4.610000000002595, -0.052669686515910676 
4.620000000002571, -0.03704985378069293 
4.630000000002548, -0.02325492310931773 
4.640000000002525, -0.013565209481217288 
4.6500000000025015, -0.007351921587828268 
4.660000000002478, -0.0034430640134444092 
4.670000000002455, -0.0009541225669493357 
4.6800000000024315, 0.0004600908432333007 
4.690000000002408, 0.0010815501992866622 
4.700000000002385, 0.0013191687853121392 
4.710000000002362, 0.0012594208162610536 
4.720000000002338, 0.000927531304353107 
4.730000000002315, 0.0002951478928170541 
4.740000000002292, -0.0004391618111522496 
4.750000000002268, -0.0015925609791714312 
4.760000000002245, -0.003617386385941988 
4.770000000002222, -0.006988820457433373 
4.7800000000021985, -0.012282101355966487 
4.790000000002175, -0.019599677400527687 
4.800000000002152, -0.02688026059974486 
4.810000000002129, -0.0285064681424063 
4.820000000002105, -0.020041091525838516 
