t, s[1].omega / s[0].omega 
0, -0.9499969118430233 
0.009999999999999995, -0.9496253986679438 
0.019999999999999934, -0.9491264062839926 
0.029999999999999874, -0.9484918346151907 
0.04000000000000012, -0.9477138870879263 
0.050000000000000405, -0.9467912549970614 
0.06000000000000069, -0.9457342970655301 
0.07000000000000098, -0.9445681607697793 
0.08000000000000126, -0.9433338304985471 
0.09000000000000155, -0.9420873315166086 
0.10000000000000184, -0.9408968444518161 
0.11000000000000212, -0.9398371519502224 
0.12000000000000241, -0.9389814389941836 
0.130000000000002, -0.9383918799252197 
0.1400000000000009, -0.9381115417525393 
0.1499999999999998, -0.9381597861215074 
0.1599999999999987, -0.9385317140795528 
0.1699999999999976, -0.939200672402062 
0.1799999999999965, -0.9401225447846034 
0.1899999999999954, -0.9412411649601328 
0.1999999999999943, -0.9424945972807103 
0.2099999999999932, -0.9438217406192427 
0.2199999999999921, -0.9451682158410541 
0.229999999999991, -0.9464904206967029 
0.2399999999999899, -0.9477570121229532 
0.2499999999999888, -0.9489475669437195 
0.2599999999999877, -0.9500486542191727 
0.2699999999999866, -0.951048194171118 
0.2799999999999855, -0.951929800984151 
0.2899999999999844, -0.9526693784893515 
0.2999999999999833, -0.9532359008275185 
0.3099999999999822, -0.9535967546891684 
0.3199999999999811, -0.9537258116695015 
0.32999999999998, -0.9536109636531549 
0.3399999999999789, -0.9532584380371272 
0.3499999999999778, -0.952693487404047 
0.35999999999997667, -0.9519591708948624 
0.36999999999997557, -0.9511152925491905 
0.37999999999997447, -0.9502380882745 
0.38999999999997337, -0.9494191502102002 
0.39999999999997227, -0.9487608254392945 
0.40999999999997117, -0.9483660922267722 
0.41999999999997006, -0.948323880999626 
0.42999999999996896, -0.9486943513957214 
0.43999999999996786, -0.9494998886521419 
0.44999999999996676, -0.9507250379265675 
0.45999999999996566, -0.9523241199261352 
0.46999999999996456, -0.9542323857752208 
0.47999999999996346, -0.9563768264141285 
0.48999999999996235, -0.9586847404506837 
0.49999999999996125, -0.961089733771937 
0.5099999999999602, -0.9635352029354052 
0.519999999999959, -0.9659751261051522 
0.529999999999958, -0.9683719431136519 
0.5399999999999568, -0.9706917887880235 
0.5499999999999557, -0.9728982902006306 
0.5599999999999546, -0.9749472302760834 
0.5699999999999535, -0.9767849876921096 
0.5799999999999524, -0.9783529246502524 
0.5899999999999513, -0.9795973610294332 
0.5999999999999502, -0.9804814466102809 
0.6099999999999491, -0.9809936302774644 
0.619999999999948, -0.9811493829193773 
0.6299999999999469, -0.9809871181998294 
0.6399999999999458, -0.9805624491584275 
0.6499999999999447, -0.9799449133077924 
0.6599999999999436, -0.9792187618850454 
0.6699999999999425, -0.9784861235342548 
0.6799999999999414, -0.9778681692741423 
0.6899999999999403, -0.9774990212976725 
0.6999999999999392, -0.9775095326766976 
0.7099999999999381, -0.978003962218585 
0.719999999999937, -0.9790386935702793 
0.7299999999999359, -0.9806129689067042 
0.7399999999999348, -0.9826752585357442 
0.7499999999999337, -0.9851404305074051 
0.7599999999999326, -0.9879090981274942 
0.7699999999999315, -0.9908827876214018 
0.7799999999999304, -0.9939729878568494 
0.7899999999999293, -0.9971049083450784 
0.7999999999999282, -1.0002172318274767 
0.8099999999999271, -1.003258708152275 
0.819999999999926, -1.006182405709065 
0.8299999999999249, -1.0089391594020616 
0.8399999999999238, -1.0114727876906866 
0.8499999999999227, -1.0137200769958103 
0.8599999999999216, -1.0156173112164155 
0.8699999999999205, -1.0171119799834467 
0.8799999999999194, -1.0181748141106737 
0.8899999999999183, -1.0188064407845188 
0.8999999999999172, -1.019036152413888 
0.9099999999999161, -1.0189152193995479 
0.919999999999915, -1.0185099333277732 
0.9299999999999139, -1.017898593954099 
0.9399999999999128, -1.017173341752836 
0.9499999999999117, -1.016444052287345 
0.9599999999999106, -1.0158387565553018 
0.9699999999999095, -1.0154947248765116 
0.9799999999999084, -1.0155382848018477 
0.9899999999999073, -1.0160591518022946 
0.9999999999999062, -1.0170911535373628 
1.0099999999999052, -1.0186091442448586 
1.019999999999904, -1.0205421971671114 
1.029999999999903, -1.0227944322883673 
1.039999999999902, -1.0252639069777705 
1.0499999999999008, -1.0278550417525962 
1.0599999999998997, -1.0304849681503245 
1.0699999999998986, -1.0330857792276869 
1.0799999999998975, -1.0356039477496295 
1.0899999999998964, -1.0379973279786172 
1.0999999999998953, -1.0402302095656644 
1.1099999999998942, -1.0422676817698904 
1.119999999999893, -1.044071446246903 
1.129999999999892, -1.045599413755767 
1.1399999999998909, -1.0468102708411922 
1.1499999999998898, -1.047671769956817 
1.1599999999998887, -1.0481691560816206 
1.1699999999998876, -1.0483099134670295 
1.1799999999998865, -1.048123500009352 
1.1899999999998854, -1.0476580236137496 
1.1999999999998843, -1.0469772335428902 
1.2099999999998832, -1.0461598251591788 
1.219999999999882, -1.0453000160595225 
1.229999999999881, -1.0445055944496107 
1.2399999999998799, -1.043889219509132 
1.2499999999998788, -1.0435521219796624 
1.2599999999998777, -1.0435653221534416 
1.2699999999998766, -1.043957169738116 
1.2799999999998755, -1.0447129763534961 
1.2899999999998744, -1.0457848771131286 
1.2999999999998733, -1.0471050303395883 
1.3099999999998722, -1.0485965990474801 
1.319999999999871, -1.0501813909839268 
1.32999999999987, -1.0517855982418727 
1.3399999999998689, -1.0533446013499317 
1.3499999999998678, -1.0548064059508024 
1.3599999999998666, -1.0561328192623136 
1.3699999999998655, -1.057297987459474 
1.3799999999998644, -1.0582846921366813 
1.3899999999998633, -1.0590795179202133 
1.3999999999998622, -1.059668585579713 
1.4099999999998611, -1.0600356771757968 
1.41999999999986, -1.060163829641638 
1.429999999999859, -1.060039922687525 
1.4399999999998578, -1.0596603288578013 
1.4499999999998567, -1.059035439513398 
1.4599999999998556, -1.058192031979712 
1.4699999999998545, -1.0571738799250754 
1.4799999999998534, -1.056041322828713 
1.4899999999998523, -1.0548694420970457 
1.4999999999998512, -1.0537432802249724 
1.5099999999998501, -1.052748932868054 
1.519999999999849, -1.051961862805906 
1.529999999999848, -1.051436480912622 
1.5399999999998468, -1.0512008378730395 
1.5499999999998457, -1.0512567512205762 
1.5599999999998446, -1.0515824356471264 
1.5699999999998435, -1.0521351293905805 
1.5799999999998424, -1.0528541819347566 
1.5899999999998413, -1.0536665632530338 
1.5999999999998402, -1.0544951054830014 
1.6099999999998391, -1.0552673315702967 
1.619999999999838, -1.0559222634491643 
1.629999999999837, -1.0564140957412531 
1.6399999999998358, -1.0567130913505478 
1.6499999999998347, -1.0568043365365025 
1.6599999999998336, -1.0566846336502917 
1.6699999999998325, -1.056357892179031 
1.6799999999998314, -1.0558301454859311 
1.6899999999998303, -1.0551059845085748 
1.6999999999998292, -1.0541878985551802 
1.709999999999828, -1.053078757096412 
1.719999999999827, -1.0517863057381558 
1.729999999999826, -1.0503279491496018 
1.7399999999998248, -1.0487343807600173 
1.7499999999998237, -1.047051197208137 
1.7599999999998226, -1.0453379546280819 
1.7699999999998215, -1.0436643574150832 
1.7799999999998204, -1.0421039877827118 
1.7899999999998193, -1.0407270519444038 
1.7999999999998182, -1.0395938532277553 
1.809999999999817, -1.0387493569401636 
1.819999999999816, -1.0382176699392365 
1.8299999999998149, -1.0379959230050961 
1.8399999999998138, -1.0380499145544106 
1.8499999999998127, -1.0383155548532028 
1.8599999999998116, -1.0387077586040485 
1.8699999999998105, -1.039133738180731 
1.8799999999998094, -1.0395052886896508 
1.8899999999998083, -1.0397465444552738 
1.8999999999998072, -1.0397973389192827 
1.909999999999806, -1.0396143812342205 
1.919999999999805, -1.0391719648728615 
1.9299999999998039, -1.0384620882397935 
1.9399999999998028, -1.0374926170849508 
1.9499999999998017, -1.0362826371940685 
1.9599999999998006, -1.0348560098674044 
1.9699999999997995, -1.033235666450795 
1.9799999999997984, -1.0314410232798967 
1.9899999999997973, -1.029489282254985 
1.9999999999997962, -1.0273995884685696 
2.0099999999998173, -1.0251980865844754 
2.0199999999998384, -1.0229219978588036 
2.0299999999998595, -1.0206214775564404 
2.0399999999998806, -1.0183587841579254 
2.0499999999999017, -1.016205032077265 
2.059999999999923, -1.0142352773307668 
2.069999999999944, -1.0125224508474835 
2.079999999999965, -1.0111297502992727 
2.089999999999986, -1.0101007962999564 
2.100000000000007, -1.0094486307303974 
2.1100000000000283, -1.0091477436188765 
2.1200000000000494, -1.0091343419160546 
2.1300000000000705, -1.0093165495232632 
2.1400000000000916, -1.0095904622313063 
2.1500000000001127, -1.0098551451843885 
2.160000000000134, -1.0100219044213585 
2.170000000000155, -1.0100177377610702 
2.180000000000176, -1.0097859132152311 
2.190000000000197, -1.0092866665722677 
2.2000000000002182, -1.0084989371134203 
2.2100000000002393, -1.0074216626818473 
2.2200000000002604, -1.0060721948601918 
2.2300000000002815, -1.00448072342548 
2.2400000000003026, -1.0026822655765386 
2.2500000000003237, -1.0007095671623436 
2.260000000000345, -0.9985897854911937 
2.270000000000366, -0.9963457127411914 
2.280000000000387, -0.9940002259522066 
2.290000000000408, -0.9915817076935309 
2.3000000000004293, -0.9891283831888996 
2.3100000000004504, -0.9866903023997823 
2.3200000000004715, -0.9843285592231682 
2.3300000000004926, -0.9821120439284141 
2.3400000000005137, -0.9801123715713248 
2.3500000000005348, -0.9783974106180852 
2.360000000000556, -0.9770233048688232 
2.370000000000577, -0.9760250257945824 
2.380000000000598, -0.975407083566295 
2.390000000000619, -0.975138084751295 
2.4000000000006403, -0.9751528541962471 
2.4100000000006614, -0.9753626047406315 
2.4200000000006825, -0.9756693311230958 
2.4300000000007036, -0.9759788910678083 
2.4400000000007247, -0.9762092700065426 
2.450000000000746, -0.9762940833472415 
2.460000000000767, -0.9761836186527916 
2.470000000000788, -0.975845603172184 
2.480000000000809, -0.9752661451845582 
2.49000000000083, -0.9744494925248367 
2.5000000000008513, -0.9734148537139634 
2.5100000000008724, -0.9721900057623901 
2.5200000000008935, -0.9708036460982644 
2.5300000000009146, -0.9692795614520765 
2.5400000000009357, -0.9676348290309246 
2.550000000000957, -0.9658822440369434 
2.560000000000978, -0.9640354184275193 
2.570000000000999, -0.9621143523747403 
2.58000000000102, -0.9601496483906222 
2.5900000000010412, -0.9581843096314583 
2.6000000000010624, -0.9562727378284769 
2.6100000000010835, -0.9544770693289354 
2.6200000000011046, -0.9528615168824098 
2.6300000000011257, -0.9514858083741113 
2.6400000000011468, -0.9503987613093102 
2.650000000001168, -0.9496324989529532 
2.660000000001189, -0.9491974893273942 
2.67000000000121, -0.9490790983905882 
2.680000000001231, -0.9492372012214373 
2.6900000000012523, -0.949610246505911 
2.7000000000012734, -0.9501234773975452 
2.7100000000012945, -0.9506989881987135 
2.7200000000013156, -0.9512646904778637 
2.7300000000013367, -0.9517604365523956 
2.740000000001358, -0.9521412533820798 
2.750000000001379, -0.9523784748539518 
2.7600000000014, -0.9524592220701654 
2.770000000001421, -0.9523839706574051 
2.780000000001442, -0.9521619082306696 
2.7900000000014633, -0.9518047476407661 
2.8000000000014844, -0.951320886247444 
2.8100000000015055, -0.9507121703105044 
2.8200000000015266, -0.9499745824705371 
2.8300000000015477, -0.9491024689073825 
2.840000000001569, -0.948094507359403 
2.85000000000159, -0.9469592810385296 
2.860000000001611, -0.9457190642777641 
2.870000000001632, -0.9444114551957524 
2.8800000000016532, -0.9430889473672311 
2.8900000000016743, -0.9418162949885702 
2.9000000000016954, -0.9406652801762526 
2.9100000000017165, -0.9397069904254313 
2.9200000000017377, -0.939002924846275 
2.9300000000017588, -0.9385971970361734 
2.94000000000178, -0.9385117861349238 
2.950000000001801, -0.9387453508158023 
2.960000000001822, -0.939274829302114 
2.970000000001843, -0.9400588714621613 
2.9800000000018643, -0.9410427144720731 
2.9900000000018854, -0.942164357131548 
3.0000000000019065, -0.9433614218681472 
3.0100000000019276, -0.9445775116977635 
3.0200000000019487, -0.9457668281061973 
3.03000000000197, -0.9468962788038282 
3.040000000001991, -0.9479448199215609 
3.050000000002012, -0.9489001683552135 
3.060000000002033, -0.9497535209825073 
3.070000000002054, -0.9504936875738782 
3.0800000000020753, -0.9511027491970077 
3.0900000000020964, -0.9515553253155745 
3.1000000000021175, -0.9518223376128222 
3.1100000000021386, -0.9518781265865729 
3.1200000000021597, -0.9517080950336508 
3.130000000002181, -0.951314030877192 
3.140000000002202, -0.9507160353124269 
3.150000000002223, -0.9499521116766945 
3.160000000002244, -0.9490772506367603 
3.1700000000022652, -0.9481628339767302 
3.1800000000022863, -0.947295303231267 
3.1900000000023074, -0.9465717519010304 
3.2000000000023285, -0.9460906069778002 
3.2100000000023496, -0.9459381198645308 
3.2200000000023707, -0.9461745878794334 
3.230000000002392, -0.9468254987175354 
3.240000000002413, -0.9478806794179264 
3.250000000002434, -0.9493005687734044 
3.260000000002455, -0.9510260490292909 
3.2700000000024763, -0.9529883720400382 
3.2800000000024974, -0.9551174214580889 
3.2900000000025185, -0.9573479240222046 
3.3000000000025396, -0.9596235267666526 
3.3100000000025607, -0.9618984173899705 
3.3200000000025818, -0.9641361076684382 
3.330000000002603, -0.9663054244523314 
3.340000000002624, -0.9683746145649044 
3.350000000002645, -0.9703055390626157 
3.360000000002666, -0.9720507142284954 
3.3700000000026873, -0.973555667783652 
3.3800000000027084, -0.9747671057312554 
3.3900000000027295, -0.9756442367393379 
3.4000000000027506, -0.9761683635267863 
3.4100000000027717, -0.9763467162792714 
3.420000000002793, -0.9762102016911156 
3.430000000002814, -0.9758083384201431 
3.440000000002835, -0.9752055231926814 
3.450000000002856, -0.9744808565104053 
3.460000000002877, -0.9737306434113635 
3.4700000000028983, -0.9730698772582029 
3.4800000000029194, -0.9726277287034399 
3.4900000000029405, -0.9725336787848529 
3.5000000000029616, -0.9728959979145763 
3.5100000000029827, -0.9737803250530127 
3.520000000003004, -0.9751980745315122 
3.530000000003025, -0.977109559096337 
3.540000000003046, -0.979438693958324 
3.550000000003067, -0.9820914718741434 
3.5600000000030882, -0.9849715462917596 
3.5700000000031094, -0.9879902686021588 
3.5800000000031305, -0.9910715199814403 
3.5900000000031516, -0.9941524626869821 
3.6000000000031727, -0.9971809962553948 
3.6100000000031938, -1.0001105824576213 
3.620000000003215, -1.002893711566121 
3.630000000003236, -1.0054763405333365 
3.640000000003257, -1.007796343083474 
3.650000000003278, -1.0097883166759662 
3.6600000000032993, -1.011394382519808 
3.6700000000033204, -1.012576913119969 
3.6800000000033415, -1.0133272507755158 
3.6900000000033626, -1.0136666561511134 
3.7000000000033837, -1.0136406281685442 
3.710000000003405, -1.0133114263867307 
3.720000000003426, -1.0127536435093203 
3.730000000003447, -1.0120548062307013 
3.740000000003468, -1.011319272937447 
3.750000000003489, -1.010670570607179 
3.7600000000035103, -1.010246024229627 
3.7700000000035314, -1.0101799332748964 
3.7800000000035525, -1.0105783431103146 
3.7900000000035736, -1.0114959291669618 
3.8000000000035947, -1.0129266459408321 
3.810000000003616, -1.014812016140765 
3.820000000003637, -1.0170607653659172 
3.830000000003658, -1.019569571148465 
3.840000000003679, -1.0222382213216978 
3.8500000000037002, -1.0249780191750166 
3.8600000000037213, -1.0277151579956842 
3.8700000000037424, -1.0303907329863795 
3.8800000000037635, -1.0329581321230572 
3.8900000000037847, -1.0353782827515858 
3.9000000000038058, -1.0376138376884083 
3.910000000003827, -1.0396243199811825 
3.920000000003848, -1.0413647098578405 
3.930000000003869, -1.042789153596204 
3.94000000000389, -1.043859166956828 
3.9500000000039113, -1.0445529812418777 
3.9600000000039324, -1.0448717029403405 
3.9700000000039535, -1.0448399917390356 
3.9800000000039746, -1.0445025901622524 
3.9900000000039957, -1.0439203120398677 
4.000000000004016, -1.0431684237628394 
4.010000000003993, -1.0423374795867169 
4.02000000000397, -1.0415334384352581 
4.030000000003946, -1.0408722619606612 
4.040000000003923, -1.0404660302548845 
4.0500000000039, -1.0404031954586195 
4.0600000000038765, -1.0407313642427147 
4.070000000003853, -1.0414511708856713 
4.08000000000383, -1.0425230500345097 
4.090000000003807, -1.043881165547366 
4.100000000003783, -1.0454470689683113 
4.11000000000376, -1.0471395250454842 
4.120000000003737, -1.0488810582692696 
4.130000000003713, -1.0506027830766191 
4.14000000000369, -1.0522479079994773 
4.150000000003667, -1.0537732861612634 
4.1600000000036434, -1.055148449072237 
4.17000000000362, -1.056352264572783 
4.180000000003597, -1.0573681671635784 
4.1900000000035735, -1.0581796006244617 
4.20000000000355, -1.0587675977324795 
4.210000000003527, -1.0591118541015132 
4.220000000003504, -1.059195151013671 
4.23000000000348, -1.059009298365547 
4.240000000003457, -1.0585601472490416 
4.250000000003434, -1.0578702317040791 
4.26000000000341, -1.0569793334151558 
4.270000000003387, -1.055944081198158 
4.280000000003364, -1.0548368416187741 
4.2900000000033405, -1.0537425053043268 
4.300000000003317, -1.0527511961790779 
4.310000000003294, -1.0519467785281726 
4.320000000003271, -1.05139442797521 
4.330000000003247, -1.0511322373283285 
4.340000000003224, -1.0511694667785725 
4.350000000003201, -1.0514896248177452 
4.360000000003177, -1.0520546768715113 
4.370000000003154, -1.0528088047716977 
4.380000000003131, -1.053683006036923 
4.390000000003107, -1.0546019356578535 
4.400000000003084, -1.0554921890595002 
4.410000000003061, -1.056289678341981 
4.4200000000030375, -1.0569443214796979 
4.430000000003014, -1.0574217501614849 
4.440000000002991, -1.057702537402279 
4.450000000002968, -1.0577793962402466 
4.460000000002944, -1.0576527978152732 
4.470000000002921, -1.0573260258716723 
4.480000000002898, -1.0568013468430402 
4.490000000002874, -1.0560788737930085 
4.500000000002851, -1.0551586109521491 
4.510000000002828, -1.0540447592901674 
4.520000000002804, -1.052750583373798 
4.530000000002781, -1.0513023293598842 
4.540000000002758, -1.0497413273748533 
4.5500000000027345, -1.0481237756477702 
4.560000000002711, -1.0465177397960919 
4.570000000002688, -1.0449973015991063 
4.580000000002665, -1.0436349328826633 
4.590000000002641, -1.0424941354392945 
4.600000000002618, -1.0416237545286946 
4.610000000002595, -1.0410534152797166 
4.620000000002571, -1.040788696033569 
4.630000000002548, -1.0408065949082117 
4.640000000002525, -1.0410545735941328 
4.6500000000025015, -1.0414562037004622 
4.660000000002478, -1.0419225860496482 
4.670000000002455, -1.0423650395014905 
4.6800000000024315, -1.0427046118159995 
4.690000000002408, -1.0428770534788119 
4.700000000002385, -1.0428347043771673 
4.710000000002362, -1.0425472145865273 
4.720000000002338, -1.042001628468987 
4.730000000002315, -1.0412009039350258 
4.740000000002292, -1.0401599138962352 
4.750000000002268, -1.038899464230306 
4.760000000002245, -1.0374404909208799 
4.770000000002222, -1.035800869537162 
4.7800000000021985, -1.0339959793954132 
4.790000000002175, -1.0320423736204196 
4.800000000002152, -1.029962766479276 
4.810000000002129, -1.0277904241947264 
4.820000000002105, -1.0255715746063445 
4.830000000002082, -1.0233651669358326 
4.840000000002059, -1.021240046972724 
4.850000000002035, -1.0192702532314084 
4.860000000002012, -1.017529240809189 
4.870000000001989, -1.0160830649810777 
4.880000000001965, -1.0149817192216761 
4.890000000001942, -1.014248666979925 
4.900000000001919, -1.0138715142767698 
4.9100000000018955, -1.0137990491705304 
4.920000000001872, -1.0139480652021708 
4.930000000001849, -1.0142179093987578 
