t, s[1].omega / s[0].omega 
0, -1.2399967784491854 
0.009999999999999995, -1.2395110728739698 
0.019999999999999934, -1.2387027635998995 
0.029999999999999874, -1.2375764332447383 
0.04000000000000012, -1.236142719902273 
0.050000000000000405, -1.234421960494281 
0.06000000000000069, -1.23244761919203 
0.07000000000000098, -1.2302685332912184 
0.08000000000000126, -1.2279494815032606 
0.09000000000000155, -1.2255709790657474 
0.10000000000000184, -1.223230522504434 
0.11000000000000212, -1.2210451468158645 
0.12000000000000241, -1.2191475988328058 
0.130000000000002, -1.2176635361270276 
0.1400000000000009, -1.2166681595015594 
0.1499999999999998, -1.2161453942265261 
0.1599999999999987, -1.2159825062896814 
0.1699999999999976, -1.2160066750100451 
0.1799999999999965, -1.2160343679673722 
0.1899999999999954, -1.2159005213548189 
0.1999999999999943, -1.2154585963855418 
0.2099999999999932, -1.2145626707160797 
0.2199999999999921, -1.2130465022066683 
0.229999999999991, -1.210710613197562 
0.2399999999999899, -1.2073248563235779 
0.2499999999999888, -1.2026502531384253 
0.2599999999999877, -1.1964766572405774 
0.2699999999999866, -1.1886631813538033 
0.2799999999999855, -1.1791647582521536 
0.2899999999999844, -1.1680377591939175 
0.2999999999999833, -1.155434634879169 
0.3099999999999822, -1.1416074161717733 
0.3199999999999811, -1.126933990511458 
0.32999999999998, -1.1119611545955375 
0.3399999999999789, -1.0974303254149094 
0.3499999999999778, -1.0842281564426337 
0.35999999999997667, -1.0732160998670282 
0.36999999999997557, -1.0649711674287803 
0.37999999999997447, -1.0595776000550443 
0.38999999999997337, -1.0566215445546097 
0.39999999999997227, -1.0553979874790251 
0.40999999999997117, -1.0551802535831694 
0.41999999999997006, -1.0553961478883238 
0.42999999999996896, -1.0556692498068063 
0.43999999999996786, -1.055774704620539 
0.44999999999996676, -1.0555700300618611 
0.45999999999996566, -1.0549324811545933 
0.46999999999996456, -1.0537086247958696 
0.47999999999996346, -1.051671184741898 
0.48999999999996235, -1.0484793949258047 
0.49999999999996125, -1.0436483722391523 
0.5099999999999602, -1.0365488119467374 
0.519999999999959, -1.026473907407499 
0.529999999999958, -1.0128047395486524 
0.5399999999999568, -0.9952520962736694 
0.5499999999999557, -0.9740668605174198 
0.5599999999999546, -0.9500809509595207 
0.5699999999999535, -0.9245364018143433 
0.5799999999999524, -0.8988032815094341 
0.5899999999999513, -0.8741315260630493 
0.5999999999999502, -0.8515102560619813 
0.6099999999999491, -0.8316225188539388 
0.619999999999948, -0.814851902109838 
0.6299999999999469, -0.801309645162075 
0.6399999999999458, -0.7908721634335553 
0.6499999999999447, -0.7832301836603036 
0.6599999999999436, -0.7779501056175815 
0.6699999999999425, -0.7745417532619363 
0.6799999999999414, -0.772521371880135 
0.6899999999999403, -0.7714587820545642 
0.6999999999999392, -0.7710028338005002 
0.7099999999999381, -0.7708862504711553 
0.719999999999937, -0.7709158936124246 
0.7299999999999359, -0.7709558913114521 
0.7399999999999348, -0.770909794377245 
0.7499999999999337, -0.7707057218755591 
0.7599999999999326, -0.7702866242297006 
0.7699999999999315, -0.7696066306012325 
0.7799999999999304, -0.7686334469868333 
0.7899999999999293, -0.7673551829913566 
0.7999999999999282, -0.7657877342571665 
0.8099999999999271, -0.7639773378075215 
0.819999999999926, -0.7619943513176106 
0.8299999999999249, -0.7599190228574726 
0.8399999999999238, -0.7578248541393199 
0.8499999999999227, -0.7557662366559115 
0.8599999999999216, -0.7537740123816344 
0.8699999999999205, -0.7518585208857552 
0.8799999999999194, -0.7500172418167759 
0.8899999999999183, -0.7482437426354244 
0.8999999999999172, -0.7465354459400089 
0.9099999999999161, -0.7448989238782844 
0.919999999999915, -0.7433524941935786 
0.9299999999999139, -0.7419265166562344 
0.9399999999999128, -0.7406619144621412 
0.9499999999999117, -0.739607300236056 
0.9599999999999106, -0.7388149861048068 
0.9699999999999095, -0.738336265934888 
0.9799999999999084, -0.7382166068412619 
0.9899999999999073, -0.7384915723899959 
0.9999999999999062, -0.7391842514786499 
1.0099999999999052, -0.7403046656805202 
1.019999999999904, -0.741851196809667 
1.029999999999903, -0.7438136724854509 
1.039999999999902, -0.7461774557036077 
1.0499999999999008, -0.7489276923541943 
1.0599999999998997, -0.75205271550708 
1.0699999999998986, -0.755545442232801 
1.0799999999998975, -0.7594014577303227 
1.0899999999998964, -0.7636125164190584 
1.0999999999998953, -0.7681547292477439 
1.1099999999998942, -0.7729722761269516 
1.119999999999893, -0.7779605904694626 
1.129999999999892, -0.7829571916712871 
1.1399999999998909, -0.7877507639517336 
1.1499999999998898, -0.7921143635586716 
1.1599999999998887, -0.7958547014527331 
1.1699999999998876, -0.7988552516556686 
1.1799999999998865, -0.801091638670289 
1.1899999999998854, -0.8026155050471748 
1.1999999999998843, -0.8035213126361113 
1.2099999999998832, -0.8039145008508409 
1.219999999999882, -0.803891523072083 
1.229999999999881, -0.8035333748683302 
1.2399999999998799, -0.8029103575447495 
1.2499999999998788, -0.802096501527934 
1.2599999999998777, -0.8011947517204341 
1.2699999999998766, -0.8003767348961264 
1.2799999999998755, -0.7999422251601035 
1.2899999999998744, -0.8004013530772038 
1.2999999999998733, -0.8025743176890476 
1.3099999999998722, -0.8076860040624602 
1.319999999999871, -0.8174059997456681 
1.32999999999987, -0.833753315258951 
1.3399999999998689, -0.8587662436754585 
1.3499999999998678, -0.8938705102476504 
1.3599999999998666, -0.9390283309064009 
1.3699999999998655, -0.9920367953292176 
1.3799999999998644, -1.0485618508211136 
1.3899999999998633, -1.1032291842199888 
1.3999999999998622, -1.1513149661829811 
1.4099999999998611, -1.190052912335631 
1.41999999999986, -1.2189228940039107 
1.429999999999859, -1.2390625847205043 
1.4399999999998578, -1.2523701147157809 
1.4499999999998567, -1.260777464397786 
1.4599999999998556, -1.2658698483644004 
1.4699999999998545, -1.2687916039686689 
1.4799999999998534, -1.2703037931328651 
1.4899999999998523, -1.2708883364220447 
1.4999999999998512, -1.2708480757648788 
1.5099999999998501, -1.2703909503966506 
1.519999999999849, -1.269703081746973 
1.529999999999848, -1.269013009492383 
1.5399999999998468, -1.2686295555237552 
1.5499999999998457, -1.2689129936387296 
1.5599999999998446, -1.2701570479429047 
1.5699999999998435, -1.2724439658556463 
1.5799999999998424, -1.275597330689975 
1.5899999999998413, -1.2792784545856286 
1.5999999999998402, -1.2831358022887005 
1.6099999999998391, -1.286899665194053 
1.619999999999838, -1.290399193069333 
1.629999999999837, -1.2935387002455003 
1.6399999999998358, -1.2962691063707814 
1.6499999999998347, -1.2985678781553005 
1.6599999999998336, -1.3004269664693449 
1.6699999999998325, -1.3018456311424453 
1.6799999999998314, -1.3028266195649896 
1.6899999999998303, -1.3033752880462603 
1.6999999999998292, -1.3035010853950095 
1.709999999999828, -1.3032201963664318 
1.719999999999827, -1.3025580905877803 
1.729999999999826, -1.3015514907801213 
1.7399999999998248, -1.300249966196448 
1.7499999999998237, -1.2987168549459465 
1.7599999999998226, -1.2970279712141726 
1.7699999999998215, -1.295267111636783 
1.7799999999998204, -1.293521244217873 
1.7899999999998193, -1.2918808334739642 
1.7999999999998182, -1.2904441205628563 
1.809999999999817, -1.2893114697420127 
1.819999999999816, -1.2885561539842227 
1.8299999999998149, -1.288182265741954 
1.8399999999998138, -1.2881044389995389 
1.8499999999998127, -1.2881702657356422 
1.8599999999998116, -1.288205436806268 
1.8699999999998105, -1.2880451910967683 
1.8799999999998094, -1.2875365263626743 
1.8899999999998083, -1.2865200139977493 
1.8999999999998072, -1.2848070075448428 
1.909999999999806, -1.2821644984538048 
1.919999999999805, -1.2783157198889163 
1.9299999999998039, -1.272960449368041 
1.9399999999998028, -1.2658117283465562 
1.9499999999998017, -1.256637270004744 
1.9599999999998006, -1.2452926733554965 
1.9699999999997995, -1.2317454662307268 
1.9799999999997984, -1.2161068216058197 
1.9899999999997973, -1.1986951563760895 
1.9999999999997962, -1.1801378327492205 
2.0099999999998173, -1.1614653934944492 
2.0199999999998384, -1.1440814113266435 
2.0299999999998595, -1.1294770692747624 
2.0399999999998806, -1.11871776119105 
2.0499999999999017, -1.1120048721640619 
2.059999999999923, -1.108667360529773 
2.069999999999944, -1.1075838443785362 
2.079999999999965, -1.1076780245668496 
2.089999999999986, -1.108183010527557 
2.100000000000007, -1.108653679734011 
2.1100000000000283, -1.1088604205498827 
2.1200000000000494, -1.1086731006425812 
2.1300000000000705, -1.1079721065676742 
2.1400000000000916, -1.1065802008258492 
2.1500000000001127, -1.1041959085874349 
2.160000000000134, -1.1003095931364117 
2.170000000000155, -1.0940909921770197 
2.180000000000176, -1.0842594649349435 
2.190000000000197, -1.0690036617901186 
2.2000000000002182, -1.0461131856675643 
2.2100000000002393, -1.0135533119023907 
2.2200000000002604, -0.9705495368482321 
2.2300000000002815, -0.9186969860102074 
2.2400000000003026, -0.862111831092929 
2.2500000000003237, -0.8061312057704011 
2.260000000000345, -0.7553854315435197 
2.270000000000366, -0.712577182882022 
2.280000000000387, -0.6784322960325889 
2.290000000000408, -0.6523383095234081 
2.3000000000004293, -0.6330528765712574 
2.3100000000004504, -0.6191924411113355 
2.3200000000004715, -0.6094846734198647 
2.3300000000004926, -0.6028634481901922 
2.3400000000005137, -0.5984815673877653 
2.3500000000005348, -0.595688386629017 
2.360000000000556, -0.5939964575435415 
2.370000000000577, -0.5930478420037929 
2.380000000000598, -0.5925841548191978 
2.390000000000619, -0.5924215263957616 
2.4000000000006403, -0.5924305571320322 
2.4100000000006614, -0.5925209528150092 
2.4200000000006825, -0.592630438215496 
2.4300000000007036, -0.5927175372359514 
2.4400000000007247, -0.59275773449554 
2.450000000000746, -0.5927422594320042 
2.460000000000767, -0.5926782205045177 
2.470000000000788, -0.5925882816801672 
2.480000000000809, -0.5925080177824271 
2.49000000000083, -0.5924799351304273 
2.5000000000008513, -0.5925446799603454 
2.5100000000008724, -0.5927312943985967 
2.5200000000008935, -0.5930488191147748 
2.5300000000009146, -0.5934812779132813 
2.5400000000009357, -0.5939876784749356 
2.550000000000957, -0.5945080016013911 
2.560000000000978, -0.5949745096148348 
2.570000000000999, -0.5953252294304282 
2.58000000000102, -0.5955149447537589 
2.5900000000010412, -0.5955202212961929 
2.6000000000010624, -0.5953382930057878 
2.6100000000010835, -0.5949825558888419 
2.6200000000011046, -0.5944782578449718 
2.6300000000011257, -0.5938611612458881 
2.6400000000011468, -0.5931808987582808 
2.650000000001168, -0.5925104121044792 
2.660000000001189, -0.5919634943201468 
2.67000000000121, -0.591723971768474 
2.680000000001231, -0.592092455072519 
2.6900000000012523, -0.5935600110689017 
2.7000000000012734, -0.5969226384001549 
2.7100000000012945, -0.6034551416762558 
2.7200000000013156, -0.6151629824760725 
2.7300000000013367, -0.6351085976971457 
2.740000000001358, -0.6677156642308365 
2.750000000001379, -0.7186893193788404 
2.7600000000014, -0.7936783649904247 
2.770000000001421, -0.8945324553328793 
2.780000000001442, -1.0139436921074767 
2.7900000000014633, -1.1343630619928617 
2.8000000000014844, -1.2367424116427683 
2.8100000000015055, -1.3115949085610663 
2.8200000000015266, -1.360503118556132 
2.8300000000015477, -1.3902075560403255 
2.840000000001569, -1.407481057995383 
2.85000000000159, -1.417260099697186 
2.860000000001611, -1.4226587295139903 
2.870000000001632, -1.425503320225578 
2.8800000000016532, -1.4268269678259968 
2.8900000000016743, -1.4272084827112015 
2.9000000000016954, -1.4269862267023432 
2.9100000000017165, -1.4263992262835081 
2.9200000000017377, -1.4256901314064985 
2.9300000000017588, -1.425166463323251 
2.94000000000178, -1.425175388931367 
2.950000000001801, -1.4259684625853117 
2.960000000001822, -1.4275548308773982 
2.970000000001843, -1.4297023332844918 
2.9800000000018643, -1.4320887031535505 
2.9900000000018854, -1.4344469920742096 
3.0000000000019065, -1.4366091391265678 
3.0100000000019276, -1.4384792789790117 
3.0200000000019487, -1.4399984974415867 
3.03000000000197, -1.4411261027248727 
3.040000000001991, -1.441832959193927 
3.050000000002012, -1.4420981898011453 
3.060000000002033, -1.4419060435925302 
3.070000000002054, -1.4412429660966792 
3.0800000000020753, -1.4400952496952835 
3.0900000000020964, -1.4384475111965662 
3.1000000000021175, -1.4362823881493225 
3.1100000000021386, -1.4335819590162204 
3.1200000000021597, -1.4303316068873158 
3.130000000002181, -1.4265285484837156 
3.140000000002202, -1.4222016104661845 
3.150000000002223, -1.4174536383247498 
3.160000000002244, -1.4125290395020436 
3.1700000000022652, -1.4078653468442994 
3.1800000000022863, -1.4040272235636164 
3.1900000000023074, -1.4014589990640578 
3.2000000000023285, -1.4002100950085101 
3.2100000000023496, -1.3999176032510574 
3.2200000000023707, -1.4000600629159963 
3.230000000002392, -1.400201187608805 
3.240000000002413, -1.4000498396209973 
3.250000000002434, -1.3993871797360773 
3.260000000002455, -1.3979506038603022 
3.2700000000024763, -1.3952946049429742 
3.2800000000024974, -1.3905868628278606 
3.2900000000025185, -1.3822543136558347 
3.3000000000025396, -1.3673567297517843 
3.3100000000025607, -1.3405917537091245 
3.3200000000025818, -1.2931928479195942 
3.330000000002603, -1.213276224647791 
3.340000000002624, -1.0912967277322336 
3.350000000002645, -0.9320138034110922 
3.360000000002666, -0.7609981078018889 
3.3700000000026873, -0.6101933498963251 
3.3800000000027084, -0.4967403319317753 
3.3900000000027295, -0.4196864182189532 
3.4000000000027506, -0.3699371427486215 
3.4100000000027717, -0.3383036028990413 
3.420000000002793, -0.3181037831716569 
3.430000000002814, -0.30503961610083263 
3.440000000002835, -0.2964661245108075 
3.450000000002856, -0.2907698209864884 
3.460000000002877, -0.28695931714879575 
3.4700000000028983, -0.2844174148146837 
3.4800000000029194, -0.2827548825267267 
3.4900000000029405, -0.2817244621989875 
3.5000000000029616, -0.2811700589982457 
3.5100000000029827, -0.2809966930718886 
3.520000000003004, -0.28115305382081485 
3.530000000003025, -0.28162208992810916 
3.540000000003046, -0.2824171367756303 
3.550000000003067, -0.28358230263103634 
3.5600000000030882, -0.2851965874907046 
3.5700000000031094, -0.28738169418385373 
3.5800000000031305, -0.2903137437401985 
3.5900000000031516, -0.2942388677503078 
3.6000000000031727, -0.29949105420588934 
3.6100000000031938, -0.3065057144609192 
3.620000000003215, -0.31581100751854047 
3.630000000003236, -0.3279589527974724 
3.640000000003257, -0.3433398610152109 
3.650000000003278, -0.36185166030685095 
3.6600000000032993, -0.38254497011047517 
3.6700000000033204, -0.4035903297597158 
3.6800000000033415, -0.4228539434903014 
3.6900000000033626, -0.4387819361626354 
3.7000000000033837, -0.4508756726466206 
3.710000000003405, -0.4594973483602354 
3.720000000003426, -0.46538501401368637 
3.730000000003447, -0.4692812443869955 
3.740000000003468, -0.4717744195741575 
3.750000000003489, -0.47327655957013015 
3.7600000000035103, -0.47405280925578713 
3.7700000000035314, -0.4742574657030595 
3.7800000000035525, -0.4739608661441569 
3.7900000000035736, -0.4731645925349373 
3.8000000000035947, -0.471806858775386 
3.810000000003616, -0.46976180581961297 
3.820000000003637, -0.4668392625410178 
3.830000000003658, -0.4627970138474814 
3.840000000003679, -0.45738409723931184 
3.8500000000037002, -0.45043171067126153 
3.8600000000037213, -0.4419807398861496 
3.8700000000037424, -0.432379782840143 
3.8800000000037635, -0.4222577345415136 
3.8900000000037847, -0.41234516865927356 
3.9000000000038058, -0.40324872519148375 
3.910000000003827, -0.3953182698945449 
3.920000000003848, -0.3886494301171753 
3.930000000003869, -0.3831648299105035 
3.94000000000389, -0.37870325069379274 
3.9500000000039113, -0.3750823397552482 
3.9600000000039324, -0.37213235234532976 
3.9700000000039535, -0.36971028392373384 
3.9800000000039746, -0.3677035701671757 
3.9900000000039957, -0.36602914394204583 
4.000000000004016, -0.36463089526034514 
4.010000000003993, -0.3634771137148253 
4.02000000000397, -0.36255887570490886 
4.030000000003946, -0.36189012735730025 
4.040000000003923, -0.3615102107506632 
4.0500000000039, -0.3614897773018789 
4.0600000000038765, -0.36194151218336573 
4.070000000003853, -0.3630380024165313 
4.08000000000383, -0.36504065492717247 
4.090000000003807, -0.36834619243193445 
4.100000000003783, -0.3735614713909453 
4.11000000000376, -0.3816236599409557 
4.120000000003737, -0.3939904014777642 
4.130000000003713, -0.4129269394462219 
4.14000000000369, -0.441888211958514 
4.150000000003667, -0.4858556809752503 
4.1600000000036434, -0.5510822951850101 
4.17000000000362, -0.6429827996506055 
4.180000000003597, -0.7609710132008448 
4.1900000000035735, -0.8928663987750386 
4.20000000000355, -1.017295160499158 
4.210000000003527, -1.1162798478102511 
4.220000000003504, -1.1846340590770081 
4.23000000000348, -1.2273963450210794 
4.240000000003457, -1.2526118635051031 
4.250000000003434, -1.2670235271147894 
4.26000000000341, -1.2751164516717164 
4.270000000003387, -1.2795667181009052 
4.280000000003364, -1.281889364155168 
4.2900000000033405, -1.2829208056136787 
4.300000000003317, -1.2831180731748602 
4.310000000003294, -1.2827375173427957 
4.320000000003271, -1.2819540959825309 
4.330000000003247, -1.2809664180771734 
4.340000000003224, -1.2801080490316468 
4.350000000003201, -1.2799324724139862 
4.360000000003177, -1.281163277358614 
4.370000000003154, -1.2844138441454152 
4.380000000003131, -1.2898089078714308 
4.390000000003107, -1.2968594188348854 
4.400000000003084, -1.3047307411688691 
4.410000000003061, -1.3126326950894982 
4.4200000000030375, -1.320032148836024 
4.430000000003014, -1.326656279823111 
4.440000000002991, -1.332405629692128 
4.450000000002968, -1.337270113800703 
4.460000000002944, -1.3412768405571722 
4.470000000002921, -1.3444656548430949 
4.480000000002898, -1.3468817586223178 
4.490000000002874, -1.3485766352629769 
4.500000000002851, -1.3496108425504068 
4.510000000002828, -1.3500546785381906 
4.520000000002804, -1.3499860419851157 
4.530000000002781, -1.3494878357674516 
4.540000000002758, -1.3486478115878302 
4.5500000000027345, -1.347560962646057 
4.560000000002711, -1.346330214708714 
4.570000000002688, -1.3450599061254187 
4.580000000002665, -1.3438430203213916 
4.590000000002641, -1.3427530232030043 
4.600000000002618, -1.3418490573119948 
4.610000000002595, -1.3411846420896076 
4.620000000002571, -1.340798619087782 
4.630000000002548, -1.3406855828390118 
4.640000000002525, -1.340772986378944 
4.6500000000025015, -1.3409308366430586 
4.660000000002478, -1.341005028921458 
4.670000000002455, -1.3408437591464566 
4.6800000000024315, -1.3403004379463137 
4.690000000002408, -1.3392192395096503 
4.700000000002385, -1.3374176310335886 
4.710000000002362, -1.3346771470415772 
4.720000000002338, -1.3307481072082459 
4.730000000002315, -1.3253679659878905 
4.740000000002292, -1.3182867198480852 
4.750000000002268, -1.3092903572926629 
4.760000000002245, -1.2982199761478754 
4.770000000002222, -1.2849989896297627 
4.7800000000021985, -1.2696948951944727 
4.790000000002175, -1.2526415323573823 
4.800000000002152, -1.234611425396579 
4.810000000002129, -1.2169338095246394 
4.820000000002105, -1.2013441071362843 
4.830000000002082, -1.1894175362986616 
4.840000000002059, -1.1818405117207602 
4.850000000002035, -1.178125784177728 
4.860000000002012, -1.1770373761831983 
4.870000000001989, -1.1772878018068504 
4.880000000001965, -1.177958591633761 
4.890000000001942, -1.1785409953385104 
4.900000000001919, -1.178794123685396 
4.9100000000018955, -1.1785914635055488 
4.920000000001872, -1.177808511704549 
