t, s[1].omega / s[0].omega 
0, -0.5599977440964308 
0.009999999999999995, -0.5598242942607377 
0.019999999999999934, -0.5597363562478326 
0.029999999999999874, -0.559687635148315 
0.04000000000000012, -0.5596203430402255 
0.050000000000000405, -0.5594848183366589 
0.06000000000000069, -0.5592524346658458 
0.07000000000000098, -0.5589180578809423 
0.08000000000000126, -0.558496289894691 
0.09000000000000155, -0.5580189765848602 
0.10000000000000184, -0.5575399714432765 
0.11000000000000212, -0.5571516118893526 
0.12000000000000241, -0.5570187301648464 
0.130000000000002, -0.5574407762792501 
0.1400000000000009, -0.5589607482152559 
0.1499999999999998, -0.5625503674159816 
0.1599999999999987, -0.5699067363781178 
0.1699999999999976, -0.5838594839311735 
0.1799999999999965, -0.6086838751061059 
0.1899999999999954, -0.6494970527554822 
0.1999999999999943, -0.7090847247326246 
0.2099999999999932, -0.7821773300101164 
0.2199999999999921, -0.8541574873190582 
0.229999999999991, -0.9107435733262073 
0.2399999999999899, -0.9476939083005627 
0.2499999999999888, -0.9690225048903436 
0.2599999999999877, -0.9805421137089347 
0.2699999999999866, -0.9865760371731778 
0.2799999999999855, -0.989665376513846 
0.2899999999999844, -0.9911567647522288 
0.2999999999999833, -0.991725308888847 
0.3099999999999822, -0.9916827309548755 
0.3199999999999811, -0.9911296815889209 
0.32999999999998, -0.9900172074373156 
0.3399999999999789, -0.9881608063600311 
0.3499999999999778, -0.985252925014566 
0.35999999999997667, -0.9809804257595662 
0.36999999999997557, -0.9755175089613024 
0.37999999999997447, -0.9708666193783093 
0.38999999999997337, -0.9731440024728434 
0.39999999999997227, -0.9936177434979498 
0.40999999999997117, -1.0429267051617044 
0.41999999999997006, -1.1171588215841026 
0.42999999999996896, -1.193200907457827 
0.43999999999996786, -1.2492481954407304 
0.44999999999996676, -1.281876667424466 
0.45999999999996566, -1.298499080731707 
0.46999999999996456, -1.3064662540239618 
0.47999999999996346, -1.3101557583748433 
0.48999999999996235, -1.311744788534269 
0.49999999999996125, -1.3122428193636106 
0.5099999999999602, -1.312103813091445 
0.519999999999959, -1.311544554167778 
0.529999999999958, -1.3107560485380083 
0.5399999999999568, -1.3101268908795185 
0.5499999999999557, -1.3104166881921357 
0.5599999999999546, -1.3125170728668196 
0.5699999999999535, -1.3166948236203697 
0.5799999999999524, -1.3222362537538117 
0.5899999999999513, -1.3280567449121112 
0.5999999999999502, -1.3333801187284888 
0.6099999999999491, -1.3378605530608172 
0.619999999999948, -1.3414148097498253 
0.6299999999999469, -1.344072016424456 
0.6399999999999458, -1.3459047141913756 
0.6499999999999447, -1.347008284740959 
0.6599999999999436, -1.3474939095725895 
0.6699999999999425, -1.347479466826373 
0.6799999999999414, -1.3470812775217318 
0.6899999999999403, -1.3464154749001562 
0.6999999999999392, -1.3456069244422575 
0.7099999999999381, -1.3447878535846975 
0.719999999999937, -1.3440748969826717 
0.7299999999999359, -1.343547501024244 
0.7399999999999348, -1.3432490668241877 
0.7499999999999337, -1.3431812550419238 
0.7599999999999326, -1.3432769217309881 
0.7699999999999315, -1.3434012452311814 
0.7799999999999304, -1.3433950947143116 
0.7899999999999293, -1.3431061718014445 
0.7999999999999282, -1.342380652810937 
0.8099999999999271, -1.341039956637789 
0.819999999999926, -1.3388719939303806 
0.8299999999999249, -1.3356464424430716 
0.8399999999999238, -1.3311448895838622 
0.8499999999999227, -1.3251942501494 
0.8599999999999216, -1.317719110869686 
0.8699999999999205, -1.3088718849230494 
0.8799999999999194, -1.299291518771254 
0.8899999999999183, -1.2903331012456478 
0.8999999999999172, -1.283707562483921 
0.9099999999999161, -1.2802889636059351 
0.919999999999915, -1.2794047329217295 
0.9299999999999139, -1.2796826803956394 
0.9399999999999128, -1.2801302004384696 
0.9499999999999117, -1.2803152602272552 
0.9599999999999106, -1.280076250187879 
0.9699999999999095, -1.2792576303493797 
0.9799999999999084, -1.277516159378064 
0.9899999999999073, -1.2740685890349224 
0.9999999999999062, -1.2672116718635675 
1.0099999999999052, -1.2534686146838594 
1.019999999999904, -1.2267276193883414 
1.029999999999903, -1.1798299385945792 
1.039999999999902, -1.1130373026908376 
1.0499999999999008, -1.0434264140461313 
1.0599999999998997, -0.9943639605802334 
1.0699999999998986, -0.9738576110504622 
1.0799999999998975, -0.9731437336492789 
1.0899999999998964, -0.9800813971818432 
1.0999999999998953, -0.9874290151353005 
1.1099999999998942, -0.9928286021003897 
1.119999999999893, -0.9962321635442976 
1.129999999999892, -0.998179142712968 
1.1399999999998909, -0.9991564854398414 
1.1499999999998898, -0.9994682922365516 
1.1599999999998887, -0.9992482268868159 
1.1699999999998876, -0.998475706639265 
1.1799999999998865, -0.9969497234809881 
1.1899999999998854, -0.9941890495820604 
1.1999999999998843, -0.9892091302146406 
1.2099999999998832, -0.9801054484222249 
1.219999999999882, -0.9634385153588427 
1.229999999999881, -0.9338327135530318 
1.2399999999998799, -0.8852892897824809 
1.2499999999998788, -0.8162786810635311 
1.2599999999998777, -0.7361021473312965 
1.2699999999998766, -0.6621977292667554 
1.2799999999998755, -0.6071594983376422 
1.2899999999998744, -0.5721998647576938 
1.2999999999998733, -0.5521326694103877 
1.3099999999998722, -0.5413093207060979 
1.319999999999871, -0.5357335117825481 
1.32999999999987, -0.532998839978187 
1.3399999999998689, -0.5317531193315316 
1.3499999999998678, -0.5312597296911397 
1.3599999999998666, -0.5311230187998144 
1.3699999999998655, -0.5311312269203058 
1.3799999999998644, -0.5311697900808404 
1.3899999999998633, -0.5311746809121811 
1.3999999999998622, -0.5311088298720685 
1.4099999999998611, -0.5309527887324494 
1.41999999999986, -0.5307045563214143 
1.429999999999859, -0.5303835735921499 
1.4399999999998578, -0.530032094602647 
1.4499999999998567, -0.5297076407369472 
1.4599999999998556, -0.5294660713187388 
1.4699999999998545, -0.52934206736392 
1.4799999999998534, -0.529335744177196 
1.4899999999998523, -0.5294108668308822 
1.4999999999998512, -0.5295060290179128 
1.5099999999998501, -0.5295550516966985 
1.519999999999849, -0.5295070262286183 
1.529999999999848, -0.5293363024113839 
1.5399999999998468, -0.5290407942508999 
1.5499999999998457, -0.5286351288945744 
1.5599999999998446, -0.5281466029556572 
1.5699999999998435, -0.5276193120619677 
1.5799999999998424, -0.527130761608886 
1.5899999999998413, -0.5268283264434758 
1.5999999999998402, -0.5270008677560516 
1.6099999999998391, -0.5282148423879063 
1.619999999999838, -0.5315639245714628 
1.629999999999837, -0.53908904584444 
1.6399999999998358, -0.5543302301965757 
1.6499999999998347, -0.5824864517086558 
1.6599999999998336, -0.6285074053424671 
1.6699999999998325, -0.6915248562339283 
1.6799999999998314, -0.7605994979295203 
1.6899999999998303, -0.8212801460139664 
1.6999999999998292, -0.8660400802750982 
1.709999999999828, -0.8953172008859219 
1.719999999999827, -0.9130127922880256 
1.729999999999826, -0.9231972485419909 
1.7399999999998248, -0.9288921403168977 
1.7499999999998237, -0.9320015203736866 
1.7599999999998226, -0.9336195325159157 
1.7699999999998215, -0.934336488774789 
1.7799999999998204, -0.9344421004044161 
1.7899999999998193, -0.934032791487932 
1.7999999999998182, -0.9330460323252078 
1.809999999999817, -0.9312294157572053 
1.819999999999816, -0.9280273327066515 
1.8299999999998149, -0.922337777415378 
1.8399999999998138, -0.9120730039468855 
1.8499999999998127, -0.8935472247130904 
1.8599999999998116, -0.8612156818784007 
1.8699999999998105, -0.8095140436924746 
1.8799999999998094, -0.7387487701148059 
1.8899999999998083, -0.6606585850078993 
1.8999999999998072, -0.5924125000937966 
1.909999999999806, -0.5433920367057072 
1.919999999999805, -0.5124760377776334 
1.9299999999998039, -0.49432184012121577 
1.9399999999998028, -0.48403579928095686 
1.9499999999998017, -0.47832721280462964 
1.9599999999998006, -0.4752219644194458 
1.9699999999997995, -0.47358442416899915 
1.9799999999997984, -0.47276914029441774 
1.9899999999997973, -0.4724093162223273 
1.9999999999997962, -0.4722957217520009 
2.0099999999998173, -0.47230871817300263 
2.0199999999998384, -0.47238072195157726 
2.0299999999998595, -0.4724765229078762 
2.0399999999998806, -0.47258451017333963 
2.0499999999999017, -0.47271423487248077 
2.059999999999923, -0.472895925453514 
2.069999999999944, -0.4731772115081583 
2.079999999999965, -0.473613455835307 
2.089999999999986, -0.47425114781537303 
2.100000000000007, -0.4751069712471521 
2.1100000000000283, -0.47614818537894 
2.1200000000000494, -0.4772847883024361 
2.1300000000000705, -0.4783859782835885 
2.1400000000000916, -0.4793206986504875 
2.1500000000001127, -0.4799990335231895 
2.160000000000134, -0.4803872167218614 
2.170000000000155, -0.4804929153465455 
2.180000000000176, -0.48033847966660764 
2.190000000000197, -0.4799379266325746 
2.2000000000002182, -0.4792808304270588 
2.2100000000002393, -0.4783173998717446 
2.2200000000002604, -0.476933974820541 
2.2300000000002815, -0.4748991374354855 
2.2400000000003026, -0.47173510292491816 
2.2500000000003237, -0.4664076071777036 
2.260000000000345, -0.45663954367534626 
2.270000000000366, -0.4378510687815803 
2.280000000000387, -0.4034918795804291 
2.290000000000408, -0.35153830371950734 
2.3000000000004293, -0.29336553241865754 
2.3100000000004504, -0.24538159757108305 
2.3200000000004715, -0.2133217003738171 
2.3300000000004926, -0.1938571668859361 
2.3400000000005137, -0.1822540888495347 
2.3500000000005348, -0.17520919981269306 
2.360000000000556, -0.17080223135245381 
2.370000000000577, -0.16796895038243947 
2.380000000000598, -0.16612181646417576 
2.390000000000619, -0.1649372441492803 
2.4000000000006403, -0.1642449843839709 
2.4100000000006614, -0.16397404801494436 
2.4200000000006825, -0.16413186653237194 
2.4300000000007036, -0.16480806720101854 
2.4400000000007247, -0.1662052315871592 
2.450000000000746, -0.1687118034756784 
2.460000000000767, -0.17305388380597872 
2.470000000000788, -0.18060182655270174 
2.480000000000809, -0.1939586367179292 
2.49000000000083, -0.21788212772121912 
2.5000000000008513, -0.25964129798772206 
2.5100000000008724, -0.32454931453167524 
2.5200000000008935, -0.4027899034994974 
2.5300000000009146, -0.4682904644347574 
2.5400000000009357, -0.506916183387235 
2.550000000000957, -0.5254082208404325 
2.560000000000978, -0.5340801813386788 
2.570000000000999, -0.5386210435888797 
2.58000000000102, -0.5413217962901206 
2.5900000000010412, -0.5430540452665717 
2.6000000000010624, -0.5441860233501004 
2.6100000000010835, -0.5449008081934833 
2.6200000000011046, -0.5452990404376516 
2.6300000000011257, -0.545433549041866 
2.6400000000011468, -0.5453225512089535 
2.650000000001168, -0.5449563867120111 
2.660000000001189, -0.5443048991506114 
2.67000000000121, -0.5433316512988857 
2.680000000001231, -0.5420191340116333 
2.6900000000012523, -0.5403997005895814 
2.7000000000012734, -0.5385721402185689 
2.7100000000012945, -0.5366827535301414 
2.7200000000013156, -0.5348766885483566 
2.7300000000013367, -0.5332529004548539 
2.740000000001358, -0.5318485870845163 
2.750000000001379, -0.5306510100110158 
2.7600000000014, -0.5296206898921516 
2.770000000001421, -0.5287134068625876 
2.780000000001442, -0.5278955067992215 
2.7900000000014633, -0.5271518726912834 
2.8000000000014844, -0.5264890095091184 
2.8100000000015055, -0.5259370267731436 
2.8200000000015266, -0.525553862046208 
2.8300000000015477, -0.5254339778747872 
2.840000000001569, -0.5257231604078478 
2.85000000000159, -0.5266413516235762 
2.860000000001611, -0.5285164977375254 
2.870000000001632, -0.5318336339364149 
2.8800000000016532, -0.5373030442350537 
2.8900000000016743, -0.5459434261905824 
2.9000000000016954, -0.559144047686698 
2.9100000000017165, -0.5785795650514175 
2.9200000000017377, -0.6056806916071213 
2.9300000000017588, -0.6403081460499073 
2.94000000000178, -0.6790835787005158 
2.950000000001801, -0.7156574239496469 
2.960000000001822, -0.7443772819914672 
2.970000000001843, -0.7636503956100816 
2.9800000000018643, -0.7752645583793683 
2.9900000000018854, -0.7818552431520616 
3.0000000000019065, -0.7854737866026076 
3.0100000000019276, -0.7873853921438986 
3.0200000000019487, -0.7882902105100273 
3.03000000000197, -0.7885461827816231 
3.040000000001991, -0.7883047567488168 
3.050000000002012, -0.7875714000832199 
3.060000000002033, -0.7862079168566813 
3.070000000002054, -0.7838752866808941 
3.0800000000020753, -0.7798911936287958 
3.0900000000020964, -0.7729520760066322 
3.1000000000021175, -0.760691580308274 
3.1100000000021386, -0.7393112958470273 
3.1200000000021597, -0.7043816689220267 
3.130000000002181, -0.6545972070002012 
3.140000000002202, -0.5965640604809421 
3.150000000002223, -0.5423782589342133 
3.160000000002244, -0.5003916913357414 
3.1700000000022652, -0.4715845452994743 
3.1800000000022863, -0.4530278075123387 
3.1900000000023074, -0.4413806883985799 
3.2000000000023285, -0.4341309529601368 
3.2100000000023496, -0.4296349796745707 
3.2200000000023707, -0.42686894178983714 
3.230000000002392, -0.4252029173031559 
3.240000000002413, -0.4242487133942018 
3.250000000002434, -0.4237663407940687 
3.260000000002455, -0.42360832648442603 
3.2700000000024763, -0.4236871127648622 
3.2800000000024974, -0.42395662767637915 
3.2900000000025185, -0.42440289508389545 
3.3000000000025396, -0.42504052714740015 
3.3100000000025607, -0.42591251222893156 
3.3200000000025818, -0.42709024815996066 
3.330000000002603, -0.42866959892237827 
3.340000000002624, -0.43075682450274194 
3.350000000002645, -0.43343576826508406 
3.360000000002666, -0.43670952337704055 
3.3700000000026873, -0.44042972256777657 
3.3800000000027084, -0.44426935611929463 
3.3900000000027295, -0.44780799955980655 
3.4000000000027506, -0.4507049866810089 
3.4100000000027717, -0.45282117173146236 
3.420000000002793, -0.4542012359473522 
3.430000000002814, -0.4549749357130148 
3.440000000002835, -0.45527044001121436 
3.450000000002856, -0.4551704537468758 
3.460000000002877, -0.45469522766475495 
3.4700000000028983, -0.45378939219976644 
3.4800000000029194, -0.4522957868505575 
3.4900000000029405, -0.4499052621495335 
3.5000000000029616, -0.44608460172492964 
3.5100000000029827, -0.4400359882664332 
3.520000000003004, -0.43086473686936505 
3.530000000003025, -0.41819736039853883 
3.540000000003046, -0.4030086619360966 
3.550000000003067, -0.3875463004134688 
3.5600000000030882, -0.37397640092405604 
3.5700000000031094, -0.3632752878407419 
3.5800000000031305, -0.3553369315699767 
3.5900000000031516, -0.3495968420323558 
3.6000000000031727, -0.3454614107896113 
3.6100000000031938, -0.3424614278858813 
3.620000000003215, -0.3402666469493677 
3.630000000003236, -0.33865898136444245 
3.640000000003257, -0.3375030330546109 
3.650000000003278, -0.33672436697045993 
3.6600000000032993, -0.3362967787144073 
3.6700000000033204, -0.33623802483874127 
3.6800000000033415, -0.33661415019029683 
3.6900000000033626, -0.3375542835922339 
3.7000000000033837, -0.3392805887841607 
3.710000000003405, -0.34216250711973306 
3.720000000003426, -0.3468109323521397 
3.730000000003447, -0.3542340430751554 
3.740000000003468, -0.3660653322788649 
3.750000000003489, -0.38477785001406817 
3.7600000000035103, -0.4134392305210689 
3.7700000000035314, -0.4538825687638755 
3.7800000000035525, -0.502773354630408 
3.7900000000035736, -0.5501565233761989 
3.8000000000035947, -0.5864353836884735 
3.810000000003616, -0.6095368505169014 
3.820000000003637, -0.6228185419175388 
3.830000000003658, -0.6301967241735322 
3.840000000003679, -0.6342950955158512 
3.8500000000037002, -0.6365751326271921 
3.8600000000037213, -0.6378034452462659 
3.8700000000037424, -0.6383728056778766 
3.8800000000037635, -0.6384715511562665 
3.8900000000037847, -0.6381626541401434 
3.9000000000038058, -0.6374132786754603 
3.910000000003827, -0.6360965731217108 
3.920000000003848, -0.6339827484310238 
3.930000000003869, -0.6307487618027029 
3.94000000000389, -0.6260594037046093 
3.9500000000039113, -0.6197621069844668 
3.9600000000039324, -0.6121154927645357 
3.9700000000039535, -0.6038145125220135 
3.9800000000039746, -0.5956993829719263 
3.9900000000039957, -0.5883973604644638 
4.000000000004016, -0.5821874230164591 
4.010000000003993, -0.577081263840383 
4.02000000000397, -0.5729605105847869 
4.030000000003946, -0.5696742854696056 
4.040000000003923, -0.5670858186665753 
4.0500000000039, -0.565086592254017 
4.0600000000038765, -0.5635953318621666 
4.070000000003853, -0.5625519737683413 
4.08000000000383, -0.5619114483301677 
4.090000000003807, -0.561639236816667 
4.100000000003783, -0.5617092651341179 
4.11000000000376, -0.562104066337394 
4.120000000003737, -0.5628168685552098 
4.130000000003713, -0.5638551025858852 
4.14000000000369, -0.5652445191765781 
4.150000000003667, -0.5670323194559806 
4.1600000000036434, -0.5692860961262308 
4.17000000000362, -0.5720828915614192 
4.180000000003597, -0.5754802353254869 
4.1900000000035735, -0.5794628302211223 
4.20000000000355, -0.5838748644035167 
4.210000000003527, -0.5883849362746272 
4.220000000003504, -0.5925524932559154 
4.23000000000348, -0.5959960671947996 
4.240000000003457, -0.5985396957029845 
4.250000000003434, -0.6002211155571799 
4.26000000000341, -0.6011926042387706 
4.270000000003387, -0.6016181983273305 
4.280000000003364, -0.6016180504513251 
4.2900000000033405, -0.6012501055039785 
4.300000000003317, -0.6005036086313874 
4.310000000003294, -0.5992844885889198 
4.320000000003271, -0.5973750322080222 
4.330000000003247, -0.5943399934703741 
4.340000000003224, -0.5893226109309745 
4.350000000003201, -0.5806326282389586 
4.360000000003177, -0.5650861388550955 
4.370000000003154, -0.5377263704608375 
4.380000000003131, -0.4944131702886228 
4.390000000003107, -0.4387919195541783 
4.400000000003084, -0.3840626469734295 
4.410000000003061, -0.34156778170907387 
4.4200000000030375, -0.3131681778668454 
4.430000000003014, -0.2953900212164133 
4.440000000002991, -0.2843965055447307 
4.450000000002968, -0.2775138896760798 
4.460000000002944, -0.2731214997287851 
4.470000000002921, -0.2702760664513072 
4.480000000002898, -0.26843168297794795 
4.490000000002874, -0.2672728955465459 
4.500000000002851, -0.266622060548829 
4.510000000002828, -0.2663900415341349 
4.520000000002804, -0.26655246701647417 
4.530000000002781, -0.26714288101535305 
4.540000000002758, -0.26826002212666816 
4.5500000000027345, -0.270090999773842 
4.560000000002711, -0.2729566386601764 
4.570000000002688, -0.277389743063063 
4.580000000002665, -0.2842562594444755 
4.590000000002641, -0.294898649205218 
4.600000000002618, -0.3111441026419343 
4.610000000002595, -0.3346714568731194 
4.620000000002571, -0.36504610490186873 
4.630000000002548, -0.3975634571637685 
4.640000000002525, -0.42521739602703235 
4.6500000000025015, -0.44428315849668626 
4.660000000002478, -0.45572966573646073 
4.670000000002455, -0.4621989515157307 
4.6800000000024315, -0.4658192149342494 
4.690000000002408, -0.467854159775613 
4.700000000002385, -0.46897678164113554 
4.710000000002362, -0.4695323591040873 
4.720000000002338, -0.469690682503091 
4.730000000002315, -0.4695221483043698 
4.740000000002292, -0.4690344598161375 
4.750000000002268, -0.46819340503371903 
4.760000000002245, -0.4669442920342566 
4.770000000002222, -0.4652465118782344 
4.7800000000021985, -0.4631215133022556 
4.790000000002175, -0.46068916377644714 
4.800000000002152, -0.45815337459945865 
4.810000000002129, -0.4557321854986597 
4.820000000002105, -0.45358248999128614 
4.830000000002082, -0.4517695934798417 
4.840000000002059, -0.45028267870860567 
4.850000000002035, -0.44906805684447415 
4.860000000002012, -0.4480590860381163 
4.870000000001989, -0.44719628311250703 
4.880000000001965, -0.44643816027880606 
4.890000000001942, -0.44576543509720484 
4.900000000001919, -0.4451823149359987 
