t, s[1].omega / s[0].omega 
0, -1.3299975870436735 
0.009999999999999995, -1.3295613936295654 
0.019999999999999934, -1.3287420502689156 
0.029999999999999874, -1.3275525426728505 
0.04000000000000012, -1.3260277904645446 
0.050000000000000405, -1.3242384861826713 
0.06000000000000069, -1.3223136890798417 
0.07000000000000098, -1.3204909379667966 
0.08000000000000126, -1.3191187873119083 
0.09000000000000155, -1.318429387859573 
0.10000000000000184, -1.3182695630374566 
0.11000000000000212, -1.318238704355041 
0.12000000000000241, -1.3179747073754546 
0.130000000000002, -1.3171569975269375 
0.1400000000000009, -1.3152985047913073 
0.1499999999999998, -1.3114633479387618 
0.1599999999999987, -1.3039785591841775 
0.1699999999999976, -1.2903721927131695 
0.1799999999999965, -1.2679866585809314 
0.1899999999999954, -1.2357259307686692 
0.1999999999999943, -1.197108035485064 
0.2099999999999932, -1.1621148617078074 
0.2199999999999921, -1.1409378897034388 
0.229999999999991, -1.1337956715605788 
0.2399999999999899, -1.1335879141691296 
0.2499999999999888, -1.1349094166702314 
0.2599999999999877, -1.135896213109707 
0.2699999999999866, -1.1362618612972413 
0.2799999999999855, -1.1360126091675815 
0.2899999999999844, -1.134996846170644 
0.2999999999999833, -1.1326238501006882 
0.3099999999999822, -1.127274033347467 
0.3199999999999811, -1.1147897312539428 
0.32999999999998, -1.0852424259408235 
0.3399999999999789, -1.019724737642058 
0.3499999999999778, -0.9004907391973197 
0.35999999999997667, -0.7460263560677797 
0.36999999999997557, -0.6130326504650448 
0.37999999999997447, -0.5319684986178724 
0.38999999999997337, -0.49139322121084617 
0.39999999999997227, -0.47254960270819224 
0.40999999999997117, -0.46397371641003265 
0.41999999999997006, -0.46011791338595953 
0.42999999999996896, -0.4584383824128675 
0.43999999999996786, -0.45776458498220174 
0.44999999999996676, -0.45754754596990677 
0.45999999999996566, -0.45752431069804606 
0.46999999999996456, -0.45756708945654545 
0.47999999999996346, -0.4576163432931404 
0.48999999999996235, -0.45765482990639017 
0.49999999999996125, -0.45770193771882317 
0.5099999999999602, -0.4578130116895777 
0.519999999999959, -0.45806976607370875 
0.529999999999958, -0.458555430151623 
0.5399999999999568, -0.4593184345595155 
0.5499999999999557, -0.460333135300949 
0.5599999999999546, -0.46147671815431623 
0.5699999999999535, -0.4625570444825752 
0.5799999999999524, -0.4633958096484764 
0.5899999999999513, -0.4639002939185011 
0.5999999999999502, -0.46406295838432243 
0.6099999999999491, -0.4639108122029012 
0.619999999999948, -0.46345455787268425 
0.6299999999999469, -0.46265081946828673 
0.6399999999999458, -0.46135503937351846 
0.6499999999999447, -0.4592096486137401 
0.6599999999999436, -0.45531602536015053 
0.6699999999999425, -0.4472296682556162 
0.6799999999999414, -0.4282877840899792 
0.6899999999999403, -0.3848302419456397 
0.6999999999999392, -0.31036868432612336 
0.7099999999999381, -0.23392194447276718 
0.719999999999937, -0.18445808490663645 
0.7299999999999359, -0.158766007904576 
0.7399999999999348, -0.14580836360097654 
0.7499999999999337, -0.13896072012611388 
0.7599999999999326, -0.13511541761002394 
0.7699999999999315, -0.13284807031353765 
0.7799999999999304, -0.1314885410013092 
0.7899999999999293, -0.1307231336936378 
0.7999999999999282, -0.13043121165773408 
0.8099999999999271, -0.13063048804154842 
0.819999999999926, -0.1314927577376387 
0.8299999999999249, -0.13344697804919764 
0.8399999999999238, -0.13746475152287072 
0.8499999999999227, -0.14581774232136113 
0.8599999999999216, -0.16411657566793397 
0.8699999999999205, -0.20621302371667774 
0.8799999999999194, -0.2980909123647865 
0.8899999999999183, -0.44103721477616925 
0.8999999999999172, -0.552153926962773 
0.9099999999999161, -0.5890129712182588 
0.919999999999915, -0.5936055176148535 
0.9299999999999139, -0.5939345125580039 
0.9399999999999128, -0.5950549524705936 
0.9499999999999117, -0.5965056372756994 
0.9599999999999106, -0.5977497736847972 
0.9699999999999095, -0.598629794425002 
0.9799999999999084, -0.5991537781535304 
0.9899999999999073, -0.5993589630379488 
0.9999999999999062, -0.5992577950093186 
1.0099999999999052, -0.5988204727289989 
1.019999999999904, -0.5979777315587012 
1.029999999999903, -0.5966522256184077 
1.039999999999902, -0.5948285139546899 
1.0499999999999008, -0.5926263689553918 
1.0599999999998997, -0.5902904077134923 
1.0699999999998986, -0.5880749922088562 
1.0799999999998975, -0.5861334647913545 
1.0899999999998964, -0.5844993914229089 
1.0999999999998953, -0.5831330152223985 
1.1099999999998942, -0.5819753200288422 
1.119999999999893, -0.5809837981966219 
1.129999999999892, -0.5801485540069399 
1.1399999999998909, -0.5794961409029219 
1.1499999999998898, -0.5790891285196076 
1.1599999999998887, -0.5790258242876751 
1.1699999999998876, -0.579441255952558 
1.1799999999998865, -0.5805101115830681 
1.1899999999998854, -0.5824541991648146 
1.1999999999998843, -0.5855587648305349 
1.2099999999998832, -0.5902005771891955 
1.219999999999882, -0.5968806136121094 
1.229999999999881, -0.606222261365473 
1.2399999999998799, -0.6188187167277082 
1.2499999999998788, -0.634716761737595 
1.2599999999998777, -0.652533548151036 
1.2699999999998766, -0.6692393546470549 
1.2799999999998755, -0.6819459491504433 
1.2899999999998744, -0.6899584641237982 
1.2999999999998733, -0.6943850431792925 
1.3099999999998722, -0.6966125158780045 
1.319999999999871, -0.6975869053045296 
1.32999999999987, -0.6978038823092748 
1.3399999999998689, -0.6974514006026737 
1.3499999999998678, -0.6964854390541244 
1.3599999999998666, -0.6945896683588042 
1.3699999999998655, -0.6909529204334067 
1.3799999999998644, -0.6836748225061581 
1.3899999999998633, -0.6684800591607915 
1.3999999999998622, -0.6372624377750553 
1.4099999999998611, -0.5818936489221098 
1.41999999999986, -0.509799239986942 
1.429999999999859, -0.44544352340656157 
1.4399999999998578, -0.4023670144811611 
1.4499999999998567, -0.3772013028100706 
1.4599999999998556, -0.36293915577852437 
1.4699999999998545, -0.3547374438371437 
1.4799999999998534, -0.3499067190419964 
1.4899999999998523, -0.34701908392425523 
1.4999999999998512, -0.3453102290092851 
1.5099999999998501, -0.3443645394514629 
1.519999999999849, -0.34395791827926175 
1.529999999999848, -0.34398095562465014 
1.5399999999998468, -0.34440450383895305 
1.5499999999998457, -0.3452710466521074 
1.5599999999998446, -0.3467065214497354 
1.5699999999998435, -0.34895382199430214 
1.5799999999998424, -0.3524321272512303 
1.5899999999998413, -0.35781646915971965 
1.5999999999998402, -0.3660693978334069 
1.6099999999998391, -0.37815685681113004 
1.619999999999838, -0.39397268008046954 
1.629999999999837, -0.41094852546960847 
1.6399999999998358, -0.42509595123786464 
1.6499999999998347, -0.43444046240483414 
1.6599999999998336, -0.43973472159148885 
1.6699999999998325, -0.4425054786485562 
1.6799999999998314, -0.4438640214492317 
1.6899999999998303, -0.4444105692090503 
1.6999999999998292, -0.44441490257117355 
1.709999999999828, -0.4439484093846691 
1.719999999999827, -0.4429442080073661 
1.729999999999826, -0.4412289128225707 
1.7399999999998248, -0.43859351507137745 
1.7499999999998237, -0.4349709276400383 
1.7599999999998226, -0.43065041604307414 
1.7699999999998215, -0.42624635123428917 
1.7799999999998204, -0.4223436132123868 
1.7899999999998193, -0.4192123119095179 
1.7999999999998182, -0.4168322114615862 
1.809999999999817, -0.41505174090124164 
1.819999999999816, -0.413704086372811 
1.8299999999998149, -0.41265745954668526 
1.8399999999998138, -0.41182939331151136 
1.8499999999998127, -0.4111872724364361 
1.8599999999998116, -0.4107476609631604 
1.8699999999998105, -0.41058354565668365 
1.8799999999998094, -0.4108482983526306 
1.8899999999998083, -0.4118293837805953 
1.8999999999998072, -0.4140580466161465 
1.909999999999806, -0.41853157236950184 
1.919999999999805, -0.4271663640684168 
1.9299999999998039, -0.4436912756538551 
1.9399999999998028, -0.4751031235239054 
1.9499999999998017, -0.5322526758490251 
1.9599999999998006, -0.6223631753951488 
1.9699999999997995, -0.7284608170548608 
1.9799999999997984, -0.8133591836939242 
1.9899999999997973, -0.8620965249247469 
1.9999999999997962, -0.8853110677251496 
2.0099999999998173, -0.8956907323393847 
2.0199999999998384, -0.9003018483479813 
2.0299999999998595, -0.9023101748186875 
2.0399999999998806, -0.9030443503403436 
2.0499999999999017, -0.9030232186371462 
2.059999999999923, -0.9023587974340377 
2.069999999999944, -0.9008479558628892 
2.079999999999965, -0.8978398648979171 
2.089999999999986, -0.8917822124362582 
2.100000000000007, -0.8791206071876637 
2.1100000000000283, -0.8519605006903164 
2.1200000000000494, -0.7945498758309284 
2.1300000000000705, -0.6859256794168502 
2.1400000000000916, -0.5330027126835983 
2.1500000000001127, -0.3981674641790847 
2.160000000000134, -0.3197874576209627 
2.170000000000155, -0.2821381977052875 
2.180000000000176, -0.2643938657444596 
2.190000000000197, -0.25565056429055566 
2.2000000000002182, -0.2511159674925928 
2.2100000000002393, -0.24868300944121655 
2.2200000000002604, -0.24738411121603157 
2.2300000000002815, -0.24675834206538244 
2.2400000000003026, -0.24658939981551178 
2.2500000000003237, -0.24679611834391466 
2.260000000000345, -0.2473922589009382 
2.270000000000366, -0.2484858520658683 
2.280000000000387, -0.2503125792059758 
2.290000000000408, -0.2533132082413085 
2.3000000000004293, -0.2582753348940749 
2.3100000000004504, -0.26653053963281986 
2.3200000000004715, -0.27997186096590615 
2.3300000000004926, -0.2999717899686592 
2.3400000000005137, -0.3243358772821537 
2.3500000000005348, -0.34636754229344724 
2.360000000000556, -0.3611200226061086 
2.370000000000577, -0.36920826414504404 
2.380000000000598, -0.3732958920095437 
2.390000000000619, -0.37532290606736046 
2.4000000000006403, -0.37628748600029005 
2.4100000000006614, -0.3766451314018868 
2.4200000000006825, -0.3765833950961277 
2.4300000000007036, -0.3761535566276052 
2.4400000000007247, -0.3753369522962292 
2.450000000000746, -0.374102008769812 
2.460000000000767, -0.3724775721610967 
2.470000000000788, -0.3706137416618063 
2.480000000000809, -0.3687579687996719 
2.49000000000083, -0.3671422572578273 
2.5000000000008513, -0.3658881652886046 
2.5100000000008724, -0.3649988957572114 
2.5200000000008935, -0.3644017170111953 
2.5300000000009146, -0.3639919177640595 
2.5400000000009357, -0.363666750361838 
2.550000000000957, -0.36334905470813483 
2.560000000000978, -0.3629963843889925 
2.570000000000999, -0.3625974490606201 
2.58000000000102, -0.36216662677830996 
2.5900000000010412, -0.36174864935304857 
2.6000000000010624, -0.3614453553055327 
2.6100000000010835, -0.3614835143078174 
2.6200000000011046, -0.36235165837626065 
2.6300000000011257, -0.3649543752670891 
2.6400000000011468, -0.36992811796469355 
2.650000000001168, -0.3709244452053435 
2.660000000001189, -0.3312808727531665 
2.67000000000121, -0.20348025239518097 
2.680000000001231, -0.06796290263112374 
2.6900000000012523, 0.00015771705410049148 
2.7000000000012734, 0.02707540175988146 
2.7100000000012945, 0.03822400850787508 
2.7200000000013156, 0.04327847315457608 
2.7300000000013367, 0.0457140356599837 
2.740000000001358, 0.04687352118014248 
2.750000000001379, 0.04730956142936949 
2.7600000000014, 0.0472332961273611 
2.770000000001421, 0.04665837176233321 
2.780000000001442, 0.04540589653672207 
2.7900000000014633, 0.042978720935314914 
2.8000000000014844, 0.03819196385025514 
2.8100000000015055, 0.028327146233302725 
2.8200000000015266, 0.00864825187299509 
2.8300000000015477, -0.014027746071418785 
2.840000000001569, 0.03308816745767332 
2.85000000000159, 0.16469349730111849 
2.860000000001611, 0.2406497994701898 
2.870000000001632, 0.2670051919144713 
2.8800000000016532, 0.2764210049567757 
2.8900000000016743, 0.280210379732095 
2.9000000000016954, 0.2818528260323341 
2.9100000000017165, 0.2825578250053551 
2.9200000000017377, 0.28281315540355373 
2.9300000000017588, 0.28285165198582757 
2.94000000000178, 0.28282614397362127 
2.950000000001801, 0.2829251239763526 
2.960000000001822, 0.28354612566182735 
2.970000000001843, 0.28560968285838817 
2.9800000000018643, 0.2907322541647126 
2.9900000000018854, 0.2998542935466124 
3.0000000000019065, 0.3105423376847805 
3.0100000000019276, 0.31891104511772794 
3.0200000000019487, 0.32386515026070584 
3.03000000000197, 0.3263441660668115 
3.040000000001991, 0.3273543073252105 
3.050000000002012, 0.32747334434974296 
3.060000000002033, 0.326981709338625 
3.070000000002054, 0.3260433782592045 
3.0800000000020753, 0.32482935860544576 
3.0900000000020964, 0.3235547333345255 
3.1000000000021175, 0.32242631358327517 
3.1100000000021386, 0.3215715992238906 
3.1200000000021597, 0.3210235971677876 
3.130000000002181, 0.3207522556003382 
3.140000000002202, 0.32069399002530513 
3.150000000002223, 0.320759764625735 
3.160000000002244, 0.3208325420130201 
3.1700000000022652, 0.3207665259962284 
3.1800000000022863, 0.3203787107774381 
3.1900000000023074, 0.3193951681917528 
3.2000000000023285, 0.31728493818717846 
3.2100000000023496, 0.31285198265097236 
3.2200000000023707, 0.3034450795807195 
3.230000000002392, 0.2849016599968547 
3.240000000002413, 0.25817594842263414 
3.250000000002434, 0.23718465517721737 
3.260000000002455, 0.22904365230371737 
3.2700000000024763, 0.2274684783320598 
3.2800000000024974, 0.22755032649698753 
3.2900000000025185, 0.22776905701164354 
3.3000000000025396, 0.22780457839182058 
3.3100000000025607, 0.2275944892229924 
3.3200000000025818, 0.2270760788018897 
3.330000000002603, 0.22608881037274342 
3.340000000002624, 0.2242435367257524 
3.350000000002645, 0.22057331827063797 
3.360000000002666, 0.21241812953765973 
3.3700000000026873, 0.19148405318149 
3.3800000000027084, 0.1314632089587137 
3.3900000000027295, -0.0054761735516245524 
3.4000000000027506, -0.10665948971294432 
3.4100000000027717, -0.08510069681343078 
3.420000000002793, -0.04904217938194659 
3.430000000002814, -0.03006347827080995 
3.440000000002835, -0.021230988340499055 
3.450000000002856, -0.016954527725467548 
3.460000000002877, -0.01477025802515309 
3.4700000000028983, -0.013646187795894858 
3.4800000000029194, -0.013149313254420564 
3.4900000000029405, -0.013124494426160392 
3.5000000000029616, -0.013587357130596054 
3.5100000000029827, -0.014726817053883953 
3.520000000003004, -0.017017470821570565 
3.530000000003025, -0.021552451940081298 
3.540000000003046, -0.03096423230604276 
3.550000000003067, -0.05196193029019213 
3.5600000000030882, -0.10083168474697142 
3.5700000000031094, -0.20008921302611116 
3.5800000000031305, -0.3208354097690378 
3.5900000000031516, -0.3892128437761549 
3.6000000000031727, -0.4107054523264364 
3.6100000000031938, -0.4164163783772699 
3.620000000003215, -0.4183986738902256 
3.630000000003236, -0.4194476943021698 
3.640000000003257, -0.42012975583293305 
3.650000000003278, -0.4205748085038117 
3.6600000000032993, -0.42082638121469323 
3.6700000000033204, -0.4209021531450628 
3.6800000000033415, -0.42080523081676197 
3.6900000000033626, -0.42053278183341025 
3.7000000000033837, -0.4200925376824141 
3.710000000003405, -0.41952540549777684 
3.720000000003426, -0.41891827075934573 
3.730000000003447, -0.4183875373265495 
3.740000000003468, -0.41803770651644734 
3.750000000003489, -0.41792299197984933 
3.7600000000035103, -0.4180296029927894 
3.7700000000035314, -0.4182788304920679 
3.7800000000035525, -0.4185529251531023 
3.7900000000035736, -0.41873954139016145 
3.8000000000035947, -0.4187677852980903 
3.810000000003616, -0.41861190530120995 
3.820000000003637, -0.4182703244081179 
3.830000000003658, -0.4177418328900146 
3.840000000003679, -0.4170086715082861 
3.8500000000037002, -0.41602023200303095 
3.8600000000037213, -0.4146494587810057 
3.8700000000037424, -0.4125065674054964 
3.8800000000037635, -0.4080877088674084 
3.8900000000037847, -0.39525122559067133 
3.9000000000038058, -0.3541998093379089 
3.910000000003827, -0.26004900557248445 
3.920000000003848, -0.15015983038782368 
3.930000000003869, -0.08270782033236344 
3.94000000000389, -0.05180270189824958 
3.9500000000039113, -0.0378781891112064 
3.9600000000039324, -0.03110765323837407 
3.9700000000039535, -0.027527161656496102 
3.9800000000039746, -0.025510080519480303 
3.9900000000039957, -0.02435071147183487 
4.000000000004016, -0.023741599685035773 
4.010000000003993, -0.023581819873496637 
4.02000000000397, -0.023924233407861564 
4.030000000003946, -0.02501514397286436 
4.040000000003923, -0.02746571908984087 
4.0500000000039, -0.03271879446524216 
4.0600000000038765, -0.04418317000823657 
4.070000000003853, -0.06872022141369119 
4.08000000000383, -0.10639237952166124 
4.090000000003807, -0.0873577196424071 
4.100000000003783, 0.05383064972110669 
4.11000000000376, 0.15942671121627447 
4.120000000003737, 0.1984649853113631 
4.130000000003713, 0.2122827028909388 
4.14000000000369, 0.21778823963900085 
4.150000000003667, 0.22019743681038081 
4.1600000000036434, 0.22126939774536292 
4.17000000000362, 0.22167479812243107 
4.180000000003597, 0.2216893765211884 
4.1900000000035735, 0.22142302048898535 
4.20000000000355, 0.22091839093029927 
4.210000000003527, 0.22027053629452809 
4.220000000003504, 0.22003883310073744 
4.23000000000348, 0.22268267135257364 
4.240000000003457, 0.2347697511048351 
4.250000000003434, 0.2600860156253225 
4.26000000000341, 0.28566321084894897 
4.270000000003387, 0.3008203585902393 
4.280000000003364, 0.3079453820171107 
4.2900000000033405, 0.3110993942857697 
4.300000000003317, 0.3124115092872621 
4.310000000003294, 0.31281169670099984 
4.320000000003271, 0.31272587041539307 
4.330000000003247, 0.3123904954990724 
4.340000000003224, 0.3119730412190772 
4.350000000003201, 0.3116073887653758 
4.360000000003177, 0.31140053728006617 
4.370000000003154, 0.31143715317262405 
4.380000000003131, 0.3117807729456567 
4.390000000003107, 0.312455179951431 
4.400000000003084, 0.31340171491004926 
4.410000000003061, 0.3144503056343846 
4.4200000000030375, 0.315361292944429 
4.430000000003014, 0.315918024402627 
4.440000000002991, 0.3159666472397918 
4.450000000002968, 0.31535212849601557 
4.460000000002944, 0.3137858398693979 
4.470000000002921, 0.31069785208189576 
4.480000000002898, 0.30524447740877886 
4.490000000002874, 0.2970361665286319 
4.500000000002851, 0.28768634007540267 
4.510000000002828, 0.28026999026484434 
4.520000000002804, 0.27602201327929043 
4.530000000002781, 0.2740101642654093 
4.540000000002758, 0.27307913337857237 
4.5500000000027345, 0.2725704480392604 
4.560000000002711, 0.27217371247598143 
4.570000000002688, 0.27171777618052123 
4.580000000002665, 0.271043743494009 
4.590000000002641, 0.26990128919813283 
4.600000000002618, 0.26776884953100183 
4.610000000002595, 0.26336293383808607 
4.620000000002571, 0.2530395973305651 
4.630000000002548, 0.22540959458805182 
4.640000000002525, 0.15143650564290798 
4.6500000000025015, 0.03654108954603937 
4.660000000002478, -0.006575239225864087 
4.670000000002455, 0.004772904538780543 
4.6800000000024315, 0.017089810632876307 
4.690000000002408, 0.02366387516468371 
4.700000000002385, 0.0268417050347273 
4.710000000002362, 0.028319385486881794 
4.720000000002338, 0.02890171110789204 
4.730000000002315, 0.028937399864815954 
4.740000000002292, 0.028543041326114658 
4.750000000002268, 0.02767905687580054 
4.760000000002245, 0.026130352723732406 
4.770000000002222, 0.0233703781175187 
4.7800000000021985, 0.01816457710677933 
4.790000000002175, 0.007440526522320104 
4.800000000002152, -0.016693593099400546 
4.810000000002129, -0.07397799276348858 
4.820000000002105, -0.18524263417708622 
4.830000000002082, -0.29906589358835506 
4.840000000002059, -0.34826541854823717 
4.850000000002035, -0.3588086331240937 
4.860000000002012, -0.3600532648737167 
4.870000000001989, -0.36011965525791684 
4.880000000001965, -0.36023801479109535 
4.890000000001942, -0.3604311974742702 
