t, s[1].omega / s[0].omega 
0, -0.6998692837721285 
0.009999999999999995, -0.6871666955521996 
0.019999999999999934, -0.6764650197341039 
0.029999999999999874, -0.6688446265419927 
0.04000000000000012, -0.6642154515201583 
0.050000000000000405, -0.6618250817608351 
0.06000000000000069, -0.6608332388911661 
0.07000000000000098, -0.6605918803372247 
0.08000000000000126, -0.660687426829804 
0.09000000000000155, -0.6608865150645319 
0.10000000000000184, -0.6610688463787664 
0.11000000000000212, -0.6611756449431458 
0.12000000000000241, -0.66117650046385 
0.130000000000002, -0.661049920838845 
0.1400000000000009, -0.6607729344237555 
0.1499999999999998, -0.660317301093203 
0.1599999999999987, -0.6596521720123213 
0.1699999999999976, -0.6587538211941788 
0.1799999999999965, -0.6576205289110505 
0.1899999999999954, -0.6562850062744381 
0.1999999999999943, -0.6548137553990068 
0.2099999999999932, -0.653289877818239 
0.2199999999999921, -0.6517890688075524 
0.229999999999991, -0.6503633254504425 
0.2399999999999899, -0.6490387454519759 
0.2499999999999888, -0.6478234960876806 
0.2599999999999877, -0.6467185740633382 
0.2699999999999866, -0.6457263275739379 
0.2799999999999855, -0.6448552617236575 
0.2899999999999844, -0.6441217819906588 
0.2999999999999833, -0.6435500250724975 
0.3099999999999822, -0.6431706157299918 
0.3199999999999811, -0.6430188527469071 
0.32999999999998, -0.6431327492049681 
0.3399999999999789, -0.643551407825991 
0.3499999999999778, -0.6443141380745393 
0.35999999999997667, -0.6454603125690276 
0.36999999999997557, -0.6470291320707272 
0.37999999999997447, -0.6490572494120727 
0.38999999999997337, -0.6515708343222164 
0.39999999999997227, -0.6545680654297812 
0.40999999999997117, -0.6579906456911621 
0.41999999999997006, -0.6616924564332577 
0.42999999999996896, -0.6654293514876356 
0.43999999999996786, -0.6689000521720314 
0.44999999999996676, -0.6718376772070647 
0.45999999999996566, -0.6740973456919722 
0.46999999999996456, -0.6756774309869676 
0.47999999999996346, -0.6766726660341423 
0.48999999999996235, -0.6772082181663399 
0.49999999999996125, -0.6773942555857285 
0.5099999999999602, -0.6773071476141596 
0.519999999999959, -0.67698623077417 
0.529999999999958, -0.6764349472570699 
0.5399999999999568, -0.6756198092531271 
0.5499999999999557, -0.6744636953050257 
0.5599999999999546, -0.672830589385664 
0.5699999999999535, -0.6704978226960279 
0.5799999999999524, -0.6671112625529443 
0.5899999999999513, -0.6621275031303328 
0.5999999999999502, -0.6547924905469668 
0.6099999999999491, -0.6443193162213803 
0.619999999999948, -0.6304807583834774 
0.6299999999999469, -0.6143786963697817 
0.6399999999999458, -0.5983744446555359 
0.6499999999999447, -0.58478869720513 
0.6599999999999436, -0.5747096956805385 
0.6699999999999425, -0.5679748210789866 
0.6799999999999414, -0.5638205372939501 
0.6899999999999403, -0.5614232904279197 
0.6999999999999392, -0.5601290118120141 
0.7099999999999381, -0.5594860256125423 
0.719999999999937, -0.5592054096777861 
0.7299999999999359, -0.5591105463047804 
0.7399999999999348, -0.5590961473109103 
0.7499999999999337, -0.5590997275115623 
0.7599999999999326, -0.5590833905241333 
0.7699999999999315, -0.5590232605708746 
0.7799999999999304, -0.5589046015112841 
0.7899999999999293, -0.5587212113879924 
0.7999999999999282, -0.5584773889276704 
0.8099999999999271, -0.5581896711749564 
0.819999999999926, -0.5578849107847004 
0.8299999999999249, -0.5575929497096601 
0.8399999999999238, -0.5573360322068596 
0.8499999999999227, -0.557120111931757 
0.8599999999999216, -0.5569326695413614 
0.8699999999999205, -0.5567481445185154 
0.8799999999999194, -0.5565379904460933 
0.8899999999999183, -0.556280127788692 
0.8999999999999172, -0.5559638270642224 
0.9099999999999161, -0.5555897904841773 
0.919999999999915, -0.5551681824145679 
0.9299999999999139, -0.5547178160192474 
0.9399999999999128, -0.554268694114934 
0.9499999999999117, -0.5538693446828248 
0.9599999999999106, -0.5536005296189874 
0.9699999999999095, -0.5535976141304462 
0.9799999999999084, -0.5540842616457906 
0.9899999999999073, -0.555418145799722 
0.9999999999999062, -0.5581400744065599 
1.0099999999999052, -0.562991086726895 
1.019999999999904, -0.570807404878914 
1.029999999999903, -0.5821512573476444 
1.039999999999902, -0.5966541829315146 
1.0499999999999008, -0.612555449213698 
1.0599999999998997, -0.6272994846669796 
1.0699999999998986, -0.6390212355969555 
1.0799999999998975, -0.6473467509698858 
1.0899999999998964, -0.6529008089071677 
1.0999999999998953, -0.6565140392907065 
1.1099999999998942, -0.6588439893959441 
1.119999999999893, -0.660329980620192 
1.129999999999892, -0.661249701107569 
1.1399999999998909, -0.6617750714513717 
1.1499999999998898, -0.6620087501157015 
1.1599999999998887, -0.6620051055110006 
1.1699999999998876, -0.6617809414790261 
1.1799999999998865, -0.6613195816990114 
1.1899999999998854, -0.6605713778944882 
1.1999999999998843, -0.6594552059823982 
1.2099999999998832, -0.6578689348927022 
1.219999999999882, -0.6557190064679971 
1.229999999999881, -0.6529713903463515 
1.2399999999998799, -0.6497020577862195 
1.2499999999998788, -0.6461044151854064 
1.2599999999998777, -0.6424335037567286 
1.2699999999998766, -0.6389228334877697 
1.2799999999998755, -0.6357298760322356 
1.2899999999998744, -0.6329298487926568 
1.2999999999998733, -0.630538935316312 
1.3099999999998722, -0.6285420451640586 
1.319999999999871, -0.6269125629348976 
1.32999999999987, -0.6256225110601614 
1.3399999999998689, -0.6246460179952112 
1.3499999999998678, -0.6239594026488644 
1.3599999999998666, -0.6235402520407892 
1.3699999999998655, -0.6233668341291613 
1.3799999999998644, -0.6234183880883208 
1.3899999999998633, -0.6236762904399377 
1.3999999999998622, -0.6241257669011028 
1.4099999999998611, -0.6247576284901356 
1.41999999999986, -0.6255693127023262 
1.429999999999859, -0.6265641576886314 
1.4399999999998578, -0.6277473828789006 
1.4499999999998567, -0.6291172278554344 
1.4599999999998556, -0.6306512109679272 
1.4699999999998545, -0.6322915629387266 
1.4799999999998534, -0.6339395368707735 
1.4899999999998523, -0.6354695780719546 
1.4999999999998512, -0.63676343099778 
1.5099999999998501, -0.6377457398072438 
1.519999999999849, -0.6383979845179515 
1.529999999999848, -0.6387457804954275 
1.5399999999998468, -0.638834103520412 
1.5499999999998457, -0.6387063411699756 
1.5599999999998446, -0.6383929218107548 
1.5699999999998435, -0.6379075623560895 
1.5799999999998424, -0.6372475533470957 
1.5899999999998413, -0.6363959654066267 
1.5999999999998402, -0.6353254245194566 
1.6099999999998391, -0.6340037348777459 
1.619999999999838, -0.6323992556751384 
1.629999999999837, -0.6304746716171514 
1.6399999999998358, -0.6281397229864872 
1.6499999999998347, -0.6251315787413654 
1.6599999999998336, -0.620898947496194 
1.6699999999998325, -0.614817055904054 
1.6799999999998314, -0.606942605372036 
1.6899999999998303, -0.5985096685978797 
1.6999999999998292, -0.5911876707205718 
1.709999999999828, -0.5859284758706643 
1.719999999999827, -0.5827140308395959 
1.729999999999826, -0.5810235699804158 
1.7399999999998248, -0.5802851809394897 
1.7499999999998237, -0.5800656419212908 
1.7599999999998226, -0.5800887897972247 
1.7699999999998215, -0.5801954021753948 
1.7799999999998204, -0.5802991049577854 
1.7899999999998193, -0.5803537785482149 
1.7999999999998182, -0.5803328557118305 
1.809999999999817, -0.5802174651852696 
1.819999999999816, -0.5799909173848942 
1.8299999999998149, -0.57963834023809 
1.8399999999998138, -0.5791508995294474 
1.8499999999998127, -0.5785329998696704 
1.8599999999998116, -0.5778082618104227 
1.8699999999998105, -0.5770185665530566 
1.8799999999998094, -0.5762137478100999 
1.8899999999998083, -0.5754365366678664 
1.8999999999998072, -0.5747112548048652 
1.909999999999806, -0.5740416002360098 
1.919999999999805, -0.5734166693959067 
1.9299999999998039, -0.5728205364240089 
1.9399999999998028, -0.5722406881718923 
1.9499999999998017, -0.5716730313998839 
1.9599999999998006, -0.571123968796946 
1.9699999999997995, -0.5706115377915026 
1.9799999999997984, -0.5701675597534814 
1.9899999999997973, -0.5698420042200372 
1.9999999999997962, -0.5697101402633316 
2.0099999999998173, -0.5698827303492053 
2.0199999999998384, -0.5705192874248823 
2.0299999999998595, -0.5718437647229908 
2.0399999999998806, -0.5741600142103216 
2.0499999999999017, -0.5778589961379328 
2.059999999999923, -0.5833980476143162 
2.069999999999944, -0.5912136928593357 
2.079999999999965, -0.6015186166981856 
2.089999999999986, -0.6139864420932027 
2.100000000000007, -0.6275132193813704 
2.1100000000000283, -0.6404251399322554 
2.1200000000000494, -0.651218707911581 
2.1300000000000705, -0.6592359582610907 
2.1400000000000916, -0.6646783227903406 
2.1500000000001127, -0.6681551856706404 
2.160000000000134, -0.670284727113926 
2.170000000000155, -0.6715325665669403 
2.180000000000176, -0.6722030964261455 
2.190000000000197, -0.6724782979412718 
2.2000000000002182, -0.6724551408828588 
2.2100000000002393, -0.6721691079622019 
2.2200000000002604, -0.6716038597472911 
2.2300000000002815, -0.6706892696931499 
2.2400000000003026, -0.6692906511353767 
2.2500000000003237, -0.6671960760903138 
2.260000000000345, -0.6641204999737141 
2.270000000000366, -0.6597628286615562 
2.280000000000387, -0.653948466422398 
2.290000000000408, -0.6468159973767547 
2.3000000000004293, -0.6388911210543052 
2.3100000000004504, -0.6309217599672362 
2.3200000000004715, -0.6235823317715095 
2.3300000000004926, -0.6172797945066628 
2.3400000000005137, -0.6121449370307112 
2.3500000000005348, -0.6081250037015656 
2.360000000000556, -0.6050803688042935 
2.370000000000577, -0.602847130806982 
2.380000000000598, -0.6012679542426057 
2.390000000000619, -0.6002039470355787 
2.4000000000006403, -0.599537661520327 
2.4100000000006614, -0.5991726640780574 
2.4200000000006825, -0.5990319679963731 
2.4300000000007036, -0.5990561123795166 
2.4400000000007247, -0.5992011794603125 
2.450000000000746, -0.599436984664162 
2.460000000000767, -0.5997456261744046 
2.470000000000788, -0.6001202755443409 
2.480000000000809, -0.6005634591641499 
2.49000000000083, -0.6010834215397095 
2.5000000000008513, -0.6016872201498003 
2.5100000000008724, -0.6023707479986726 
2.5200000000008935, -0.6031088543928338 
2.5300000000009146, -0.6038515484146313 
2.5400000000009357, -0.6045317363866566 
2.550000000000957, -0.6050835147746555 
2.560000000000978, -0.6054612516847645 
2.570000000000999, -0.605648091155748 
2.58000000000102, -0.6056511384467869 
2.5900000000010412, -0.6054898606606719 
2.6000000000010624, -0.6051856414540964 
2.6100000000010835, -0.6047563254581485 
2.6200000000011046, -0.6042160510194385 
2.6300000000011257, -0.6035799286006722 
2.6400000000011468, -0.602874233877456 
2.650000000001168, -0.6021542898963477 
2.660000000001189, -0.6015324311967474 
2.67000000000121, -0.6012136458159604 
2.680000000001231, -0.6015184412633199 
2.6900000000012523, -0.602832130748127 
2.7000000000012734, -0.6053816294031308 
2.7100000000012945, -0.6088429193076209 
2.7200000000013156, -0.6121805780488986 
2.7300000000013367, -0.6142963988371309 
2.740000000001358, -0.6150056172318965 
2.750000000001379, -0.6150108451065417 
2.7600000000014, -0.6150347229174564 
2.770000000001421, -0.6153432383075155 
2.780000000001442, -0.6158712077797575 
2.7900000000014633, -0.6164666902294085 
2.8000000000014844, -0.6170126892447507 
2.8100000000015055, -0.6174474458493275 
2.8200000000015266, -0.6177477465938825 
2.8300000000015477, -0.6179087412073894 
2.840000000001569, -0.6179295381291181 
2.85000000000159, -0.6178046001036834 
2.860000000001611, -0.6175193614387896 
2.870000000001632, -0.6170495660887549 
2.8800000000016532, -0.6163654328569756 
2.8900000000016743, -0.6154423196280063 
2.9000000000016954, -0.6142769905355399 
2.9100000000017165, -0.6129023208654669 
2.9200000000017377, -0.6113887410234374 
2.9300000000017588, -0.6098268721198046 
2.94000000000178, -0.6083006177768122 
2.950000000001801, -0.6068673144576746 
2.960000000001822, -0.6055536104301138 
2.970000000001843, -0.6043636461619474 
2.9800000000018643, -0.6032912940783042 
2.9900000000018854, -0.6023304199068317 
3.0000000000019065, -0.6014811384223335 
3.0100000000019276, -0.6007527025733947 
3.0200000000019487, -0.600164478841759 
3.03000000000197, -0.5997461448663733 
3.040000000001991, -0.5995376692500006 
3.050000000002012, -0.5995892808324943 
3.060000000002033, -0.599961555719904 
3.070000000002054, -0.6007257490944629 
3.0800000000020753, -0.601964286627846 
3.0900000000020964, -0.6037705829360965 
3.1000000000021175, -0.6062457394750753 
3.1100000000021386, -0.6094870311807072 
3.1200000000021597, -0.6135602226073341 
3.130000000002181, -0.6184484745941663 
3.140000000002202, -0.6239838633776952 
3.150000000002223, -0.629800719240338 
3.160000000002244, -0.6353803136712415 
3.1700000000022652, -0.6402158456587288 
3.1800000000022863, -0.6440029808514146 
3.1900000000023074, -0.6467081587704413 
3.2000000000023285, -0.6484881178441464 
3.2100000000023496, -0.6495622811840157 
3.2200000000023707, -0.6501263759923384 
3.230000000002392, -0.6503205023108096 
3.240000000002413, -0.6502276443393411 
3.250000000002434, -0.6498802942652483 
3.260000000002455, -0.6492635584693025 
3.2700000000024763, -0.6483095220110833 
3.2800000000024974, -0.6468794511976699 
3.2900000000025185, -0.6447310157514468 
3.3000000000025396, -0.6414732410291503 
3.3100000000025607, -0.636535119898433 
3.3200000000025818, -0.6292293098341715 
3.330000000002603, -0.6190436584761724 
3.340000000002624, -0.6061620307267075 
3.350000000002645, -0.5917918172576258 
3.360000000002666, -0.5777520658457697 
3.3700000000026873, -0.5655699883280765 
3.3800000000027084, -0.5559391882045227 
3.3900000000027295, -0.5488192084463356 
3.4000000000027506, -0.5437987287785729 
3.4100000000027717, -0.5403825166911843 
3.420000000002793, -0.5381297715192458 
3.430000000002814, -0.5366942339705733 
3.440000000002835, -0.5358204882142268 
3.450000000002856, -0.5353267526679147 
3.460000000002877, -0.5350867151320815 
3.4700000000028983, -0.5350143905055745 
3.4800000000029194, -0.5350526889726528 
3.4900000000029405, -0.5351653940306089 
3.5000000000029616, -0.5353320462170397 
3.5100000000029827, -0.5355451060495857 
3.520000000003004, -0.5358083981528484 
3.530000000003025, -0.5361352130748038 
3.540000000003046, -0.536544033851462 
3.550000000003067, -0.5370504658567667 
3.5600000000030882, -0.5376560435928772 
3.5700000000031094, -0.5383376984977641 
3.5800000000031305, -0.5390442355855402 
3.5900000000031516, -0.5397052358036981 
3.6000000000031727, -0.5402508518741114 
3.6100000000031938, -0.5406318749129793 
3.620000000003215, -0.5408283135962132 
3.630000000003236, -0.5408440847351671 
3.640000000003257, -0.5406947371460288 
3.650000000003278, -0.5403960334853413 
3.6600000000032993, -0.5399566829295053 
3.6700000000033204, -0.53937463938064 
3.6800000000033415, -0.5386349940588588 
3.6900000000033626, -0.5377072455029246 
3.7000000000033837, -0.53653868145355 
3.710000000003405, -0.5350366051370642 
3.720000000003426, -0.533022773741737 
3.730000000003447, -0.5301319935371893 
3.740000000003468, -0.5256495303095261 
3.750000000003489, -0.5184453743587252 
3.7600000000035103, -0.5074691743674846 
3.7700000000035314, -0.49298914242009423 
3.7800000000035525, -0.47724036234927336 
3.7900000000035736, -0.46307448129789214 
3.8000000000035947, -0.45212508098070137 
3.810000000003616, -0.44449791868214916 
3.820000000003637, -0.4395184454943597 
3.830000000003658, -0.4363939043605381 
3.840000000003679, -0.4344861990289237 
3.8500000000037002, -0.43335120602155885 
3.8600000000037213, -0.4326997982043769 
3.8700000000037424, -0.43234982702126257 
3.8800000000037635, -0.4321886888779554 
3.8900000000037847, -0.43214810095644995 
3.9000000000038058, -0.4321883326948351 
3.910000000003827, -0.4322890371516824 
3.920000000003848, -0.43244455170683443 
3.930000000003869, -0.43266200656546483 
3.94000000000389, -0.432960532081539 
3.9500000000039113, -0.43336946564997153 
3.9600000000039324, -0.43392326223994315 
3.9700000000039535, -0.4346514228943651 
3.9800000000039746, -0.43556358107935333 
3.9900000000039957, -0.43663337856545476 
4.000000000004016, -0.43778973316254133 
4.010000000003993, -0.4389262641307405 
4.02000000000397, -0.4399309980020358 
4.030000000003946, -0.4407210158175422 
4.040000000003923, -0.4412599917474843 
4.0500000000039, -0.44155141435070105 
4.0600000000038765, -0.44161851698645566 
4.070000000003853, -0.44148473826810886 
4.08000000000383, -0.44116022763357876 
4.090000000003807, -0.44063251849401713 
4.100000000003783, -0.43985671127522774 
4.11000000000376, -0.4387401809627967 
4.120000000003737, -0.4371174524726957 
4.130000000003713, -0.43471511041782585 
4.14000000000369, -0.43112414280880207 
4.150000000003667, -0.4258413961010774 
4.1600000000036434, -0.4184874440517712 
4.17000000000362, -0.40920778747593334 
4.180000000003597, -0.3989148861663741 
4.1900000000035735, -0.3889362191503756 
4.20000000000355, -0.3803145964384874 
4.210000000003527, -0.3734544501318625 
4.220000000003504, -0.3682607904608618 
4.23000000000348, -0.3644256962924712 
4.240000000003457, -0.36162117084147793 
4.250000000003434, -0.3595767776527507 
4.26000000000341, -0.35809348449454836 
4.270000000003387, -0.3570341911035989 
4.280000000003364, -0.35631001693268344 
4.2900000000033405, -0.35586902503507567 
4.300000000003317, -0.35568896912495684 
4.310000000003294, -0.3557740859384676 
4.320000000003271, -0.3561557645027279 
4.330000000003247, -0.35689715712097225 
4.340000000003224, -0.3581019661131972 
4.350000000003201, -0.3599271723541068 
4.360000000003177, -0.362597102470237 
4.370000000003154, -0.36640918909429143 
4.380000000003131, -0.3717058772421705 
4.390000000003107, -0.3787639056752141 
4.400000000003084, -0.3875559798255134 
4.410000000003061, -0.39746281485595003 
4.4200000000030375, -0.407259377222728 
4.430000000003014, -0.41564775828907985 
4.440000000002991, -0.4219429012357224 
4.450000000002968, -0.426219720142934 
4.460000000002944, -0.42894874349543677 
4.470000000002921, -0.43062650323639884 
4.480000000002898, -0.43162357001412965 
4.490000000002874, -0.43217738272655853 
4.500000000002851, -0.4324279695367877 
4.510000000002828, -0.4324514974846732 
4.520000000002804, -0.4322824822177892 
4.530000000002781, -0.43192722008872897 
4.540000000002758, -0.4313732461624954 
4.5500000000027345, -0.4305996747897468 
4.560000000002711, -0.4295921857934544 
4.570000000002688, -0.42836223212611346 
4.580000000002665, -0.4269621760819818 
4.590000000002641, -0.42548317026787147 
4.600000000002618, -0.42403115531359986 
4.610000000002595, -0.42269430579512857 
4.620000000002571, -0.4215218894874643 
4.630000000002548, -0.42052258718420193 
4.640000000002525, -0.4196762157301692 
4.6500000000025015, -0.418949139097319 
4.660000000002478, -0.41830708923034515 
4.670000000002455, -0.4177231231599829 
4.6800000000024315, -0.4171810837093187 
4.690000000002408, -0.41667640780187876 
4.700000000002385, -0.41621655860608653 
4.710000000002362, -0.4158230757972605 
4.720000000002338, -0.41553690339025157 
4.730000000002315, -0.41542876369347714 
4.740000000002292, -0.4156169391898225 
4.750000000002268, -0.41629530745253324 
4.760000000002245, -0.41777270056814053 
4.770000000002222, -0.4205141183487472 
4.7800000000021985, -0.42513943659168163 
4.790000000002175, -0.4322572759048137 
4.800000000002152, -0.4419445256533547 
4.810000000002129, -0.45294949116298416 
4.820000000002105, -0.46261982328320117 
4.830000000002082, -0.4686447846378898 
4.840000000002059, -0.4709442578843781 
4.850000000002035, -0.4711063447754601 
4.860000000002012, -0.4706301272035665 
4.870000000001989, -0.47022516291107863 
4.880000000001965, -0.47004856580261445 
4.890000000001942, -0.4700483760053792 
4.900000000001919, -0.470138753937727 
4.9100000000018955, -0.4702536565462738 
