t, s[1].omega / s[0].omega 
0, -0.5999969942810306 
0.009999999999999995, -0.5997089591412282 
0.019999999999999934, -0.5994395915198131 
0.029999999999999874, -0.599170755043844 
0.04000000000000012, -0.5988798748517462 
0.050000000000000405, -0.5985489449667202 
0.06000000000000069, -0.5981699499608697 
0.07000000000000098, -0.5977460560909412 
0.08000000000000126, -0.5972908545892479 
0.09000000000000155, -0.5968286090388715 
0.10000000000000184, -0.596397577280002 
0.11000000000000212, -0.5960575489960527 
0.12000000000000241, -0.595902377445241 
0.130000000000002, -0.5960781990311386 
0.1400000000000009, -0.5968075347741095 
0.1499999999999998, -0.5984174444583175 
0.1599999999999987, -0.601364186984455 
0.1699999999999976, -0.6062334554795321 
0.1799999999999965, -0.6136703587935706 
0.1899999999999954, -0.624166887835097 
0.1999999999999943, -0.6376661107970809 
0.2099999999999932, -0.6531457722982098 
0.2199999999999921, -0.6686576170911706 
0.229999999999991, -0.6821449804027486 
0.2399999999999899, -0.69245258025642 
0.2499999999999888, -0.699581711851373 
0.2599999999999877, -0.7041949166185135 
0.2699999999999866, -0.7070580246101479 
0.2799999999999855, -0.7087762299051884 
0.2899999999999844, -0.7097556248156127 
0.2999999999999833, -0.7102458414803531 
0.3099999999999822, -0.7103888216316789 
0.3199999999999811, -0.7102524760657298 
0.32999999999998, -0.7098479902924196 
0.3399999999999789, -0.7091334443254775 
0.3499999999999778, -0.7080060908861917 
0.35999999999997667, -0.7062867259303202 
0.36999999999997557, -0.7037066155467245 
0.37999999999997447, -0.6999242343123682 
0.38999999999997337, -0.6946171660763653 
0.39999999999997227, -0.6876713555852396 
0.40999999999997117, -0.6793781331200864 
0.41999999999997006, -0.6704422264698531 
0.42999999999996896, -0.6617247991544801 
0.43999999999996786, -0.6539186067349074 
0.44999999999996676, -0.6473905618404064 
0.45999999999996566, -0.6422159260900699 
0.46999999999996456, -0.6382902986372313 
0.47999999999996346, -0.6354290817114893 
0.48999999999996235, -0.6334286782292486 
0.49999999999996125, -0.6320970247184574 
0.5099999999999602, -0.6312665062295172 
0.519999999999959, -0.63079810782839 
0.529999999999958, -0.6305812357398233 
0.5399999999999568, -0.6305312063749766 
0.5499999999999557, -0.6305855203636813 
0.5599999999999546, -0.6306998564913237 
0.5699999999999535, -0.6308446338101467 
0.5799999999999524, -0.631002676650666 
0.5899999999999513, -0.6311678235846911 
0.5999999999999502, -0.6313433424872679 
0.6099999999999491, -0.6315383636559766 
0.619999999999948, -0.6317612200193932 
0.6299999999999469, -0.6320109180914003 
0.6399999999999458, -0.6322706329934941 
0.6499999999999447, -0.6325077685765627 
0.6599999999999436, -0.6326821749349298 
0.6699999999999425, -0.6327587205817422 
0.6799999999999414, -0.6327170721150068 
0.6899999999999403, -0.6325540319617919 
0.6999999999999392, -0.632279724176487 
0.7099999999999381, -0.6319124657683786 
0.719999999999937, -0.6314765256574552 
0.7299999999999359, -0.6310048772128013 
0.7399999999999348, -0.6305480030846748 
0.7499999999999337, -0.6301901052729149 
0.7599999999999326, -0.6300747824917069 
0.7699999999999315, -0.6304420308595639 
0.7799999999999304, -0.6316751527313038 
0.7899999999999293, -0.6343456167173177 
0.7999999999999282, -0.6392191274043653 
0.8099999999999271, -0.6471434153581879 
0.819999999999926, -0.6587074189505197 
0.8299999999999249, -0.6736636644596444 
0.8399999999999238, -0.6904814858633451 
0.8499999999999227, -0.7067172988532076 
0.8599999999999216, -0.7202463184943861 
0.8699999999999205, -0.7302275733334955 
0.8799999999999194, -0.7369857490249967 
0.8899999999999183, -0.7413247134391303 
0.8999999999999172, -0.7440195584009627 
0.9099999999999161, -0.7456429182162323 
0.919999999999915, -0.746569878505146 
0.9299999999999139, -0.7470296855884456 
0.9399999999999128, -0.7471520874541747 
0.9499999999999117, -0.7469970977843177 
0.9599999999999106, -0.7465692130351865 
0.9699999999999095, -0.7458185573068074 
0.9799999999999084, -0.7446307313768236 
0.9899999999999073, -0.742808577091439 
0.9999999999999062, -0.740057100157758 
1.0099999999999052, -0.7360014844609102 
1.019999999999904, -0.73028787662163 
1.029999999999903, -0.7227905506211385 
1.039999999999902, -0.7138269522264304 
1.0499999999999008, -0.7041675260259199 
1.0599999999998997, -0.6947587934860918 
1.0699999999998986, -0.6863699696272286 
1.0799999999998975, -0.679415399335888 
1.0899999999998964, -0.6739833434811857 
1.0999999999998953, -0.669953580298173 
1.1099999999998942, -0.6671072154505236 
1.119999999999893, -0.6651985837986797 
1.129999999999892, -0.6639946505367689 
1.1399999999998909, -0.6632939078134144 
1.1499999999998898, -0.6629332500366075 
1.1599999999998887, -0.662787596007309 
1.1699999999998876, -0.662765214557915 
1.1799999999998865, -0.6628010769999021 
1.1899999999998854, -0.6628502032308108 
1.1999999999998843, -0.6628824963607716 
1.2099999999998832, -0.6628798631305144 
1.219999999999882, -0.6628353759071915 
1.229999999999881, -0.6627528944402791 
1.2399999999998799, -0.6626446895917426 
1.2499999999998788, -0.6625255136753535 
1.2599999999998777, -0.6624044583761866 
1.2699999999998766, -0.6622786879144772 
1.2799999999998755, -0.662133009557267 
1.2899999999998744, -0.661945880487482 
1.2999999999998733, -0.6616983494684672 
1.3099999999998722, -0.6613810022436972 
1.319999999999871, -0.66099642170063 
1.32999999999987, -0.6605584739433574 
1.3399999999998689, -0.6600915903337603 
1.3499999999998678, -0.659632613490136 
1.3599999999998666, -0.6592363229082097 
1.3699999999998655, -0.6589846417836175 
1.3799999999998644, -0.6589987605046719 
1.3899999999998633, -0.6594525390379999 
1.3999999999998622, -0.6605842197433389 
1.4099999999998611, -0.6627013690039438 
1.41999999999986, -0.6661703277764381 
1.429999999999859, -0.6713752172982732 
1.4399999999998578, -0.6786240830317349 
1.4499999999998567, -0.6879831605596044 
1.4599999999998556, -0.6990660125846492 
1.4699999999998545, -0.7109150618608712 
1.4799999999998534, -0.7221914043063422 
1.4899999999998523, -0.7316982337514595 
1.4999999999998512, -0.73886424929627 
1.5099999999998501, -0.7437929759752734 
1.519999999999849, -0.7469560400136291 
1.529999999999848, -0.7488745490312797 
1.5399999999998468, -0.7499622059408119 
1.5499999999998457, -0.750497737436561 
1.5599999999998446, -0.7506486916587104 
1.5699999999998435, -0.7505007815243553 
1.5799999999998424, -0.7500769165333228 
1.5899999999998413, -0.7493427062963255 
1.5999999999998402, -0.7481976943109363 
1.6099999999998391, -0.7464506826087814 
1.619999999999838, -0.7437781095393686 
1.629999999999837, -0.7396742892555981 
1.6399999999998358, -0.7334364324131648 
1.6499999999998347, -0.72429413071106 
1.6599999999998336, -0.7118204138123329 
1.6699999999998325, -0.6965326349880319 
1.6799999999998314, -0.6801111237919552 
1.6899999999998303, -0.6647334137882084 
1.6999999999998292, -0.6520207760361904 
1.709999999999828, -0.6425428060305813 
1.719999999999827, -0.636038238993922 
1.729999999999826, -0.6318714599499125 
1.7399999999998248, -0.6293664376985291 
1.7499999999998237, -0.6279591167860683 
1.7599999999998226, -0.6272331451771976 
1.7699999999998215, -0.6269035633259096 
1.7799999999998204, -0.626785153503992 
1.7899999999998193, -0.6267615411795913 
1.7999999999998182, -0.6267605074328996 
1.809999999999817, -0.6267364061160575 
1.819999999999816, -0.6266590442403703 
1.8299999999998149, -0.6265081537082082 
1.8399999999998138, -0.6262725370406139 
1.8499999999998127, -0.6259522703444661 
1.8599999999998116, -0.6255608929561057 
1.8699999999998105, -0.6251237322739359 
1.8799999999998094, -0.6246705262016993 
1.8899999999998083, -0.6242249588513276 
1.8999999999998072, -0.6237967579137699 
1.909999999999806, -0.6233806246411208 
1.919999999999805, -0.6229619116184415 
1.9299999999998039, -0.6225252562609777 
1.9399999999998028, -0.6220617271747428 
1.9499999999998017, -0.6215723644379487 
1.9599999999998006, -0.6210690390513409 
1.9699999999997995, -0.6205750350433584 
1.9799999999997984, -0.6201273865150598 
1.9899999999997973, -0.6197819359581254 
1.9999999999997962, -0.6196212235822817 
2.0099999999998173, -0.6197647749357239 
2.0199999999998384, -0.6203808296090256 
2.0299999999998595, -0.6216976423778744 
2.0399999999998806, -0.6240105136585375 
2.0499999999999017, -0.627676363901802 
2.059999999999923, -0.6330793233444814 
2.069999999999944, -0.6405397504032879 
2.079999999999965, -0.6501395325776396 
2.089999999999986, -0.6614875542594854 
2.100000000000007, -0.6735817279037676 
2.1100000000000283, -0.6850193181933188 
2.1200000000000494, -0.6945757221950613 
2.1300000000000705, -0.7017107106686646 
2.1400000000000916, -0.7065816759837291 
2.1500000000001127, -0.7096966709741659 
2.160000000000134, -0.7115883456733034 
2.170000000000155, -0.712668152736961 
2.180000000000176, -0.7132089526824298 
2.190000000000197, -0.7133733105051401 
2.2000000000002182, -0.7132438169039055 
2.2100000000002393, -0.712841863400613 
2.2200000000002604, -0.7121328114860469 
2.2300000000002815, -0.7110175361273176 
2.2400000000003026, -0.7093101321510005 
2.2500000000003237, -0.7067047407502269 
2.260000000000345, -0.7027492278381867 
2.270000000000366, -0.6968789487737576 
2.280000000000387, -0.6886019340410041 
2.290000000000408, -0.6778676721451118 
2.3000000000004293, -0.6653957611698795 
2.3100000000004504, -0.6525560625194836 
2.3200000000004715, -0.6407685770683943 
2.3300000000004926, -0.6309429661413818 
2.3400000000005137, -0.6233508006005033 
2.3500000000005348, -0.6178202989573292 
2.360000000000556, -0.613982523061859 
2.370000000000577, -0.6114359249503613 
2.380000000000598, -0.6098243261991304 
2.390000000000619, -0.6088617767930414 
2.4000000000006403, -0.6083321420735905 
2.4100000000006614, -0.6080788878996362 
2.4200000000006825, -0.6079923301172099 
2.4300000000007036, -0.607997555993111 
2.4400000000007247, -0.6080444392106056 
2.450000000000746, -0.6081003786564445 
2.460000000000767, -0.608145930013429 
2.470000000000788, -0.6081729512100957 
2.480000000000809, -0.608184004460991 
2.49000000000083, -0.608190819438443 
2.5000000000008513, -0.608209643952957 
2.5100000000008724, -0.6082532132143977 
2.5200000000008935, -0.6083221221077191 
2.5300000000009146, -0.608400241207365 
2.5400000000009357, -0.6084575908575134 
2.550000000000957, -0.6084599462206544 
2.560000000000978, -0.6083800219294794 
2.570000000000999, -0.608204288169389 
2.58000000000102, -0.6079333431120351 
2.5900000000010412, -0.6075784689970558 
2.6000000000010624, -0.6071585978902794 
2.6100000000010835, -0.6067007133466757 
2.6200000000011046, -0.606245243480432 
2.6300000000011257, -0.6058576383492075 
2.6400000000011468, -0.6056478461228451 
2.650000000001168, -0.6057998818629444 
2.660000000001189, -0.6066126609367387 
2.67000000000121, -0.6085478214555321 
2.680000000001231, -0.6122644127892644 
2.6900000000012523, -0.6185856275392677 
2.7000000000012734, -0.628293240401823 
2.7100000000012945, -0.6416502211319297 
2.7200000000013156, -0.6577888185896835 
2.7300000000013367, -0.6745795807075102 
2.740000000001358, -0.6895448239330456 
2.750000000001379, -0.7011714508160922 
2.7600000000014, -0.7093252655414792 
2.770000000001421, -0.7146868303356886 
2.780000000001442, -0.7180857591119852 
2.7900000000014633, -0.7201878792512318 
2.8000000000014844, -0.7214470931704065 
2.8100000000015055, -0.7221496160173491 
2.8200000000015266, -0.7224660449744766 
2.8300000000015477, -0.7224885338299799 
2.840000000001569, -0.7222519652137762 
2.85000000000159, -0.7217421692521088 
2.860000000001611, -0.7208938798176417 
2.870000000001632, -0.7195813866339276 
2.8800000000016532, -0.7176089198633393 
2.8900000000016743, -0.7147183907957607 
2.9000000000016954, -0.7106453178069947 
2.9100000000017165, -0.7052452691085204 
2.9200000000017377, -0.698647789481672 
2.9300000000017588, -0.6913093624640698 
2.94000000000178, -0.6838758435787633 
2.950000000001801, -0.6769451673776461 
2.960000000001822, -0.6709063756344222 
2.970000000001843, -0.6659196904905664 
2.9800000000018643, -0.6619795949845456 
2.9900000000018854, -0.658988556011918 
3.0000000000019065, -0.6568094858153236 
3.0100000000019276, -0.655295666636875 
3.0200000000019487, -0.6543062890971723 
3.03000000000197, -0.6537145336813175 
3.040000000001991, -0.653411770822273 
3.050000000002012, -0.6533091917519751 
3.060000000002033, -0.6533373883866422 
3.070000000002054, -0.653444480250683 
3.0800000000020753, -0.6535936558746247 
3.0900000000020964, -0.6537610028848729 
3.1000000000021175, -0.6539340321143144 
3.1100000000021386, -0.6541103735210212 
3.1200000000021597, -0.6542951806754383 
3.130000000002181, -0.6544957946941035 
3.140000000002202, -0.6547139481983634 
3.150000000002223, -0.6549385226377995 
3.160000000002244, -0.6551433597760821 
3.1700000000022652, -0.6552928089678948 
3.1800000000022863, -0.6553528611509429 
3.1900000000023074, -0.6553015689024269 
3.2000000000023285, -0.6551332993084351 
3.2100000000023496, -0.6548565938884515 
3.2200000000023707, -0.6544897228437184 
3.230000000002392, -0.6540583533165012 
3.240000000002413, -0.6535978584457107 
3.250000000002434, -0.6531613517332412 
3.260000000002455, -0.6528342447919953 
3.2700000000024763, -0.6527562079934857 
3.2800000000024974, -0.6531506728058588 
3.2900000000025185, -0.6543590447568457 
3.3000000000025396, -0.6568695083773436 
3.3100000000025607, -0.6613155893712162 
3.3200000000025818, -0.6683957809164054 
3.330000000002603, -0.6786453747407474 
3.340000000002624, -0.6920327641301169 
3.350000000002645, -0.7075515979306316 
3.360000000002666, -0.7232614903302068 
3.3700000000026873, -0.7370740331616064 
3.3800000000027084, -0.7477475549628859 
3.3900000000027295, -0.755191662049002 
3.4000000000027506, -0.7600246067586797 
3.4100000000027717, -0.7630157531852941 
3.420000000002793, -0.7647944900813477 
3.430000000002814, -0.7657912803755879 
3.440000000002835, -0.7662729420827594 
3.450000000002856, -0.7663910806453118 
3.460000000002877, -0.7662171579631004 
3.4700000000028983, -0.7657604972553107 
3.4800000000029194, -0.7649706541825461 
3.4900000000029405, -0.7637248598863859 
3.5000000000029616, -0.7618005755051882 
3.5100000000029827, -0.7588379609294085 
3.520000000003004, -0.754316472585262 
3.530000000003025, -0.747611690860523 
3.540000000003046, -0.7382321539725302 
3.550000000003067, -0.7262406340472086 
3.5600000000030882, -0.7125676576445146 
3.5700000000031094, -0.6987914888856428 
3.5800000000031305, -0.6864442084785805 
3.5900000000031516, -0.6764374029485128 
3.6000000000031727, -0.6689725087270227 
3.6100000000031938, -0.6637769101607758 
3.620000000003215, -0.6603792278261352 
3.630000000003236, -0.6582917283581267 
3.640000000003257, -0.6570969175376381 
3.650000000003278, -0.6564733166447903 
3.6600000000032993, -0.656190556069125 
3.6700000000033204, -0.656092095062564 
3.6800000000033415, -0.6560753520017852 
3.6900000000033626, -0.6560740179573722 
3.7000000000033837, -0.6560445538315858 
3.710000000003405, -0.655957482672209 
3.720000000003426, -0.6557934356642499 
3.730000000003447, -0.6555432502079079 
3.740000000003468, -0.6552101430718935 
3.750000000003489, -0.6548104878040666 
3.7600000000035103, -0.6543698740326398 
3.7700000000035314, -0.6539143311754275 
3.7800000000035525, -0.6534608697159039 
3.7900000000035736, -0.6530127194510539 
3.8000000000035947, -0.6525616049378689 
3.810000000003616, -0.6520949752319692 
3.820000000003637, -0.6516038039333996 
3.830000000003658, -0.6510876529215202 
3.840000000003679, -0.6505566428932632 
3.8500000000037002, -0.6500321682726355 
3.8600000000037213, -0.6495484185917754 
3.8700000000037424, -0.6491557460966033 
3.8800000000037635, -0.6489257832982416 
3.8900000000037847, -0.648957440092701 
3.9000000000038058, -0.6493824654789908 
3.910000000003827, -0.6503689893677659 
3.920000000003848, -0.6521210782720512 
3.930000000003869, -0.6548711726835277 
3.94000000000389, -0.6588593116184105 
3.9500000000039113, -0.6642880893966575 
3.9600000000039324, -0.6712393714030791 
3.9700000000039535, -0.6795517578899261 
3.9800000000039746, -0.6887072861292014 
3.9900000000039957, -0.6978479290710451 
4.000000000004016, -0.7060248355082874 
4.010000000003993, -0.7125740731053863 
4.02000000000397, -0.7173246751226463 
4.030000000003946, -0.7205020376702861 
4.040000000003923, -0.72248870455762 
4.0500000000039, -0.7236439103048956 
4.0600000000038765, -0.7242336776781705 
4.070000000003853, -0.7244284093691751 
4.08000000000383, -0.7243215195068006 
4.090000000003807, -0.7239459064175194 
4.100000000003783, -0.7232805513429792 
4.11000000000376, -0.7222448253672107 
4.120000000003737, -0.720678320861545 
4.130000000003713, -0.7183037539460844 
4.14000000000369, -0.7146759292720997 
4.150000000003667, -0.7091442704444133 
4.1600000000036434, -0.7009171662110203 
4.17000000000362, -0.6893809199786924 
4.180000000003597, -0.6747028062231466 
4.1900000000035735, -0.6582674505682767 
4.20000000000355, -0.6422606085686651 
4.210000000003527, -0.6285761774757371 
4.220000000003504, -0.6180788541630736 
4.23000000000348, -0.6106798201298718 
4.240000000003457, -0.6057999193233645 
4.250000000003434, -0.602758336136948 
4.26000000000341, -0.6009645278156983 
4.270000000003387, -0.5999720820948096 
4.280000000003364, -0.5994688840276963 
4.2900000000033405, -0.5992474243345504 
4.300000000003317, -0.5991743236039779 
4.310000000003294, -0.5991654573087671 
4.320000000003271, -0.5991678245034697 
4.330000000003247, -0.599147570967893 
4.340000000003224, -0.5990832607903294 
4.350000000003201, -0.5989634724267752 
4.360000000003177, -0.598787356489437 
4.370000000003154, -0.5985657342176596 
4.380000000003131, -0.5983195291027548 
4.390000000003107, -0.5980734911085954 
4.400000000003084, -0.5978466151737475 
4.410000000003061, -0.5976438614159775 
4.4200000000030375, -0.5974538191029487 
4.430000000003014, -0.5972536873935461 
4.440000000002991, -0.5970187208447298 
4.450000000002968, -0.5967310221823106 
4.460000000002944, -0.5963839727499303 
4.470000000002921, -0.5959823355351066 
4.480000000002898, -0.5955408457730201 
4.490000000002874, -0.5950843750544231 
4.500000000002851, -0.5946516780753199 
4.510000000002828, -0.5943038916717291 
4.520000000002804, -0.5941388095001237 
4.530000000002781, -0.5943120586841836 
4.540000000002758, -0.5950657986736216 
4.5500000000027345, -0.5967629695628915 
4.560000000002711, -0.599917420731229 
4.570000000002688, -0.6051920733765451 
4.580000000002665, -0.6133044976785533 
4.590000000002641, -0.6247505143861101 
4.600000000002618, -0.6393209055630813 
4.610000000002595, -0.6556774605349655 
4.620000000002571, -0.6715824304520721 
4.630000000002548, -0.684962995637841 
4.640000000002525, -0.6948994787472405 
4.6500000000025015, -0.7016376709338085 
4.660000000002478, -0.7059537844297495 
4.670000000002455, -0.7086241331138541 
4.6800000000024315, -0.7102269615843023 
4.690000000002408, -0.7111397905645224 
4.700000000002385, -0.711591739093461 
4.710000000002362, -0.7117117097737362 
4.720000000002338, -0.7115594129806718 
4.730000000002315, -0.7111404866420925 
4.740000000002292, -0.7104088558136911 
4.750000000002268, -0.7092589789313749 
4.760000000002245, -0.7075124047266741 
4.770000000002222, -0.7049110333476386 
4.7800000000021985, -0.7011453747261058 
4.790000000002175, -0.6959565602149909 
4.800000000002152, -0.6893135006534173 
4.810000000002129, -0.6815595013997197 
4.820000000002105, -0.6733652369826915 
4.830000000002082, -0.6654772785263001 
4.840000000002059, -0.6584591367094095 
4.850000000002035, -0.6525923168986486 
4.860000000002012, -0.6479232027643308 
4.870000000001989, -0.6443577450877003 
4.880000000001965, -0.6417394203806532 
4.890000000001942, -0.6398959538300513 
4.900000000001919, -0.6386627730838859 
4.9100000000018955, -0.6378935571649678 
4.920000000001872, -0.6374644311524356 
