t, s[1].omega / s[0].omega 
0, -0.9699964808822229 
0.009999999999999995, -0.9695750044521232 
0.019999999999999934, -0.9690136392840005 
0.029999999999999874, -0.9683069005393962 
0.04000000000000012, -0.9674488513810845 
0.050000000000000405, -0.9664369704231035 
0.06000000000000069, -0.9652758441702647 
0.07000000000000098, -0.9639799249890975 
0.08000000000000126, -0.9625750906248052 
0.09000000000000155, -0.961099063840863 
0.10000000000000184, -0.9596007333454626 
0.11000000000000212, -0.958138196670377 
0.12000000000000241, -0.9567752468858013 
0.130000000000002, -0.9555763032815071 
0.1400000000000009, -0.95460039649552 
0.1499999999999998, -0.9538953818786157 
0.1599999999999987, -0.9534936172080595 
0.1699999999999976, -0.953409781252214 
0.1799999999999965, -0.9536407079600019 
0.1899999999999954, -0.9541666360082098 
0.1999999999999943, -0.9549533647195207 
0.2099999999999932, -0.9559551863735875 
0.2199999999999921, -0.9571186563823374 
0.229999999999991, -0.958387063899708 
0.2399999999999899, -0.9597050870848195 
0.2499999999999888, -0.9610229109738236 
0.2599999999999877, -0.9622991948151032 
0.2699999999999866, -0.9635025607308544 
0.2799999999999855, -0.9646115232505105 
0.2899999999999844, -0.9656129239782433 
0.2999999999999833, -0.9664990822514539 
0.3099999999999822, -0.9672641382189237 
0.3199999999999811, -0.9679004153393186 
0.32999999999998, -0.9683958638334258 
0.3399999999999789, -0.9687335327629031 
0.3499999999999778, -0.968893465308273 
0.35999999999997667, -0.9688565746867054 
0.36999999999997557, -0.9686093203021298 
0.37999999999997447, -0.9681477899629573 
0.38999999999997337, -0.9674802598682728 
0.39999999999997227, -0.9666281519938651 
0.40999999999997117, -0.9656259736203078 
0.41999999999997006, -0.9645208976990689 
0.42999999999996896, -0.9633721399474435 
0.43999999999996786, -0.9622495799157537 
0.44999999999996676, -0.9612306524652969 
0.45999999999996566, -0.9603947893064129 
0.46999999999996456, -0.9598156730562754 
0.47999999999996346, -0.9595528351238646 
0.48999999999996235, -0.9596448708929806 
0.49999999999996125, -0.960106142006662 
0.5099999999999602, -0.9609274548165884 
0.519999999999959, -0.9620797540306777 
0.529999999999958, -0.9635192339583311 
0.5399999999999568, -0.965192590524389 
0.5499999999999557, -0.9670418568745304 
0.5599999999999546, -0.9690087449369411 
0.5699999999999535, -0.9710384459472607 
0.5799999999999524, -0.9730826404169441 
0.5899999999999513, -0.9751013328235362 
0.5999999999999502, -0.9770631840869475 
0.6099999999999491, -0.9789442254582649 
0.619999999999948, -0.9807251366469522 
0.6299999999999469, -0.9823876341954659 
0.6399999999999458, -0.9839108964523857 
0.6499999999999447, -0.9852692049213302 
0.6599999999999436, -0.9864318887693213 
0.6699999999999425, -0.9873660601826182 
0.6799999999999414, -0.9880416115364152 
0.6899999999999403, -0.9884369525642034 
0.6999999999999392, -0.9885436174611606 
0.7099999999999381, -0.988368495575025 
0.719999999999937, -0.987933697150103 
0.7299999999999359, -0.9872751518571703 
0.7399999999999348, -0.9864413096872534 
0.7499999999999337, -0.9854927063341191 
0.7599999999999326, -0.9845020695673452 
0.7699999999999315, -0.9835536258042682 
0.7799999999999304, -0.9827398402607442 
0.7899999999999293, -0.9821544053904568 
0.7999999999999282, -0.9818819270995947 
0.8099999999999271, -0.9819867678087751 
0.819999999999926, -0.9825045997754677 
0.8299999999999249, -0.9834394245959592 
0.8399999999999238, -0.9847664817248938 
0.8499999999999227, -0.9864391601254637 
0.8599999999999216, -0.9883971564707971 
0.8699999999999205, -0.9905738169163629 
0.8799999999999194, -0.9929018886338373 
0.8899999999999183, -0.9953177858895297 
0.8999999999999172, -0.9977646374789969 
0.9099999999999161, -1.0001941419884284 
0.919999999999915, -1.0025670470672485 
0.9299999999999139, -1.0048520963292527 
0.9399999999999128, -1.007023537489934 
0.9499999999999117, -1.0090576669667561 
0.9599999999999106, -1.0109292975335173 
0.9699999999999095, -1.0126093266931477 
0.9799999999999084, -1.014064539369555 
0.9899999999999073, -1.0152602180754526 
0.9999999999999062, -1.0161651064596608 
1.0099999999999052, -1.0167572056798009 
1.019999999999904, -1.0170284415787458 
1.029999999999903, -1.0169868309702617 
1.039999999999902, -1.0166561009990862 
1.0499999999999008, -1.0160739256266418 
1.0599999999998997, -1.0152903030881915 
1.0699999999998986, -1.014366984461787 
1.0799999999998975, -1.0133776816243214 
1.0899999999998964, -1.0124076223497782 
1.0999999999998953, -1.0115504719201867 
1.1099999999998942, -1.0109012142757547 
1.119999999999893, -1.010545398126223 
1.129999999999892, -1.0105474547474111 
1.1399999999998909, -1.010942047980928 
1.1499999999998898, -1.0117314359550122 
1.1599999999998887, -1.0128890729854012 
1.1699999999998876, -1.014367097801985 
1.1799999999998865, -1.0161046040008999 
1.1899999999998854, -1.0180346585112088 
1.1999999999998843, -1.0200896122725425 
1.2099999999998832, -1.0222051330676571 
1.219999999999882, -1.0243233586742526 
1.229999999999881, -1.0263951385924814 
1.2399999999998799, -1.0283810559304212 
1.2499999999998788, -1.0302509730350142 
1.2599999999998777, -1.0319821154362947 
1.2699999999998766, -1.0335560603294913 
1.2799999999998755, -1.0349553538602565 
1.2899999999998744, -1.0361607571034588 
1.2999999999998733, -1.037150149520019 
1.3099999999998722, -1.0378997370936631 
1.319999999999871, -1.0383874285578298 
1.32999999999987, -1.0385973602840095 
1.3399999999998689, -1.0385240749931848 
1.3499999999998678, -1.0381751508328874 
1.3599999999998666, -1.0375719907250813 
1.3699999999998655, -1.036749402512794 
1.3799999999998644, -1.0357549079885542 
1.3899999999998633, -1.0346482366333247 
1.3999999999998622, -1.0335005191477502 
1.4099999999998611, -1.032391913577182 
1.41999999999986, -1.0314064026348737 
1.429999999999859, -1.0306236062696283 
1.4399999999998578, -1.0301092496791395 
1.4499999999998567, -1.0299072265331652 
1.4599999999998556, -1.0300358288284832 
1.4699999999998545, -1.0304887237633868 
1.4799999999998534, -1.0312391127411482 
1.4899999999998523, -1.0322447765278708 
1.4999999999998512, -1.0334526020385257 
1.5099999999998501, -1.0348025558172897 
1.519999999999849, -1.0362316967918739 
1.529999999999848, -1.0376784688472251 
1.5399999999998468, -1.0390868357076506 
1.5499999999998457, -1.0404095131511035 
1.5599999999998446, -1.0416097503175974 
1.5699999999998435, -1.0426614983954627 
1.5799999999998424, -1.0435480916123323 
1.5899999999998413, -1.044259739210973 
1.5999999999998402, -1.0447903247941375 
1.6099999999998391, -1.0451342658024172 
1.619999999999838, -1.0452843442347648 
1.629999999999837, -1.0452312671946664 
1.6399999999998358, -1.0449651933931159 
1.6499999999998347, -1.0444787656647785 
1.6599999999998336, -1.0437706830569515 
1.6699999999998325, -1.0428488178955726 
1.6799999999998314, -1.0417323094042288 
1.6899999999998303, -1.0404525920851888 
1.6999999999998292, -1.0390535312601725 
1.709999999999828, -1.0375906095604057 
1.719999999999827, -1.0361287111101762 
1.729999999999826, -1.0347379774190046 
1.7399999999998248, -1.033487784817263 
1.7499999999998237, -1.0324399041099368 
1.7599999999998226, -1.0316425898730512 
1.7699999999998215, -1.0311269956292781 
1.7799999999998204, -1.0309060458385806 
1.7899999999998193, -1.0309747485013239 
1.7999999999998182, -1.031310888389289 
1.809999999999817, -1.0318760199104957 
1.819999999999816, -1.0326176070521684 
1.8299999999998149, -1.0334730705961108 
1.8399999999998138, -1.034375486471273 
1.8499999999998127, -1.0352596908217329 
1.8599999999998116, -1.0360673956504771 
1.8699999999998105, -1.0367505571843134 
1.8799999999998094, -1.0372730094130889 
1.8899999999998083, -1.0376107252080133 
1.8999999999998072, -1.0377509590879876 
1.909999999999806, -1.0376903123685288 
1.919999999999805, -1.0374318048158526 
1.9299999999998039, -1.0369813999763027 
1.9399999999998028, -1.0363448452135084 
1.9499999999998017, -1.0355257919929408 
1.9599999999998006, -1.0345258051017452 
1.9699999999997995, -1.0333462158515447 
1.9799999999997984, -1.0319911700026148 
1.9899999999997973, -1.0304709537035186 
1.9999999999997962, -1.028804799211322 
2.0099999999998173, -1.027022678724158 
2.0199999999998384, -1.025165825203305 
2.0299999999998595, -1.0232857803344937 
2.0399999999998806, -1.0214418190604015 
2.0499999999999017, -1.0196968674514513 
2.059999999999923, -1.0181125178702166 
2.069999999999944, -1.016744105357516 
2.079999999999965, -1.015636629625444 
2.089999999999986, -1.014821615525244 
2.100000000000007, -1.0143144202542498 
2.1100000000000283, -1.014111686544281 
2.1200000000000494, -1.014189557008167 
2.1300000000000705, -1.0145040193487365 
2.1400000000000916, -1.0149944340989243 
2.1500000000001127, -1.0155899375924393 
2.160000000000134, -1.0162170394521899 
2.170000000000155, -1.016806386741436 
2.180000000000176, -1.0172974604135203 
2.190000000000197, -1.0176411486928243 
2.2000000000002182, -1.017800870622725 
2.2100000000002393, -1.0177528989640985 
2.2200000000002604, -1.017486024125625 
2.2300000000002815, -1.0170002378866707 
2.2400000000003026, -1.0163041185108046 
2.2500000000003237, -1.0154111141940148 
2.260000000000345, -1.0143355899173103 
2.270000000000366, -1.0130898305217009 
2.280000000000387, -1.0116829343076472 
2.290000000000408, -1.010121842135337 
2.3000000000004293, -1.0084140164972888 
2.3100000000004504, -1.0065708525922907 
2.3200000000004715, -1.004610875462999 
2.3300000000004926, -1.0025620211351471 
2.3400000000005137, -1.0004625876583266 
2.3500000000005348, -0.9983606440368287 
2.360000000000556, -0.9963118536274533 
2.370000000000577, -0.9943759256256105 
2.380000000000598, -0.9926122357706593 
2.390000000000619, -0.9910753287944172 
2.4000000000006403, -0.9898108109160909 
2.4100000000006614, -0.9888516727054163 
2.4200000000006825, -0.9882148226638556 
2.4300000000007036, -0.9878979557442104 
2.4400000000007247, -0.9878776381034253 
2.450000000000746, -0.9881099090185347 
2.460000000000767, -0.9885341553695391 
2.470000000000788, -0.9890796948676273 
2.480000000000809, -0.9896733409615887 
2.49000000000083, -0.990246039475395 
2.5000000000008513, -0.9907374707431423 
2.5100000000008724, -0.9910986063189061 
2.5200000000008935, -0.9912928698767527 
2.5300000000009146, -0.9912965188796246 
2.5400000000009357, -0.9910983758033669 
2.550000000000957, -0.9906985769653954 
2.560000000000978, -0.9901059833011474 
2.570000000000999, -0.989334389267328 
2.58000000000102, -0.9883983534921639 
2.5900000000010412, -0.9873098684646565 
2.6000000000010624, -0.9860769000413099 
2.6100000000010835, -0.9847041652391195 
2.6200000000011046, -0.9831957472595252 
2.6300000000011257, -0.9815586353280031 
2.6400000000011468, -0.9798061884402477 
2.650000000001168, -0.9779607690981515 
2.660000000001189, -0.9760551319377727 
2.67000000000121, -0.9741323760495244 
2.680000000001231, -0.9722443635508576 
2.6900000000012523, -0.9704486251216825 
2.7000000000012734, -0.9688040486719901 
2.7100000000012945, -0.9673660027441555 
2.7200000000013156, -0.9661817125711043 
2.7300000000013367, -0.9652864859042674 
2.740000000001358, -0.9647009183670048 
2.750000000001379, -0.9644289145665752 
2.7600000000014, -0.9644565338281711 
2.770000000001421, -0.9647521217265902 
2.780000000001442, -0.9652683810171203 
2.7900000000014633, -0.9659466067620902 
2.8000000000014844, -0.9667224739566038 
2.8100000000015055, -0.9675321350083232 
2.8200000000015266, -0.9683174005764277 
2.8300000000015477, -0.9690293424537241 
2.840000000001569, -0.9696302966720682 
2.85000000000159, -0.9700945492013848 
2.860000000001611, -0.9704078976210606 
2.870000000001632, -0.9705660604182532 
2.8800000000016532, -0.9705718854318585 
2.8900000000016743, -0.970431630828095 
2.9000000000016954, -0.9701510859528698 
2.9100000000017165, -0.9697326116428502 
2.9200000000017377, -0.9691740434572262 
2.9300000000017588, -0.9684698249908472 
2.94000000000178, -0.967613986334153 
2.950000000001801, -0.9666040150785874 
2.960000000001822, -0.9654445432719546 
2.970000000001843, -0.9641500947468984 
2.9800000000018643, -0.9627466335176265 
2.9900000000018854, -0.9612719745694306 
3.0000000000019065, -0.9597750978963767 
3.0100000000019276, -0.9583141841722065 
3.0200000000019487, -0.9569530920693106 
3.03000000000197, -0.9557562779723029 
3.040000000001991, -0.9547827719736864 
3.050000000002012, -0.9540803881978795 
3.060000000002033, -0.9536814077107145 
3.070000000002054, -0.953600408936929 
3.0800000000020753, -0.9538341162381584 
3.0900000000020964, -0.9543626625501336 
3.1000000000021175, -0.9551517554266162 
3.1100000000021386, -0.9561556166233884 
3.1200000000021597, -0.9573207569883729 
3.130000000002181, -0.9585904488396696 
3.140000000002202, -0.9599093794778601 
3.150000000002223, -0.9612277639143781 
3.160000000002244, -0.9625043046271726 
3.1700000000022652, -0.9637076713771315 
3.1800000000022863, -0.9648164215485162 
3.1900000000023074, -0.9658174262241996 
3.2000000000023285, -0.9667030144859899 
3.2100000000023496, -0.9674673147731068 
3.2200000000023707, -0.9681026224755781 
3.230000000002392, -0.9685968556126969 
3.240000000002413, -0.9689330435510931 
3.250000000002434, -0.9690912378667178 
3.260000000002455, -0.969052396723967 
3.2700000000024763, -0.968803059011344 
3.2800000000024974, -0.9683394158091473 
3.2900000000025185, -0.9676698569118376 
3.3000000000025396, -0.9668159183653423 
3.3100000000025607, -0.9658122181425004 
3.3200000000025818, -0.9647060356330724 
3.330000000002603, -0.9635566844417653 
3.340000000002624, -0.9624341200715452 
3.350000000002645, -0.9614158083611428 
3.360000000002666, -0.960581141443136 
3.3700000000026873, -0.960003676779499 
3.3800000000027084, -0.959742742528329 
3.3900000000027295, -0.9598366845042996 
3.4000000000027506, -0.9602996128526069 
3.4100000000027717, -0.9611221191294336 
3.420000000002793, -0.9622749898060221 
3.430000000002814, -0.9637143180478701 
3.440000000002835, -0.9653867459349547 
3.450000000002856, -0.9672342898124167 
3.460000000002877, -0.9691986754679808 
3.4700000000028983, -0.9712251347343737 
3.4800000000029194, -0.9732654107014377 
3.4900000000029405, -0.9752795851172039 
3.5000000000029616, -0.9772364017691685 
3.5100000000029827, -0.9791119716160347 
3.520000000003004, -0.9808870449580313 
3.530000000003025, -0.9825433988599978 
3.540000000003046, -0.9840602675082586 
3.550000000003067, -0.9854119946197843 
3.5600000000030882, -0.9865679910070279 
3.5700000000031094, -0.987495478705458 
3.5800000000031305, -0.9881644865990378 
3.5900000000031516, -0.988553574254492 
3.6000000000031727, -0.9886544194344036 
3.6100000000031938, -0.9884740330156969 
3.620000000003215, -0.98803462096099 
3.630000000003236, -0.9873721918622503 
3.640000000003257, -0.9865352722898428 
3.650000000003278, -0.9855844800963407 
3.6600000000032993, -0.9845926206812503 
3.6700000000033204, -0.9836439599415144 
3.6800000000033415, -0.982830913487141 
3.6900000000033626, -0.982246987583655 
3.7000000000033837, -0.9819764505954709 
3.710000000003405, -0.9820832145924945 
3.720000000003426, -0.9826024740071346 
3.730000000003447, -0.9835378220567368 
3.740000000003468, -0.984864225492212 
3.750000000003489, -0.9865349502407542 
3.7600000000035103, -0.9884896906547507 
3.7700000000035314, -0.9906618663580591 
3.7800000000035525, -0.9929843364700905 
3.7900000000035736, -0.9953936446303148 
3.8000000000035947, -0.9978330576253498 
3.810000000003616, -1.0002544163247498 
3.820000000003637, -1.002618610308647 
3.830000000003658, -1.0048945193597643 
3.840000000003679, -1.007056517485435 
3.8500000000037002, -1.0090810171081084 
3.8600000000037213, -1.0109429413633662 
3.8700000000037424, -1.0126133013974252 
3.8800000000037635, -1.0140590086750518 
3.8900000000037847, -1.0152454896971301 
3.9000000000038058, -1.0161416439892024 
3.910000000003827, -1.0167256245939371 
3.920000000003848, -1.0169894856818293 
3.930000000003869, -1.0169413360614337 
3.94000000000389, -1.0166049601301412 
3.9500000000039113, -1.0160180696718306 
3.9600000000039324, -1.015230701327762 
3.9700000000039535, -1.0143046565542793 
3.9800000000039746, -1.0133137001115968 
3.9900000000039957, -1.012343079472853 
4.000000000004016, -1.0114863921681212 
4.010000000003993, -1.0108384178532122 
4.02000000000397, -1.0104843530787817 
4.030000000003946, -1.0104881763917755 
4.040000000003923, -1.0108840928220988 
4.0500000000039, -1.0116739944094646 
4.0600000000038765, -1.0128311191581398 
4.070000000003853, -1.0143075371377306 
4.08000000000383, -1.016042377838398 
4.090000000003807, -1.0179687982426595 
4.100000000003783, -1.020019259722561 
4.11000000000376, -1.0221295477199193 
4.120000000003737, -1.0242419231633453 
4.130000000003713, -1.0263073635258169 
4.14000000000369, -1.0282865805055192 
4.150000000003667, -1.0301495587513612 
4.1600000000036434, -1.0318736331268734 
4.17000000000362, -1.0334404733956792 
4.180000000003597, -1.0348327022634594 
4.1900000000035735, -1.036031146992431 
4.20000000000355, -1.0370137517257096 
4.210000000003527, -1.0377567939668146 
4.220000000003504, -1.0382382641924355 
4.23000000000348, -1.0384423868996104 
4.240000000003457, -1.0383637903849126 
4.250000000003434, -1.038010127567811 
4.26000000000341, -1.0374028631984307 
4.270000000003387, -1.03657685880205 
4.280000000003364, -1.0355796883814838 
4.2900000000033405, -1.034471132286414 
4.300000000003317, -1.0333223574676123 
4.310000000003294, -1.0322135170245779 
4.320000000003271, -1.0312285181159404 
4.330000000003247, -1.0304468204527077 
4.340000000003224, -1.0299339204995528 
4.350000000003201, -1.029733459407909 
4.360000000003177, -1.0298635049188898 
4.370000000003154, -1.0303175612714046 
4.380000000003131, -1.0310687305981538 
4.390000000003107, -1.032074739682378 
4.400000000003084, -1.033282447415728 
4.410000000003061, -1.0346318110252852 
4.4200000000030375, -1.0360599026062371 
4.430000000003014, -1.037505207095454 
4.440000000002991, -1.038911756449514 
4.450000000002968, -1.0402323539564002 
4.460000000002944, -1.0414303439138703 
4.470000000002921, -1.0424797686246567 
4.480000000002898, -1.0433640394711807 
4.490000000002874, -1.0440734216082723 
4.500000000002851, -1.044601829928868 
4.510000000002828, -1.0449436906757343 
4.520000000002804, -1.0450917802906525 
4.530000000002781, -1.0450367981427717 
4.540000000002758, -1.044768905173341 
4.5500000000027345, -1.044280764213304 
4.560000000002711, -1.0435711134239125 
4.570000000002688, -1.0426478794089755 
4.580000000002665, -1.0415302647319344 
4.590000000002641, -1.040249770582462 
4.600000000002618, -1.0388503270706209 
4.610000000002595, -1.0373874730563126 
4.620000000002571, -1.0359261308367034 
4.630000000002548, -1.0345364511509474 
4.640000000002525, -1.0332877827994842 
4.6500000000025015, -1.0322418320817794 
4.660000000002478, -1.0314467600781643 
4.670000000002455, -1.0309336097121287 
4.6800000000024315, -1.0307151881413712 
4.690000000002408, -1.0307863868107308 
4.700000000002385, -1.0311248823230117 
4.710000000002362, -1.031692140339126 
4.720000000002338, -1.0324355685050082 
4.730000000002315, -1.0332925728763043 
4.740000000002292, -1.0341962567539467 
4.750000000002268, -1.0350815176172414 
4.760000000002245, -1.0358901505655864 
4.770000000002222, -1.036574205210149 
4.7800000000021985, -1.0370976101095695 
4.790000000002175, -1.0374364256349882 
4.800000000002152, -1.0375779772895002 
4.810000000002129, -1.0375189104418097 
4.820000000002105, -1.037262253844076 
4.830000000002082, -1.036813943495051 
4.840000000002059, -1.0361796703311972 
4.850000000002035, -1.035363015854947 
4.860000000002012, -1.0343654795757493 
4.870000000001989, -1.033188347478328 
4.880000000001965, -1.0318357480739868 
4.890000000001942, -1.030317978390498 
4.900000000001919, -1.028654303764196 
4.9100000000018955, -1.0268747431435872 
4.920000000001872, -1.025020581342468 
4.930000000001849, -1.0231434090662985 
