t, s[1].omega / s[0].omega 
0, -0.8200123881323684 
0.009999999999999995, -0.8211858311760898 
0.019999999999999934, -0.8221808667341254 
0.029999999999999874, -0.822938724958739 
0.04000000000000012, -0.8234312059644997 
0.050000000000000405, -0.8236638422371254 
0.06000000000000069, -0.8236665961143543 
0.07000000000000098, -0.8234806115447068 
0.08000000000000126, -0.823149676335413 
0.09000000000000155, -0.8227201477895422 
0.10000000000000184, -0.822249376526897 
0.11000000000000212, -0.8218213117184352 
0.12000000000000241, -0.8215665928617047 
0.130000000000002, -0.8216809055991303 
0.1400000000000009, -0.8224303623531133 
0.1499999999999998, -0.8241306051758241 
0.1599999999999987, -0.8270925987289462 
0.1699999999999976, -0.8315418676392392 
0.1799999999999965, -0.8375299147550891 
0.1899999999999954, -0.8448602809332291 
0.1999999999999943, -0.8530551797374061 
0.2099999999999932, -0.861400497871827 
0.2199999999999921, -0.8691032382290187 
0.229999999999991, -0.8755291998699883 
0.2399999999999899, -0.8803893003070724 
0.2499999999999888, -0.8837500522434084 
0.2599999999999877, -0.8858908840414236 
0.2699999999999866, -0.8871380049495772 
0.2799999999999855, -0.8877648710480605 
0.2899999999999844, -0.8879629252962209 
0.2999999999999833, -0.8878493899198366 
0.3099999999999822, -0.8874855753425409 
0.3199999999999811, -0.8868953345885524 
0.32999999999998, -0.8860849829267382 
0.3399999999999789, -0.885074134163488 
0.3499999999999778, -0.8839541589444115 
0.35999999999997667, -0.8829936263101903 
0.36999999999997557, -0.8827905963243504 
0.37999999999997447, -0.8843996685914399 
0.38999999999997337, -0.8892369254798076 
0.39999999999997227, -0.8985194001599854 
0.40999999999997117, -0.912302838523693 
0.41999999999997006, -0.9288516608971491 
0.42999999999996896, -0.9452488485763221 
0.43999999999996786, -0.9589762563662088 
0.44999999999996676, -0.9690011550239161 
0.45999999999996566, -0.9756167812828707 
0.46999999999996456, -0.9796815220139811 
0.47999999999996346, -0.9820430762358724 
0.48999999999996235, -0.9833258368277453 
0.49999999999996125, -0.9839276891066457 
0.5099999999999602, -0.9840784153547352 
0.519999999999959, -0.983894447778882 
0.529999999999958, -0.9834147285156278 
0.5399999999999568, -0.9826210447535496 
0.5499999999999557, -0.9814532147918932 
0.5599999999999546, -0.979838203519404 
0.5699999999999535, -0.9777688513390499 
0.5799999999999524, -0.9754835567620639 
0.5899999999999513, -0.9737612720876335 
0.5999999999999502, -0.9741556629837579 
0.6099999999999491, -0.9786801395768887 
0.619999999999948, -0.9885605288597228 
0.6299999999999469, -1.002807572483788 
0.6399999999999458, -1.0183482696821096 
0.6499999999999447, -1.0319871053573628 
0.6599999999999436, -1.0421281842299364 
0.6699999999999425, -1.048827196750238 
0.6799999999999414, -1.0529074659601556 
0.6899999999999403, -1.0552423303221299 
0.6999999999999392, -1.0564812955893337 
0.7099999999999381, -1.0570350772886534 
0.719999999999937, -1.0571371522114978 
0.7299999999999359, -1.0569031742024921 
0.7399999999999348, -1.0563713380461668 
0.7499999999999337, -1.0555304997255783 
0.7599999999999326, -1.054354725340517 
0.7699999999999315, -1.0528783465337934 
0.7799999999999304, -1.051361112213527 
0.7899999999999293, -1.050560873380453 
0.7999999999999282, -1.051949567552375 
0.8099999999999271, -1.0574073324943885 
0.819999999999926, -1.0680494894676913 
0.8299999999999249, -1.082919395837026 
0.8399999999999238, -1.0991030601433893 
0.8499999999999227, -1.1134776164060554 
0.8599999999999216, -1.1243394071566015 
0.8699999999999205, -1.1316023110730644 
0.8799999999999194, -1.1360417697663432 
0.8899999999999183, -1.1385661383673331 
0.8999999999999172, -1.1398845076476987 
0.9099999999999161, -1.1404584339007402 
0.919999999999915, -1.140558592780795 
0.9299999999999139, -1.1403331510570485 
0.9399999999999128, -1.1398644035957652 
0.9499999999999117, -1.1392220880902337 
0.9599999999999106, -1.1385317698045265 
0.9699999999999095, -1.1380646997004376 
0.9799999999999084, -1.1383016094592935 
0.9899999999999073, -1.139847879402509 
0.9999999999999062, -1.1431312391988944 
1.0099999999999052, -1.1480808511862868 
1.019999999999904, -1.1541098843254782 
1.029999999999903, -1.1604079268062721 
1.039999999999902, -1.166256985112595 
1.0499999999999008, -1.171187643146463 
1.0599999999998997, -1.1749959607127587 
1.0699999999998986, -1.1776933600077502 
1.0799999999998975, -1.1794295455869368 
1.0899999999998964, -1.1804111804540234 
1.0999999999998953, -1.1808386650070561 
1.1099999999998942, -1.1808743140124824 
1.119999999999893, -1.1806398473390236 
1.129999999999892, -1.180233372628991 
1.1399999999998909, -1.179755976466831 
1.1499999999998898, -1.1793354944770669 
1.1599999999998887, -1.1791266892378398 
1.1699999999998876, -1.1792704757173473 
1.1799999999998865, -1.1798309317393563 
1.1899999999998854, -1.1807644567737876 
1.1999999999998843, -1.1819481068728381 
1.2099999999998832, -1.1832350359410968 
1.219999999999882, -1.184495300933339 
1.229999999999881, -1.185631200613844 
1.2399999999998799, -1.186576460723567 
1.2499999999998788, -1.18728962413563 
1.2599999999998777, -1.1877477562751484 
1.2699999999998766, -1.1879429421489658 
1.2799999999998755, -1.187881237166303 
1.2899999999998744, -1.187582276917221 
1.2999999999998733, -1.1870785192699442 
1.3099999999998722, -1.1864150113648204 
1.319999999999871, -1.1856506606134896 
1.32999999999987, -1.1848589009315669 
1.3399999999998689, -1.184122600993494 
1.3499999999998678, -1.183520466352474 
1.3599999999998666, -1.1831092577069344 
1.3699999999998655, -1.1829090419445392 
1.3799999999998644, -1.1828959919371937 
1.3899999999998633, -1.183006725572946 
1.3999999999998622, -1.183155461280363 
1.4099999999998611, -1.1832550731805265 
1.41999999999986, -1.1832295607000303 
1.429999999999859, -1.18301537514435 
1.4399999999998578, -1.1825586111902608 
1.4499999999998567, -1.181814989798925 
1.4599999999998556, -1.180753930935349 
1.4699999999998545, -1.179363601519427 
1.4799999999998534, -1.1776540617546352 
1.4899999999998523, -1.1756593082503353 
1.4999999999998512, -1.1734415801504832 
1.5099999999998501, -1.1710996439241879 
1.519999999999849, -1.168777206684345 
1.529999999999848, -1.1666593665754996 
1.5399999999998468, -1.164938824096404 
1.5499999999998457, -1.16374633127514 
1.5599999999998446, -1.1630828236806612 
1.5699999999998435, -1.162816808410032 
1.5799999999998424, -1.162755791581267 
1.5899999999998413, -1.1627248730207198 
1.5999999999998402, -1.162595837892367 
1.6099999999998391, -1.1622703780321397 
1.619999999999838, -1.161646230850986 
1.629999999999837, -1.1605848869020425 
1.6399999999998358, -1.158889492250275 
1.6499999999998347, -1.1563038654934152 
1.6599999999998336, -1.152549827276529 
1.6699999999998325, -1.1474145700999763 
1.6799999999998314, -1.1408746523648357 
1.6899999999998303, -1.133214156758249 
1.6999999999998292, -1.1250810130970879 
1.709999999999828, -1.1174157317189377 
1.719999999999827, -1.1111900451961916 
1.729999999999826, -1.1070055893898867 
1.7399999999998248, -1.1048212946548246 
1.7499999999998237, -1.1040739451071966 
1.7599999999998226, -1.1040726022087282 
1.7699999999998215, -1.104302343858984 
1.7799999999998204, -1.1044839342509236 
1.7899999999998193, -1.104493894277053 
1.7999999999998182, -1.104269911745747 
1.809999999999817, -1.1037434942771638 
1.819999999999816, -1.1027911550011493 
1.8299999999998149, -1.1011857141912413 
1.8399999999998138, -1.098538078575395 
1.8499999999998127, -1.0942443312799914 
1.8599999999998116, -1.0875051878981095 
1.8699999999998105, -1.0775532386989979 
1.8799999999998094, -1.06419727554381 
1.8899999999998083, -1.0484832390935253 
1.8999999999998072, -1.0328011824728063 
1.909999999999806, -1.0199064340267736 
1.919999999999805, -1.0114358485488926 
1.9299999999998039, -1.007241495790009 
1.9399999999998028, -1.0059927610610324 
1.9499999999998017, -1.006217898273258 
1.9599999999998006, -1.0069056898435853 
1.9699999999997995, -1.0075538242835806 
1.9799999999997984, -1.0079814256052284 
1.9899999999997973, -1.0081497120159537 
1.9999999999997962, -1.0080555537001303 
2.0099999999998173, -1.0076780968421446 
2.0199999999998384, -1.006947168505253 
2.0299999999998595, -1.005711626273642 
2.0399999999998806, -1.0036957866429508 
2.0499999999999017, -1.0004449917497662 
2.059999999999923, -0.9952910563629829 
2.069999999999944, -0.9874263403401814 
2.079999999999965, -0.9762230449731778 
2.089999999999986, -0.9618200904412371 
2.100000000000007, -0.9456085774133778 
2.1100000000000283, -0.9299776873858534 
2.1200000000000494, -0.9172320308493846 
2.1300000000000705, -0.9085235588908649 
2.1400000000000916, -0.9036286822676214 
2.1500000000001127, -0.9015012206747347 
2.160000000000134, -0.9009739105631519 
2.170000000000155, -0.9011652832318349 
2.180000000000176, -0.9015554960934681 
2.190000000000197, -0.9018936517014149 
2.2000000000002182, -0.9020788393759844 
2.2100000000002393, -0.9020730712535665 
2.2200000000002604, -0.9018496112005836 
2.2300000000002815, -0.9013629810685112 
2.2400000000003026, -0.9005280828001917 
2.2500000000003237, -0.899202679008037 
2.260000000000345, -0.8971771384539016 
2.270000000000366, -0.8941881787149658 
2.280000000000387, -0.8899820516857136 
2.290000000000408, -0.884434706497338 
2.3000000000004293, -0.8776782046849568 
2.3100000000004504, -0.8701359389715719 
2.3200000000004715, -0.8624197115274003 
2.3300000000004926, -0.8551543330359257 
2.3400000000005137, -0.8488328901986852 
2.3500000000005348, -0.8437469274544694 
2.360000000000556, -0.8399782069386198 
2.370000000000577, -0.8374293342935323 
2.380000000000598, -0.8358802688892351 
2.390000000000619, -0.8350578173488543 
2.4000000000006403, -0.8346987612112781 
2.4100000000006614, -0.8345892945512089 
2.4200000000006825, -0.8345761813486849 
2.4300000000007036, -0.8345575840303789 
2.4400000000007247, -0.8344655599815557 
2.450000000000746, -0.8342493067795905 
2.460000000000767, -0.8338639627291464 
2.470000000000788, -0.8332672306566227 
2.480000000000809, -0.8324245898276483 
2.49000000000083, -0.8313209395210646 
2.5000000000008513, -0.8299716930510204 
2.5100000000008724, -0.828424191606798 
2.5200000000008935, -0.8267462477969041 
2.5300000000009146, -0.8250088750189507 
2.5400000000009357, -0.8232738633909215 
2.550000000000957, -0.8215909257182819 
2.560000000000978, -0.8200015869500146 
2.570000000000999, -0.81854431749643 
2.58000000000102, -0.817256989184745 
2.5900000000010412, -0.816175362342034 
2.6000000000010624, -0.8153283245358149 
2.6100000000010835, -0.8147318634014773 
2.6200000000011046, -0.8143843306891168 
2.6300000000011257, -0.8142652115723144 
2.6400000000011468, -0.8143382439014714 
2.650000000001168, -0.8145578627211314 
2.660000000001189, -0.8148766469796742 
2.67000000000121, -0.8152514980398443 
2.680000000001231, -0.8156473875396495 
2.6900000000012523, -0.8160385791168215 
2.7000000000012734, -0.8164075061278693 
2.7100000000012945, -0.816741381606129 
2.7200000000013156, -0.8170272280088016 
2.7300000000013367, -0.8172475842146356 
2.740000000001358, -0.8173800585464299 
2.750000000001379, -0.8174021299417472 
2.7600000000014, -0.8172987442684647 
2.770000000001421, -0.8170680209666552 
2.780000000001442, -0.8167224399097035 
2.7900000000014633, -0.8162870283242059 
2.8000000000014844, -0.8157980820105145 
2.8100000000015055, -0.8153046950749809 
2.8200000000015266, -0.8148726767450164 
2.8300000000015477, -0.8145880422743433 
2.840000000001569, -0.8145560447516773 
2.85000000000159, -0.814892552877019 
2.860000000001611, -0.8157079867671193 
2.870000000001632, -0.817088431578758 
2.8800000000016532, -0.8190803775704205 
2.8900000000016743, -0.8216825934784696 
2.9000000000016954, -0.8248430987953089 
2.9100000000017165, -0.8284560013123252 
2.9200000000017377, -0.8323558507416295 
2.9300000000017588, -0.8363162128593281 
2.94000000000178, -0.840068482465752 
2.950000000001801, -0.8433529516200096 
2.960000000001822, -0.8459877104905635 
2.970000000001843, -0.8479134932284028 
2.9800000000018643, -0.849183958506339 
2.9900000000018854, -0.8499152139973987 
3.0000000000019065, -0.8502328965830392 
3.0100000000019276, -0.8502409270878342 
3.0200000000019487, -0.8500127977562565 
3.03000000000197, -0.8495969730393984 
3.040000000001991, -0.849030773728706 
3.050000000002012, -0.8483633798602579 
3.060000000002033, -0.8476936861185914 
3.070000000002054, -0.8472296484810397 
3.0800000000020753, -0.847366612810567 
3.0900000000020964, -0.8487549236773143 
3.1000000000021175, -0.8522836171565349 
3.1100000000021386, -0.858879577945193 
3.1200000000021597, -0.8690771678134753 
3.130000000002181, -0.8825025675603 
3.140000000002202, -0.897657608591971 
3.150000000002223, -0.9123728970144331 
3.160000000002244, -0.9247711600267937 
3.1700000000022652, -0.9340004862603537 
3.1800000000022863, -0.9402232380427323 
3.1900000000023074, -0.9441163530783676 
3.2000000000023285, -0.9464074052024903 
3.2100000000023496, -0.9476614974680941 
3.2200000000023707, -0.9482520214104332 
3.230000000002392, -0.9484008382682163 
3.240000000002413, -0.9482247439098946 
3.250000000002434, -0.9477690761884707 
3.260000000002455, -0.9470292214631648 
3.2700000000024763, -0.9459689714295013 
3.2800000000024974, -0.9445524650796951 
3.2900000000025185, -0.9428186973644361 
3.3000000000025396, -0.941036329684805 
3.3100000000025607, -0.9399432861384479 
3.3200000000025818, -0.9409310389005953 
3.330000000002603, -0.9457991412628767 
3.340000000002624, -0.9557474034864402 
3.350000000002645, -0.9700883161448528 
3.360000000002666, -0.9860993443161131 
3.3700000000026873, -1.0006010691846818 
3.3800000000027084, -1.0117257127333597 
3.3900000000027295, -1.0192754263311312 
3.4000000000027506, -1.0239807364983322 
3.4100000000027717, -1.0267365705613152 
3.420000000002793, -1.0282506761488626 
3.430000000002814, -1.0289880988295361 
3.440000000002835, -1.0292224782798374 
3.450000000002856, -1.02909712260595 
3.460000000002877, -1.028668332911623 
3.4700000000028983, -1.0279320913071184 
3.4800000000029194, -1.0268462142583166 
3.4900000000029405, -1.0253712752361617 
3.5000000000029616, -1.0235722889941443 
3.5100000000029827, -1.0218338682939936 
3.520000000003004, -1.0211730912381292 
3.530000000003025, -1.0233814343575731 
3.540000000003046, -1.030435748687984 
3.550000000003067, -1.0430104425319864 
3.5600000000030882, -1.0592980548222206 
3.5700000000031094, -1.0757856504736254 
3.5800000000031305, -1.089471593352506 
3.5900000000031516, -1.0992267173841506 
3.6000000000031727, -1.1054579884479379 
3.6100000000031938, -1.109140149311029 
3.620000000003215, -1.1111754556865923 
3.630000000003236, -1.1121964905822548 
3.640000000003257, -1.1125892887760993 
3.650000000003278, -1.1125685957555382 
3.6600000000032993, -1.1122431232707513 
3.6700000000033204, -1.1116648577535808 
3.6800000000033415, -1.110878544467641 
3.6900000000033626, -1.1099974055709458 
3.7000000000033837, -1.1093253913060293 
3.710000000003405, -1.109488199331305 
3.720000000003426, -1.1114069173435333 
3.730000000003447, -1.115913400403184 
3.740000000003468, -1.1231445420493502 
3.750000000003489, -1.1322764546095896 
3.7600000000035103, -1.14190326727716 
3.7700000000035314, -1.1506921842149247 
3.7800000000035525, -1.1578172227977637 
3.7900000000035736, -1.1630345130220894 
3.8000000000035947, -1.1665231139298138 
3.810000000003616, -1.168657199863954 
3.820000000003637, -1.1698256228590915 
3.830000000003658, -1.170340764137074 
3.840000000003679, -1.1704201293924574 
3.8500000000037002, -1.1702061940064818 
3.8600000000037213, -1.1698010425723002 
3.8700000000037424, -1.1693072964294493 
3.8800000000037635, -1.1688692759408583 
3.8900000000037847, -1.1686929112208584 
3.9000000000038058, -1.169007327714941 
3.910000000003827, -1.1699634013362932 
3.920000000003848, -1.1715446680972845 
3.930000000003869, -1.1735766262266005 
3.94000000000389, -1.1758172346107418 
3.9500000000039113, -1.1780433431359465 
3.9600000000039324, -1.1800882452102657 
3.9700000000039535, -1.1818420941381669 
3.9800000000039746, -1.1832403198900194 
3.9900000000039957, -1.184254215105418 
4.000000000004016, -1.1848858981853891 
4.010000000003993, -1.185163756254 
4.02000000000397, -1.185135136108246 
4.030000000003946, -1.1848579092363154 
4.040000000003923, -1.1843957424634248 
4.0500000000039, -1.1838197564050097 
4.0600000000038765, -1.1832130436755388 
4.070000000003853, -1.182668771140528 
4.08000000000383, -1.1822744201282895 
4.090000000003807, -1.1820875814485885 
4.100000000003783, -1.1821196339290552 
4.11000000000376, -1.1823364852054457 
4.120000000003737, -1.1826714647450163 
4.130000000003713, -1.1830427131036332 
4.14000000000369, -1.183369852954178 
4.150000000003667, -1.1835849783946584 
4.1600000000036434, -1.1836360882162353 
4.17000000000362, -1.1834860244608891 
4.180000000003597, -1.1831108412442293 
4.1900000000035735, -1.1824989167678586 
4.20000000000355, -1.18165038747781 
4.210000000003527, -1.1805770454923965 
4.220000000003504, -1.1793038101477156 
4.23000000000348, -1.1778725165775525 
4.240000000003457, -1.1763471491687558 
4.250000000003434, -1.17481761253768 
4.26000000000341, -1.173397104340938 
4.270000000003387, -1.1722063140528776 
4.280000000003364, -1.1713396462332775 
4.2900000000033405, -1.1708234295872104 
4.300000000003317, -1.1705970069806697 
4.310000000003294, -1.1705386022294089 
4.320000000003271, -1.1705145253499334 
4.330000000003247, -1.1704109476136169 
4.340000000003224, -1.170134074076165 
4.350000000003201, -1.169592366380436 
4.360000000003177, -1.1686785140449443 
4.370000000003154, -1.167262769491308 
4.380000000003131, -1.1652046523843516 
4.390000000003107, -1.1623843741699154 
4.400000000003084, -1.1587458170438767 
4.410000000003061, -1.1543370519610177 
4.4200000000030375, -1.1493402367575407 
4.430000000003014, -1.1440894830617372 
4.440000000002991, -1.1390613694731964 
4.450000000002968, -1.1347941445869885 
4.460000000002944, -1.1317071460239343 
4.470000000002921, -1.1299037646553922 
4.480000000002898, -1.1291359134359902 
4.490000000002874, -1.128980700128548 
4.500000000002851, -1.1290578196871892 
4.510000000002828, -1.1291237299497627 
4.520000000002804, -1.1290474093698017 
4.530000000002781, -1.1287466176761571 
4.540000000002758, -1.128129908760357 
4.5500000000027345, -1.127048467560019 
4.560000000002711, -1.1252491110584824 
4.570000000002688, -1.1223291343629764 
4.580000000002665, -1.1177215510883887 
4.590000000002641, -1.11078138773132 
4.600000000002618, -1.1010596664535695 
4.610000000002595, -1.0887512890529218 
4.620000000002571, -1.0750568259941824 
4.630000000002548, -1.0620253696113706 
4.640000000002525, -1.0517120246321585 
4.6500000000025015, -1.0451573903755291 
4.660000000002478, -1.042031952169603 
4.670000000002455, -1.0411755479623932 
4.6800000000024315, -1.041402331232344 
4.690000000002408, -1.041930379384361 
4.700000000002385, -1.0423834305603443 
4.710000000002362, -1.042627452155021 
4.720000000002338, -1.042626522831431 
4.730000000002315, -1.0423582493158323 
4.740000000002292, -1.041767257577511 
4.750000000002268, -1.0407296131698514 
4.760000000002245, -1.0390099005719018 
4.770000000002222, -1.0362045096842503 
4.7800000000021985, -1.0316886993163303 
4.790000000002175, -1.0246383172358016 
4.800000000002152, -1.014268137535268 
4.810000000002129, -1.0003959716785769 
4.820000000002105, -0.9841018584668696 
4.830000000002082, -0.9677799523097657 
4.840000000002059, -0.9541267299627071 
4.850000000002035, -0.9447532686017246 
4.860000000002012, -0.9396249270067886 
4.870000000001989, -0.9375961503822798 
4.880000000001965, -0.9373040216130578 
4.890000000001942, -0.9377256708708354 
4.900000000001919, -0.9382845553757232 
4.9100000000018955, -0.9387261614872635 
4.920000000001872, -0.9389649158225113 
4.930000000001849, -0.9389788189944722 
4.940000000001826, -0.9387512346040768 
