t, s[1].omega / s[0].omega 
0, -1.1800085291622102 
0.009999999999999995, -1.1806996081650023 
0.019999999999999934, -1.1810734061483132 
0.029999999999999874, -1.1811492190516713 
0.04000000000000012, -1.1809625305235911 
0.050000000000000405, -1.1805605282946017 
0.06000000000000069, -1.1799999599831765 
0.07000000000000098, -1.1793488214818801 
0.08000000000000126, -1.178688013459846 
0.09000000000000155, -1.178105297052814 
0.10000000000000184, -1.177678189582223 
0.11000000000000212, -1.177453561567679 
0.12000000000000241, -1.1774359344319985 
0.130000000000002, -1.1775883565304288 
0.1400000000000009, -1.1778429633653809 
0.1499999999999998, -1.1781177185572993 
0.1599999999999987, -1.1783332773032125 
0.1699999999999976, -1.1784229353007252 
0.1799999999999965, -1.1783345989301819 
0.1899999999999954, -1.1780294523903847 
0.1999999999999943, -1.1774814216643925 
0.2099999999999932, -1.1766778084304303 
0.2199999999999921, -1.1756197233241927 
0.229999999999991, -1.1743222382928227 
0.2399999999999899, -1.1728158866699443 
0.2499999999999888, -1.171150863611399 
0.2599999999999877, -1.1694031208926252 
0.2699999999999866, -1.1676786722115124 
0.2799999999999855, -1.1661091654913434 
0.2899999999999844, -1.164829265957168 
0.2999999999999833, -1.1639323781047792 
0.3099999999999822, -1.1634245979313191 
0.3199999999999811, -1.163216344361646 
0.32999999999998, -1.1631646194811895 
0.3399999999999789, -1.163128202850559 
0.3499999999999778, -1.1629936556384108 
0.35999999999997667, -1.1626675031360074 
0.36999999999997557, -1.1620536127595285 
0.37999999999997447, -1.1610329899297134 
0.38999999999997337, -1.1594565629080036 
0.39999999999997227, -1.1571589297167408 
0.40999999999997117, -1.153996473736461 
0.41999999999997006, -1.149901912523417 
0.42999999999996896, -1.1449376547909487 
0.43999999999996786, -1.1393339772878288 
0.44999999999996676, -1.1335047807287495 
0.45999999999996566, -1.128018929301926 
0.46999999999996456, -1.123480356934311 
0.47999999999996346, -1.1203075324400387 
0.48999999999996235, -1.1185369255059865 
0.49999999999996125, -1.1178379741217948 
0.5099999999999602, -1.1177381746738537 
0.519999999999959, -1.1178456281655318 
0.529999999999958, -1.1179230585736606 
0.5399999999999568, -1.1178477455009959 
0.5499999999999557, -1.1175426983648653 
0.5599999999999546, -1.1169187789243316 
0.5699999999999535, -1.115827482730547 
0.5799999999999524, -1.1140142150303824 
0.5899999999999513, -1.1110724162273031 
0.5999999999999502, -1.106427324033602 
0.6099999999999491, -1.0994216635380059 
0.619999999999948, -1.0895933458508729 
0.6299999999999469, -1.077132172171377 
0.6399999999999458, -1.063246624209667 
0.6499999999999447, -1.0499989309415398 
0.6599999999999436, -1.0394551563861425 
0.6699999999999425, -1.0326739233657 
0.6799999999999414, -1.0293565419933155 
0.6899999999999403, -1.0283682864943589 
0.6999999999999392, -1.0285253712358018 
0.7099999999999381, -1.029029545448012 
0.719999999999937, -1.0294852692677323 
0.7299999999999359, -1.0297453573963176 
0.7399999999999348, -1.0297681161491474 
0.7499999999999337, -1.029531272490894 
0.7599999999999326, -1.028984656645175 
0.7699999999999315, -1.028015697496857 
0.7799999999999304, -1.0264098174694642 
0.7899999999999293, -1.0237989706014277 
0.7999999999999282, -1.0196129208336076 
0.8099999999999271, -1.0130937713900114 
0.819999999999926, -1.0034952144649383 
0.8299999999999249, -0.9905644747665852 
0.8399999999999238, -0.9751314009787432 
0.8499999999999227, -0.9592338320212674 
0.8599999999999216, -0.9453515318344777 
0.8699999999999205, -0.9352058483350207 
0.8799999999999194, -0.9291069920256361 
0.8899999999999183, -0.9262319425686497 
0.8999999999999172, -0.9253617418895012 
0.9099999999999161, -0.925459895381447 
0.919999999999915, -0.9258720084384576 
0.9299999999999139, -0.9262689278839067 
0.9399999999999128, -0.9265162955135209 
0.9499999999999117, -0.9265674964438029 
0.9599999999999106, -0.9263982242022506 
0.9699999999999095, -0.9259694659776908 
0.9799999999999084, -0.9252028401342578 
0.9899999999999073, -0.9239585236767074 
0.9999999999999062, -0.9220153953153062 
1.0099999999999052, -0.9190671114099918 
1.019999999999904, -0.9147652204121662 
1.029999999999903, -0.9088414258125512 
1.039999999999902, -0.9012898933798427 
1.0499999999999008, -0.892499231229708 
1.0599999999998997, -0.8832079139224012 
1.0699999999998986, -0.8742870790780259 
1.0799999999998975, -0.8664876599208926 
1.0899999999998964, -0.8602754213890258 
1.0999999999998953, -0.8557846256973114 
1.1099999999998942, -0.8528657726157919 
1.119999999999893, -0.8511907854620686 
1.129999999999892, -0.8503740223637474 
1.1399999999998909, -0.8500679932169476 
1.1499999999998898, -0.8500108013600922 
1.1599999999998887, -0.8500291516023217 
1.1699999999998876, -0.850016574592504 
1.1799999999998865, -0.8499057286099552 
1.1899999999998854, -0.8496451824528537 
1.1999999999998843, -0.849184256163068 
1.2099999999998832, -0.8484671674981564 
1.219999999999882, -0.8474379445011643 
1.229999999999881, -0.8460562689692225 
1.2399999999998799, -0.8443184747722705 
1.2499999999998788, -0.8422705756339726 
1.2599999999998777, -0.8400018618989096 
1.2699999999998766, -0.8376218294089581 
1.2799999999998755, -0.8352358294591747 
1.2899999999998744, -0.8329321697118642 
1.2999999999998733, -0.8307814728283093 
1.3099999999998722, -0.8288413874545236 
1.319999999999871, -0.8271598763366095 
1.32999999999987, -0.8257740894810108 
1.3399999999998689, -0.8247054852800428 
1.3499999999998678, -0.8239541666127156 
1.3599999999998666, -0.8234960863567403 
1.3699999999998655, -0.8232855948943103 
1.3799999999998644, -0.8232631003485713 
1.3899999999998633, -0.8233649659847234 
1.3999999999998622, -0.8235320464085714 
1.4099999999998611, -0.8237148085076044 
1.41999999999986, -0.8238752713682811 
1.429999999999859, -0.8239872084439643 
1.4399999999998578, -0.8240355669773779 
1.4499999999998567, -0.8240147359977795 
1.4599999999998556, -0.8239248263733515 
1.4699999999998545, -0.8237665334872712 
1.4799999999998534, -0.8235372189180034 
1.4899999999998523, -0.823230953484309 
1.4999999999998512, -0.8228426377529962 
1.5099999999998501, -0.8223734390643822 
1.519999999999849, -0.8218345802832918 
1.529999999999848, -0.8212488029771295 
1.5399999999998468, -0.8206507965096673 
1.5499999999998457, -0.8200876829821523 
1.5599999999998446, -0.819618972825045 
1.5699999999998435, -0.8193140492895138 
1.5799999999998424, -0.8192455249785455 
1.5899999999998413, -0.8194789332351468 
1.5999999999998402, -0.8200618770599917 
1.6099999999998391, -0.8210167602814342 
1.619999999999838, -0.8223394227480598 
1.629999999999837, -0.824002602670365 
1.6399999999998358, -0.8259605343483362 
1.6499999999998347, -0.8281506526592276 
1.6599999999998336, -0.8304905315107737 
1.6699999999998325, -0.8328725382624318 
1.6799999999998314, -0.8351639270540568 
1.6899999999998303, -0.8372217640096913 
1.6999999999998292, -0.8389238756965132 
1.709999999999828, -0.8402010606288096 
1.719999999999827, -0.8410491990361034 
1.729999999999826, -0.8415145449838697 
1.7399999999998248, -0.8416658089566447 
1.7499999999998237, -0.8415709450295653 
1.7599999999998226, -0.8412869027956921 
1.7699999999998215, -0.8408618117606114 
1.7799999999998204, -0.8403472326094541 
1.7899999999998193, -0.8398201296826157 
1.7999999999998182, -0.8394153226984779 
1.809999999999817, -0.839365524987804 
1.819999999999816, -0.8400353555320356 
1.8299999999998149, -0.8419208059338195 
1.8399999999998138, -0.8455789375203299 
1.8499999999998127, -0.8514703172382214 
1.8599999999998116, -0.8597414780367234 
1.8699999999998105, -0.8700290219113027 
1.8799999999998094, -0.8814069355910009 
1.8899999999998083, -0.892586181111725 
1.8999999999998072, -0.9023465250653944 
1.909999999999806, -0.9099650903087986 
1.919999999999805, -0.9153523466935812 
1.9299999999998039, -0.9188597941606071 
1.9399999999998028, -0.9209837006796455 
1.9499999999998017, -0.9221656691989187 
1.9599999999998006, -0.9227239672725196 
1.9699999999997995, -0.9228597315432996 
1.9799999999997984, -0.9226855697418372 
1.9899999999997973, -0.9222526602161274 
1.9999999999997962, -0.9215723657730512 
2.0099999999998173, -0.9206389275210884 
2.0199999999998384, -0.9194679677817005 
2.0299999999998595, -0.9181742164040415 
2.0399999999998806, -0.9171122101439284 
2.0499999999999017, -0.9170650127405109 
2.059999999999923, -0.919347399517924 
2.069999999999944, -0.9255334542369408 
2.079999999999965, -0.9365905344269837 
2.089999999999986, -0.9518134523177364 
2.100000000000007, -0.9686603490537774 
2.1100000000000283, -0.984058426487336 
2.1200000000000494, -0.9960543741176175 
2.1300000000000705, -1.0043187851757085 
2.1400000000000916, -1.0095330796531017 
2.1500000000001127, -1.0126199294107616 
2.160000000000134, -1.0143403547903944 
2.170000000000155, -1.0152070944137328 
2.180000000000176, -1.0155282877005976 
2.190000000000197, -1.0154712382638267 
2.2000000000002182, -1.0151105616276905 
2.2100000000002393, -1.014458873664617 
2.2200000000002604, -1.013490585439898 
2.2300000000002815, -1.0121788419223257 
2.2400000000003026, -1.0105805577954325 
2.2500000000003237, -1.0090153289398873 
2.260000000000345, -1.0083387010879226 
2.270000000000366, -1.0101192524732516 
2.280000000000387, -1.0162569475025822 
2.290000000000408, -1.0277558274234289 
2.3000000000004293, -1.0434407956953726 
2.3100000000004504, -1.0601823127706982 
2.3200000000004715, -1.0747826428515195 
2.3300000000004926, -1.085630500658735 
2.3400000000005137, -1.0927867528793616 
2.3500000000005348, -1.0971239047158914 
2.360000000000556, -1.0995824855772376 
2.370000000000577, -1.1008688350801763 
2.380000000000598, -1.1014319677834976 
2.390000000000619, -1.1015299187797634 
2.4000000000006403, -1.1012981272527032 
2.4100000000006614, -1.1008011809745273 
2.4200000000006825, -1.1000780702011859 
2.4300000000007036, -1.0992036483387626 
2.4400000000007247, -1.0983919109353109 
2.450000000000746, -1.0981357504221259 
2.460000000000767, -1.0992741736283516 
2.470000000000788, -1.102768958967778 
2.480000000000809, -1.109134793508526 
2.49000000000083, -1.1179425342312215 
2.5000000000008513, -1.1279192234839122 
2.5100000000008724, -1.1375656685601951 
2.5200000000008935, -1.1457569015375086 
2.5300000000009146, -1.151989283577218 
2.5400000000009357, -1.1562994513225964 
2.550000000000957, -1.1590301235188056 
2.560000000000978, -1.1606038297902637 
2.570000000000999, -1.1613867820787676 
2.58000000000102, -1.1616441584696628 
2.5900000000010412, -1.1615499507534461 
2.6000000000010624, -1.1612188347662276 
2.6100000000010835, -1.1607459074656306 
2.6200000000011046, -1.160250788564059 
2.6300000000011257, -1.1599153990956856 
2.6400000000011468, -1.159982381475752 
2.650000000001168, -1.160679270621755 
2.660000000001189, -1.1620987678920818 
2.67000000000121, -1.1641395899638363 
2.680000000001231, -1.1665631504046614 
2.6900000000012523, -1.1691015305720718 
2.7000000000012734, -1.1715315231301655 
2.7100000000012945, -1.1736957048585253 
2.7200000000013156, -1.1754952862428762 
2.7300000000013367, -1.1768785736859133 
2.740000000001358, -1.1778336459155008 
2.750000000001379, -1.1783828230236502 
2.7600000000014, -1.1785741828732115 
2.770000000001421, -1.1784701097765364 
2.780000000001442, -1.1781380717207057 
2.7900000000014633, -1.1776486947502225 
2.8000000000014844, -1.1770808489521025 
2.8100000000015055, -1.1765263603272968 
2.8200000000015266, -1.1760831848114273 
2.8300000000015477, -1.1758328976088932 
2.840000000001569, -1.1758150204039133 
2.85000000000159, -1.1760169815869335 
2.860000000001611, -1.1763836413455002 
2.870000000001632, -1.1768360237116742 
2.8800000000016532, -1.1772900031340865 
2.8900000000016743, -1.1776703882107578 
2.9000000000016954, -1.1779179350020492 
2.9100000000017165, -1.1779901036998122 
2.9200000000017377, -1.177859015477648 
2.9300000000017588, -1.177509293272131 
2.94000000000178, -1.1769365076388083 
2.950000000001801, -1.1761463959053997 
2.960000000001822, -1.1751554508310698 
2.970000000001843, -1.1739934134177563 
2.9800000000018643, -1.1727073008266329 
2.9900000000018854, -1.171365182468519 
3.0000000000019065, -1.1700564646305325 
3.0100000000019276, -1.168884604117075 
3.0200000000019487, -1.1679482184641443 
3.03000000000197, -1.16731025086033 
3.040000000001991, -1.16696780551484 
3.050000000002012, -1.1668472694801788 
3.060000000002033, -1.1668336692237626 
3.070000000002054, -1.166809964556729 
3.0800000000020753, -1.1666768431527605 
3.0900000000020964, -1.1663484993576119 
3.1000000000021175, -1.1657383603578955 
3.1100000000021386, -1.1647491891697832 
3.1200000000021597, -1.1632760098173254 
3.130000000002181, -1.1612239009380079 
3.140000000002202, -1.1585351665115031 
3.150000000002223, -1.1552153357407018 
3.160000000002244, -1.1513514217620926 
3.1700000000022652, -1.147125003527988 
3.1800000000022863, -1.1428217940213403 
3.1900000000023074, -1.1388202498185689 
3.2000000000023285, -1.135521364188526 
3.2100000000023496, -1.1332062224022645 
3.2200000000023707, -1.131899471708386 
3.230000000002392, -1.1313688547405736 
3.240000000002413, -1.1312729138769693 
3.250000000002434, -1.1313176529592601 
3.260000000002455, -1.1313139372111265 
3.2700000000024763, -1.1311507728170298 
3.2800000000024974, -1.1307424552432486 
3.2900000000025185, -1.1299795832983266 
3.3000000000025396, -1.1286863365192032 
3.3100000000025607, -1.126581840252836 
3.3200000000025818, -1.1232576734907993 
3.330000000002603, -1.1182100628088918 
3.340000000002624, -1.11098383687432 
3.350000000002645, -1.1014493930224047 
3.360000000002666, -1.0901142484389577 
3.3700000000026873, -1.078237931970934 
3.3800000000027084, -1.067527355555168 
3.3900000000027295, -1.0594412574318492 
3.4000000000027506, -1.0545236514109435 
3.4100000000027717, -1.0522967924688333 
3.420000000002793, -1.0517594356013658 
3.430000000002814, -1.0519831381137505 
3.440000000002835, -1.0523837314269708 
3.450000000002856, -1.0526860979387611 
3.460000000002877, -1.0527886134334243 
3.4700000000028983, -1.052652124785075 
3.4800000000029194, -1.0522333625962332 
3.4900000000029405, -1.0514427181923607 
3.5000000000029616, -1.050104712872915 
3.5100000000029827, -1.0479086079457243 
3.520000000003004, -1.0443535456368411 
3.530000000003025, -1.0387298909761262 
3.540000000003046, -1.0302407740076254 
3.550000000003067, -1.018393559002593 
3.5600000000030882, -1.0036142807113202 
3.5700000000031094, -0.9876212410847132 
3.5800000000031305, -0.9729520413250556 
3.5900000000031516, -0.9617465895333869 
3.6000000000031727, -0.954761539839612 
3.6100000000031938, -0.951372937962387 
3.620000000003215, -0.9503146353579701 
3.630000000003236, -0.9504096456617909 
3.640000000003257, -0.9508871820682625 
3.650000000003278, -0.9513568058701696 
3.6600000000032993, -0.9516630720403141 
3.6700000000033204, -0.9517577256918036 
3.6800000000033415, -0.9516213951741788 
3.6900000000033626, -0.951220706497687 
3.7000000000033837, -0.9504806706974099 
3.710000000003405, -0.9492587325963575 
3.720000000003426, -0.9473161477461092 
3.730000000003447, -0.9442967305406276 
3.740000000003468, -0.9397467440161605 
3.750000000003489, -0.9332306642361312 
3.7600000000035103, -0.9245672833664675 
3.7700000000035314, -0.914087438728911 
3.7800000000035525, -0.9026982736741541 
3.7900000000035736, -0.8916333733174149 
3.8000000000035947, -0.8820290109390905 
3.810000000003616, -0.8745852216564183 
3.820000000003637, -0.8694555615954768 
3.830000000003658, -0.8663484305015029 
3.840000000003679, -0.8647387387207377 
3.8500000000037002, -0.8640765945082954 
3.8600000000037213, -0.8639177442826453 
3.8700000000037424, -0.8639621824348869 
3.8800000000037635, -0.8640322038110346 
3.8900000000037847, -0.8640292496895101 
3.9000000000038058, -0.8638938889859498 
3.910000000003827, -0.8635768426801611 
3.920000000003848, -0.8630207935785867 
3.930000000003869, -0.8621521021150722 
3.94000000000389, -0.8608845267671523 
3.9500000000039113, -0.859138688546308 
3.9600000000039324, -0.8568754636713622 
3.9700000000039535, -0.8541279587440403 
3.9800000000039746, -0.8510088124056026 
3.9900000000039957, -0.8476840708417874 
4.000000000004016, -0.8443313315250585 
4.010000000003993, -0.8411078657659502 
4.02000000000397, -0.8381387330348327 
4.030000000003946, -0.8355178738781965 
4.040000000003923, -0.8333111150010148 
4.0500000000039, -0.8315552153232961 
4.0600000000038765, -0.8302537304157365 
4.070000000003853, -0.8293744779722261 
4.08000000000383, -0.8288533653359739 
4.090000000003807, -0.8286056266624369 
4.100000000003783, -0.8285407661945505 
4.11000000000376, -0.8285754331936825 
4.120000000003737, -0.8286404399861169 
4.130000000003713, -0.8286820143519342 
4.14000000000369, -0.8286601030060302 
4.150000000003667, -0.8285468381010078 
4.1600000000036434, -0.8283265932396112 
4.17000000000362, -0.8279965686817752 
4.180000000003597, -0.8275653326416735 
4.1900000000035735, -0.8270479381915745 
4.20000000000355, -0.8264595353339927 
4.210000000003527, -0.8258113889859555 
4.220000000003504, -0.8251115708120691 
4.23000000000348, -0.8243691530706878 
4.240000000003457, -0.8235989639603373 
4.250000000003434, -0.8228248326960586 
4.26000000000341, -0.8220808858578031 
4.270000000003387, -0.8214109961029296 
4.280000000003364, -0.8208660252303419 
4.2900000000033405, -0.8204983565780305 
4.300000000003317, -0.8203541900971215 
4.310000000003294, -0.820465643348717 
4.320000000003271, -0.8208454751741364 
4.330000000003247, -0.8214863448452923 
4.340000000003224, -0.8223644490992126 
4.350000000003201, -0.8234454742757931 
4.360000000003177, -0.8246899948629777 
4.370000000003154, -0.8260558322938056 
4.380000000003131, -0.8274962044286432 
4.390000000003107, -0.8289547149589869 
4.400000000003084, -0.8303612040083186 
4.410000000003061, -0.8316345491374963 
4.4200000000030375, -0.8326961225750933 
4.430000000003014, -0.833489411755749 
4.440000000002991, -0.8339938956708697 
4.450000000002968, -0.8342243020876697 
4.460000000002944, -0.8342179601172219 
4.470000000002921, -0.8340205070036001 
4.480000000002898, -0.8336782058391972 
4.490000000002874, -0.8332395485663573 
4.500000000002851, -0.8327655658014657 
4.510000000002828, -0.8323472898632451 
4.520000000002804, -0.8321271606975864 
4.530000000002781, -0.8323168636480777 
4.540000000002758, -0.8331986267671085 
4.5500000000027345, -0.8350960832743706 
4.560000000002711, -0.8383100877901507 
4.570000000002688, -0.8430313859361476 
4.580000000002665, -0.8492536771928657 
4.590000000002641, -0.856711520147269 
4.600000000002618, -0.8648685224156136 
4.610000000002595, -0.8729894184887173 
4.620000000002571, -0.8803164441230409 
4.630000000002548, -0.8862975478684865 
4.640000000002525, -0.8907328928169747 
4.6500000000025015, -0.8937457105580824 
4.660000000002478, -0.8956296078462269 
4.670000000002455, -0.8966975288390658 
4.6800000000024315, -0.8972008942734095 
4.690000000002408, -0.8973110549197914 
4.700000000002385, -0.8971305472214255 
4.710000000002362, -0.8967118941403157 
4.720000000002338, -0.8960769852181084 
4.730000000002315, -0.8952408264703331 
4.740000000002292, -0.8942513587491001 
4.750000000002268, -0.8932629754373572 
4.760000000002245, -0.8926572826112938 
4.770000000002222, -0.8931883610910119 
4.7800000000021985, -0.8960392394511913 
4.790000000002175, -0.9025731579495938 
4.800000000002152, -0.9136285871928154 
4.810000000002129, -0.928639973512442 
4.820000000002105, -0.9454060961752686 
4.830000000002082, -0.9610684831850076 
4.840000000002059, -0.973591708899113 
4.850000000002035, -0.982430943388858 
4.860000000002012, -0.9881208052990844 
4.870000000001989, -0.9915468053693219 
4.880000000001965, -0.9934923721498539 
4.890000000001942, -0.9945065825894177 
4.900000000001919, -0.9949288150501404 
4.9100000000018955, -0.9949493537816279 
4.920000000001872, -0.9946595597848502 
4.930000000001849, -0.9940845073136968 
