t, s[1].omega / s[0].omega 
0, -1.3600767213316058 
0.009999999999999995, -1.3665394704262412 
0.019999999999999934, -1.3708144233899016 
0.029999999999999874, -1.3733944892907872 
0.04000000000000012, -1.374789725232479 
0.050000000000000405, -1.3754005465716481 
0.06000000000000069, -1.3755015017451508 
0.07000000000000098, -1.3752723146004324 
0.08000000000000126, -1.3748438718661122 
0.09000000000000155, -1.374343090787985 
0.10000000000000184, -1.3739160428558774 
0.11000000000000212, -1.3737026736013083 
0.12000000000000241, -1.373774304436401 
0.130000000000002, -1.3741016238652302 
0.1400000000000009, -1.3745869100343817 
0.1499999999999998, -1.375114073518684 
0.1599999999999987, -1.3755769218195701 
0.1699999999999976, -1.3758893277154365 
0.1799999999999965, -1.3759860636432408 
0.1899999999999954, -1.3758176514349219 
0.1999999999999943, -1.375344371073115 
0.2099999999999932, -1.3745335173036 
0.2199999999999921, -1.3733603402761947 
0.229999999999991, -1.3718123154221233 
0.2399999999999899, -1.3698987204850523 
0.2499999999999888, -1.3676699638234477 
0.2599999999999877, -1.3652499249078989 
0.2699999999999866, -1.3628704176425777 
0.2799999999999855, -1.3608575561201302 
0.2899999999999844, -1.35949927758405 
0.2999999999999833, -1.35884836189697 
0.3099999999999822, -1.3586854073262329 
0.3199999999999811, -1.3586986989261405 
0.32999999999998, -1.3586508837666107 
0.3399999999999789, -1.3583955493866737 
0.3499999999999778, -1.3578074321746008 
0.35999999999997667, -1.3566961784173923 
0.36999999999997557, -1.3547089799539263 
0.37999999999997447, -1.3512073198672665 
0.38999999999997337, -1.3451554797494807 
0.39999999999997227, -1.335245563633423 
0.40999999999997117, -1.3208033982189618 
0.41999999999997006, -1.303753297045976 
0.42999999999996896, -1.2895262281988953 
0.43999999999996786, -1.2832092230599643 
0.44999999999996676, -1.284407535197505 
0.45999999999996566, -1.2887803044457748 
0.46999999999996456, -1.2929136203343021 
0.47999999999996346, -1.295716287680046 
0.48999999999996235, -1.2973087990694754 
0.49999999999996125, -1.2980618534561197 
0.5099999999999602, -1.298260935550736 
0.519999999999959, -1.2980641210857997 
0.529999999999958, -1.297534068003106 
0.5399999999999568, -1.296687181846353 
0.5499999999999557, -1.295583796250058 
0.5599999999999546, -1.2945170243745454 
0.5699999999999535, -1.294275271251363 
0.5799999999999524, -1.296120049219288 
0.5899999999999513, -1.300980987817777 
0.5999999999999502, -1.3084343399388634 
0.6099999999999491, -1.316877955778188 
0.619999999999948, -1.3246894692809055 
0.6299999999999469, -1.3309650746814912 
0.6399999999999458, -1.3355006150000537 
0.6499999999999447, -1.338492560376546 
0.6599999999999436, -1.3402824272721814 
0.6699999999999425, -1.3412080546739809 
0.6799999999999414, -1.3415398207062355 
0.6899999999999403, -1.3414714189271322 
0.6999999999999392, -1.3411405477899947 
0.7099999999999381, -1.3406624831038914 
0.719999999999937, -1.3401610510590485 
0.7299999999999359, -1.339774090599184 
0.7399999999999348, -1.3396167572386921 
0.7499999999999337, -1.3397300612566219 
0.7599999999999326, -1.3400698540718714 
0.7699999999999315, -1.3405413323137825 
0.7799999999999304, -1.3410371966071846 
0.7899999999999293, -1.3414591362439168 
0.7999999999999282, -1.3417272558645528 
0.8099999999999271, -1.341781035900163 
0.819999999999926, -1.3415748491916735 
0.8299999999999249, -1.341073376430682 
0.8399999999999238, -1.3402500122323668 
0.8499999999999227, -1.3390880951634851 
0.8599999999999216, -1.3375847174457136 
0.8699999999999205, -1.3357589460718957 
0.8799999999999194, -1.3336675865999015 
0.8899999999999183, -1.331429559070387 
0.8999999999999172, -1.3292488653534513 
0.9099999999999161, -1.327399126884401 
0.919999999999915, -1.3261205148802797 
0.9299999999999139, -1.3254671414815309 
0.9399999999999128, -1.3252669196638625 
0.9499999999999117, -1.3252524165103972 
0.9599999999999106, -1.3252025381466086 
0.9699999999999095, -1.3249715173010537 
0.9799999999999084, -1.3244376521894716 
0.9899999999999073, -1.3234307181431346 
0.9999999999999062, -1.3216513191702588 
1.0099999999999052, -1.3185750609839886 
1.019999999999904, -1.3133645290642093 
1.029999999999903, -1.304916982091683 
1.039999999999902, -1.2923539120434675 
1.0499999999999008, -1.276232157581572 
1.0599999999998997, -1.2597627032878977 
1.0699999999998986, -1.247723993550324 
1.0799999999998975, -1.2426233350631 
1.0899999999998964, -1.242827982537801 
1.0999999999998953, -1.2451097672251743 
1.1099999999998942, -1.2473654411264028 
1.119999999999893, -1.2489178688012221 
1.129999999999892, -1.2497752324466616 
1.1399999999998909, -1.250102370999643 
1.1499999999998898, -1.250027333918697 
1.1599999999998887, -1.2496013211865846 
1.1699999999998876, -1.2488022094317526 
1.1799999999998865, -1.2475578858237202 
1.1899999999998854, -1.245829134026239 
1.1999999999998843, -1.2438555723739688 
1.2099999999998832, -1.2426351859883282 
1.219999999999882, -1.2442472542043466 
1.229999999999881, -1.2509090843930477 
1.2399999999998799, -1.2627262472660772 
1.2499999999998788, -1.2769302595634529 
1.2599999999998777, -1.2900313273636625 
1.2699999999998766, -1.300049057317427 
1.2799999999998755, -1.3067574853508654 
1.2899999999998744, -1.3108314885779286 
1.2999999999998733, -1.3131021221510388 
1.3099999999998722, -1.3142300579948378 
1.319999999999871, -1.314652161566546 
1.32999999999987, -1.3146319604929313 
1.3399999999998689, -1.3143292536385007 
1.3499999999998678, -1.3138658397264151 
1.3599999999998666, -1.3133842615930527 
1.3699999999998655, -1.3130799103693556 
1.3799999999998644, -1.3131621183511364 
1.3899999999998633, -1.3137430710451494 
1.3999999999998622, -1.314761479192518 
1.4099999999998611, -1.3160306660958867 
1.41999999999986, -1.3173461001307571 
1.429999999999859, -1.3185509293872593 
1.4399999999998578, -1.3195461023804116 
1.4499999999998567, -1.3202771245980198 
1.4599999999998556, -1.3207187219196967 
1.4699999999998545, -1.3208638932847054 
1.4799999999998534, -1.3207178805001087 
1.4899999999998523, -1.3202957421354982 
1.4999999999998512, -1.319622336570561 
1.5099999999998501, -1.3187346310628851 
1.519999999999849, -1.31768639711892 
1.529999999999848, -1.3165532152081159 
1.5399999999998468, -1.3154335055999902 
1.5499999999998457, -1.314441286416614 
1.5599999999998446, -1.3136841500070768 
1.5699999999998435, -1.3132209939958472 
1.5799999999998424, -1.3130214611876299 
1.5899999999998413, -1.3129726319717088 
1.5999999999998402, -1.3129324219729057 
1.6099999999998391, -1.3127731892244427 
1.619999999999838, -1.3123822180630509 
1.629999999999837, -1.3116332122223384 
1.6399999999998358, -1.3103526543333042 
1.6499999999998347, -1.3082967001827275 
1.6599999999998336, -1.3051538719450664 
1.6699999999998325, -1.3005944646820717 
1.6799999999998314, -1.2943890512083698 
1.6899999999998303, -1.2866093644993946 
1.6999999999998292, -1.277879585451676 
1.709999999999828, -1.2694942592392475 
1.719999999999827, -1.26302939544825 
1.729999999999826, -1.2593917893420872 
1.7399999999998248, -1.2582127002425394 
1.7499999999998237, -1.2583724497723259 
1.7599999999998226, -1.2589052100626088 
1.7699999999998215, -1.2593259786884998 
1.7799999999998204, -1.2594791857751115 
1.7899999999998193, -1.25932906081037 
1.7999999999998182, -1.25883627238265 
1.809999999999817, -1.2578925363799414 
1.819999999999816, -1.2562687011457063 
1.8299999999998149, -1.253566464815098 
1.8399999999998138, -1.2492411501001113 
1.8499999999998127, -1.2429305260467662 
1.8599999999998116, -1.2354476939365218 
1.8699999999998105, -1.2300307245288509 
1.8799999999998094, -1.2313332437466236 
1.8899999999998083, -1.2408231273324692 
1.8999999999998072, -1.2544585850123862 
1.909999999999806, -1.2668860072789776 
1.919999999999805, -1.2756479634623483 
1.9299999999998039, -1.2809538782629986 
1.9399999999998028, -1.2838727455737866 
1.9499999999998017, -1.2853393077273467 
1.9599999999998006, -1.2859505466636203 
1.9699999999997995, -1.2860386682745972 
1.9799999999997984, -1.2857748465152206 
1.9899999999997973, -1.2852525648540467 
1.9999999999997962, -1.2845676986124153 
2.0099999999998173, -1.2839212949705128 
2.0199999999998384, -1.2837198855364849 
2.0299999999998595, -1.2845292686661347 
2.0399999999998806, -1.2867485172119726 
2.0499999999999017, -1.2902512522136225 
2.059999999999923, -1.294441558063294 
2.069999999999944, -1.298642066032897 
2.079999999999965, -1.3023761041030761 
2.089999999999986, -1.3054090337734379 
2.100000000000007, -1.3076795828343382 
2.1100000000000283, -1.3092289870918141 
2.1200000000000494, -1.3101526302739372 
2.1300000000000705, -1.3105669487264409 
2.1400000000000916, -1.3105865595456199 
2.1500000000001127, -1.3103132693183135 
2.160000000000134, -1.3098385386172509 
2.170000000000155, -1.3092552715185297 
2.180000000000176, -1.3086668543023328 
2.190000000000197, -1.3081782743444088 
2.2000000000002182, -1.3078685773358019 
2.2100000000002393, -1.3077670416882703 
2.2200000000002604, -1.3078507769931826 
2.2300000000002815, -1.3080562031239675 
2.2400000000003026, -1.3082950468451566 
2.2500000000003237, -1.3084736408774982 
2.260000000000345, -1.3085079538486637 
2.270000000000366, -1.3083267711447268 
2.280000000000387, -1.307867127277084 
2.290000000000408, -1.3070710201471019 
2.3000000000004293, -1.3058875911645498 
2.3100000000004504, -1.3042794234955022 
2.3200000000004715, -1.3022310155052732 
2.3300000000004926, -1.2997613082940445 
2.3400000000005137, -1.296945746672626 
2.3500000000005348, -1.2939500826722037 
2.360000000000556, -1.2910584615441567 
2.370000000000577, -1.2886401768249052 
2.380000000000598, -1.2869985962343247 
2.390000000000619, -1.286178707255209 
2.4000000000006403, -1.2859441111673013 
2.4100000000006614, -1.2859604467717887 
2.4200000000006825, -1.2859684405279752 
2.4300000000007036, -1.2858135338525434 
2.4400000000007247, -1.2853868046544783 
2.450000000000746, -1.2845502212611297 
2.460000000000767, -1.2830611567651984 
2.470000000000788, -1.2804830845614206 
2.480000000000809, -1.276086183295344 
2.49000000000083, -1.2688197137243573 
2.5000000000008513, -1.2576034718116103 
2.5100000000008724, -1.242291300533152 
2.5200000000008935, -1.225072665090032 
2.5300000000009146, -1.210474069171602 
2.5400000000009357, -1.20231443540596 
2.550000000000957, -1.2005643673857385 
2.560000000000978, -1.2023110642492754 
2.570000000000999, -1.2048232702855468 
2.58000000000102, -1.2068354376744 
2.5900000000010412, -1.208103175987506 
2.6000000000010624, -1.2087476085529194 
2.6100000000010835, -1.2089271561208321 
2.6200000000011046, -1.2087389127698123 
2.6300000000011257, -1.2082037764328815 
2.6400000000011468, -1.2072710506005522 
2.650000000001168, -1.2058379420683312 
2.660000000001189, -1.2038309758611334 
2.67000000000121, -1.201460024513366 
2.680000000001231, -1.1997342537185616 
2.6900000000012523, -1.2008854886265516 
2.7000000000012734, -1.207533802394016 
2.7100000000012945, -1.2202235426035268 
2.7200000000013156, -1.2360982103623503 
2.7300000000013367, -1.2510210787871578 
2.740000000001358, -1.2624498075380672 
2.750000000001379, -1.2700307580895578 
2.7600000000014, -1.274577371989791 
2.770000000001421, -1.2770924865311941 
2.780000000001442, -1.2783518527690994 
2.7900000000014633, -1.2788519331495658 
2.8000000000014844, -1.2788813212503656 
2.8100000000015055, -1.2786046786901428 
2.8200000000015266, -1.2781354434940881 
2.8300000000015477, -1.2776040819946382 
2.840000000001569, -1.2772172348705928 
2.85000000000159, -1.277259378990925 
2.860000000001611, -1.2779780288577918 
2.870000000001632, -1.2794157172578724 
2.8800000000016532, -1.2813718650690076 
2.8900000000016743, -1.2835352039711496 
2.9000000000016954, -1.2856313640831407 
2.9100000000017165, -1.2874801065811665 
2.9200000000017377, -1.288984977932971 
2.9300000000017588, -1.290105903744904 
2.94000000000178, -1.2908381363782746 
2.950000000001801, -1.2912002643656046 
2.960000000001822, -1.2912272286823456 
2.970000000001843, -1.2909650267713535 
2.9800000000018643, -1.2904673394126598 
2.9900000000018854, -1.2897961864796328 
3.0000000000019065, -1.2890258973870767 
3.0100000000019276, -1.2882440821110304 
3.0200000000019487, -1.2875424964667168 
3.03000000000197, -1.2869993369526167 
3.040000000001991, -1.2866610835663592 
3.050000000002012, -1.286527440873901 
3.060000000002033, -1.2865446438822878 
3.070000000002054, -1.2866189120221647 
3.0800000000020753, -1.2866452184757526 
3.0900000000020964, -1.2865275031806185 
3.1000000000021175, -1.2861785927335965 
3.1100000000021386, -1.285509502451814 
3.1200000000021597, -1.284422477171142 
3.130000000002181, -1.2828154010472732 
3.140000000002202, -1.2805975908495988 
3.150000000002223, -1.2777129318445912 
3.160000000002244, -1.2741688823958013 
3.1700000000022652, -1.2700767304717875 
3.1800000000022863, -1.265705258389121 
3.1900000000023074, -1.2615148885282257 
3.2000000000023285, -1.258079022863337 
3.2100000000023496, -1.255825400947041 
3.2200000000023707, -1.254763930792415 
3.230000000002392, -1.2545140418593397 
3.240000000002413, -1.2546053433180662 
3.250000000002434, -1.254707878819636 
3.260000000002455, -1.2546507948284975 
3.2700000000024763, -1.254339022515504 
3.2800000000024974, -1.2536677868073125 
3.2900000000025185, -1.2524496699870769 
3.3000000000025396, -1.2503332635996853 
3.3100000000025607, -1.2467010093447757 
3.3200000000025818, -1.2405908004171255 
3.330000000002603, -1.2308366584656267 
3.340000000002624, -1.2168236755243247 
3.350000000002645, -1.1999711297409086 
3.360000000002666, -1.1844914038993426 
3.3700000000026873, -1.1750184503780576 
3.3800000000027084, -1.1726857773350723 
3.3900000000027295, -1.1748408452553605 
3.4000000000027506, -1.1782308302088995 
3.4100000000027717, -1.1810906101212288 
3.420000000002793, -1.1829916941143253 
3.430000000002814, -1.1840676191508206 
3.440000000002835, -1.1845465470166237 
3.450000000002856, -1.1845949424766433 
3.460000000002877, -1.1842932478739931 
3.4700000000028983, -1.1836443679823723 
3.4800000000029194, -1.1825876592041136 
3.4900000000029405, -1.1810347488213528 
3.5000000000029616, -1.1789901634840612 
3.5100000000029827, -1.1768639116711967 
3.520000000003004, -1.1759735550342876 
3.530000000003025, -1.178686004624856 
3.540000000003046, -1.1871457836020547 
3.550000000003067, -1.200992883153289 
3.5600000000030882, -1.2169387535233023 
3.5700000000031094, -1.231204371753666 
3.5800000000031305, -1.2418185816681282 
3.5900000000031516, -1.2487466188827463 
3.6000000000031727, -1.2528635036963272 
3.6100000000031938, -1.2551231981028192 
3.620000000003215, -1.2562374699927148 
3.630000000003236, -1.256655123800868 
3.640000000003257, -1.2566354597134923 
3.650000000003278, -1.2563270889457203 
3.6600000000032993, -1.2558365123755 
3.6700000000033204, -1.2552950438101096 
3.6800000000033415, -1.2549190691359011 
3.6900000000033626, -1.2550130725303363 
3.7000000000033837, -1.255850842707861 
3.710000000003405, -1.25749295454949 
3.720000000003426, -1.259732618348351 
3.730000000003447, -1.2622288323635298 
3.740000000003468, -1.2646702388590625 
3.750000000003489, -1.2668465417933983 
3.7600000000035103, -1.2686425145553593 
3.7700000000035314, -1.2700093826284846 
3.7800000000035525, -1.2709417664010305 
3.7900000000035736, -1.2714639113135946 
3.8000000000035947, -1.2716203877529082 
3.810000000003616, -1.2714677869912059 
3.820000000003637, -1.2710685847748597 
3.830000000003658, -1.2704903725860004 
3.840000000003679, -1.2698102484241547 
3.8500000000037002, -1.2691174900499889 
3.8600000000037213, -1.2685050964368165 
3.8700000000037424, -1.268049915642784 
3.8800000000037635, -1.2677934416185839 
3.8900000000037847, -1.2677322438199925 
3.9000000000038058, -1.2678176377352075 
3.910000000003827, -1.2679667168517477 
3.920000000003848, -1.2680841615466116 
3.930000000003869, -1.2680813457247173 
3.94000000000389, -1.2678814942091616 
3.9500000000039113, -1.2674149190266601 
3.9600000000039324, -1.2666150012392294 
3.9700000000039535, -1.2654208538525036 
3.9800000000039746, -1.2637856924935462 
3.9900000000039957, -1.2616871532449347 
4.000000000004016, -1.2591386742369841 
4.010000000003993, -1.2562061109751856 
4.02000000000397, -1.2530338975697866 
4.030000000003946, -1.249872453304384 
4.040000000003923, -1.2470692284474647 
4.0500000000039, -1.2449671151457224 
4.0600000000038765, -1.2437244530634097 
4.070000000003853, -1.2432141725073973 
4.08000000000383, -1.243127244660659 
4.090000000003807, -1.2431626262277953 
4.100000000003783, -1.2431205899194615 
4.11000000000376, -1.2428807496228629 
4.120000000003737, -1.2423378381876602 
4.130000000003713, -1.2413363578303103 
4.14000000000369, -1.2396035699756158 
4.150000000003667, -1.236673333002566 
4.1600000000036434, -1.2318222578025655 
4.17000000000362, -1.2241147605054303 
4.180000000003597, -1.2127572916398477 
4.1900000000035735, -1.1979200784037893 
4.20000000000355, -1.1816387154954948 
4.210000000003527, -1.1675327660336237 
4.220000000003504, -1.1586198829872818 
4.23000000000348, -1.1551939090938745 
4.240000000003457, -1.1552765362337845 
4.250000000003434, -1.1566579173852043 
4.26000000000341, -1.1580590090973175 
4.270000000003387, -1.15904300077472 
4.280000000003364, -1.159572090944235 
4.2900000000033405, -1.1597134435909064 
4.300000000003317, -1.159517223514184 
4.310000000003294, -1.1589756479456088 
4.320000000003271, -1.1580031562901418 
4.330000000003247, -1.1564163699421521 
4.340000000003224, -1.1539262517253004 
4.350000000003201, -1.150212205542862 
4.360000000003177, -1.1452424671660653 
4.370000000003154, -1.1399936050089912 
4.380000000003131, -1.1371329844726883 
4.390000000003107, -1.140117299572374 
4.400000000003084, -1.1500973086726423 
4.410000000003061, -1.1640852847815495 
4.4200000000030375, -1.1774771660678174 
4.430000000003014, -1.1875518739143254 
4.440000000002991, -1.194043844910116 
4.450000000002968, -1.197832643644343 
4.460000000002944, -1.199880821174605 
4.470000000002921, -1.2008753905857557 
4.480000000002898, -1.201228194860716 
4.490000000002874, -1.2011613799206304 
4.500000000002851, -1.2007836637977276 
4.510000000002828, -1.2001503541357441 
4.520000000002804, -1.1993310559219341 
4.530000000002781, -1.1985170319276228 
4.540000000002758, -1.198164962751283 
4.5500000000027345, -1.1990457921708346 
4.560000000002711, -1.2019548593587797 
4.570000000002688, -1.207124809789474 
4.580000000002665, -1.213927062691314 
4.590000000002641, -1.2212319822367832 
4.600000000002618, -1.228000843851336 
4.610000000002595, -1.2336022257786565 
4.620000000002571, -1.2378192848029494 
4.630000000002548, -1.2407257852696436 
4.640000000002525, -1.242546920423348 
4.6500000000025015, -1.2435475889911207 
4.660000000002478, -1.2439634493712874 
4.670000000002455, -1.2439750164951366 
4.6800000000024315, -1.2437135099172338 
4.690000000002408, -1.243284814279552 
4.700000000002385, -1.2427996880280898 
4.710000000002362, -1.2423938361665607 
4.720000000002338, -1.2422143651097848 
4.730000000002315, -1.242366571996255 
4.740000000002292, -1.2428622059846854 
4.750000000002268, -1.2436205266438733 
4.760000000002245, -1.2445151974823103 
4.770000000002222, -1.2454209134463263 
4.7800000000021985, -1.2462366704598626 
4.790000000002175, -1.2468907394253976 
4.800000000002152, -1.247337003184713 
4.810000000002129, -1.2475487439433701 
4.820000000002105, -1.2475133153667346 
4.830000000002082, -1.2472290640505201 
4.840000000002059, -1.2467044484462133 
4.850000000002035, -1.245958911938471 
4.860000000002012, -1.2450253556593533 
4.870000000001989, -1.2439539573432523 
4.880000000001965, -1.2428155592123353 
4.890000000001942, -1.2417009758643132 
4.900000000001919, -1.2407125387574143 
4.9100000000018955, -1.2399446638621576 
4.920000000001872, -1.2394522716634444 
4.930000000001849, -1.239220196147041 
4.940000000001826, -1.2391621722411168 
