t, s[1].omega / s[0].omega 
0, -0.6399977144432609 
0.009999999999999995, -0.6397738298798126 
0.019999999999999934, -0.6395516601117867 
0.029999999999999874, -0.6393123694722612 
0.04000000000000012, -0.6390345529488837 
0.050000000000000405, -0.6387030168536993 
0.06000000000000069, -0.6383136901889948 
0.07000000000000098, -0.6378744036188728 
0.08000000000000126, -0.6374041816616044 
0.09000000000000155, -0.6369340613198166 
0.10000000000000184, -0.636511258390278 
0.11000000000000212, -0.6362073039918756 
0.12000000000000241, -0.6361300487820707 
0.130000000000002, -0.6364388276011479 
0.1400000000000009, -0.6373610745985286 
0.1499999999999998, -0.6392067093009662 
0.1599999999999987, -0.6423726413697198 
0.1699999999999976, -0.6473219200083316 
0.1799999999999965, -0.6545093639458164 
0.1899999999999954, -0.6642158856600267 
0.1999999999999943, -0.6762812451030464 
0.2099999999999932, -0.6898464516762377 
0.2199999999999921, -0.7033934391291896 
0.229999999999991, -0.7152927493193 
0.2399999999999899, -0.7245374245731664 
0.2499999999999888, -0.731021556574344 
0.2599999999999877, -0.735238386658811 
0.2699999999999866, -0.7378350081937517 
0.2799999999999855, -0.7393545767029488 
0.2899999999999844, -0.7401725507461971 
0.2999999999999833, -0.7405206722292469 
0.3099999999999822, -0.7405266370298944 
0.3199999999999811, -0.7402431119151383 
0.32999999999998, -0.7396609846659462 
0.3399999999999789, -0.7387068903778684 
0.3499999999999778, -0.7372243930587159 
0.35999999999997667, -0.7349378087867536 
0.36999999999997557, -0.7314044708503826 
0.37999999999997447, -0.725988318942263 
0.38999999999997337, -0.7179458442411756 
0.39999999999997227, -0.7067555848798933 
0.40999999999997117, -0.6926634573477737 
0.41999999999997006, -0.6769946600133824 
0.42999999999996896, -0.6617103513068872 
0.43999999999996786, -0.6484783712828871 
0.44999999999996676, -0.6380947767467701 
0.45999999999996566, -0.6305507549101742 
0.46999999999996456, -0.625397244883805 
0.47999999999996346, -0.6220604330799941 
0.48999999999996235, -0.6200115037233055 
0.49999999999996125, -0.6188274981760105 
0.5099999999999602, -0.618196345404636 
0.519999999999959, -0.6178998906989134 
0.529999999999958, -0.6177914815988739 
0.5399999999999568, -0.6177751117623155 
0.5499999999999557, -0.6177886653636281 
0.5599999999999546, -0.6177919053789843 
0.5699999999999535, -0.6177591169839932 
0.5799999999999524, -0.6176759401911529 
0.5899999999999513, -0.6175392722297695 
0.5999999999999502, -0.6173579522388144 
0.6099999999999491, -0.6171510523860604 
0.619999999999948, -0.6169416321735106 
0.6299999999999469, -0.6167471903407205 
0.6399999999999458, -0.6165713646844206 
0.6499999999999447, -0.6164016343629455 
0.6599999999999436, -0.616214504228958 
0.6699999999999425, -0.6159852272837016 
0.6799999999999414, -0.6156967305385008 
0.6899999999999403, -0.615343958679418 
0.6999999999999392, -0.6149338376986961 
0.7099999999999381, -0.6144839137741533 
0.719999999999937, -0.614022880352281 
0.7299999999999359, -0.6135949809934308 
0.7399999999999348, -0.6132693095724946 
0.7499999999999337, -0.6131547136084958 
0.7599999999999326, -0.6134208254486565 
0.7699999999999315, -0.6143248673081239 
0.7799999999999304, -0.6162410530270324 
0.7899999999999293, -0.6196822539998694 
0.7999999999999282, -0.6252880101630167 
0.8099999999999271, -0.633726344762089 
0.819999999999926, -0.645435444063569 
0.8299999999999249, -0.6601878189940793 
0.8399999999999238, -0.6767038301065306 
0.8499999999999227, -0.6928324776203549 
0.8599999999999216, -0.7065097775239193 
0.8699999999999205, -0.7167363652044993 
0.8799999999999194, -0.7236827071804605 
0.8899999999999183, -0.7281083287637986 
0.8999999999999172, -0.7308124263022079 
0.9099999999999161, -0.732402857721828 
0.919999999999915, -0.7332782127699555 
0.9299999999999139, -0.7336783010328535 
0.9399999999999128, -0.733734583501593 
0.9499999999999117, -0.7335028916695283 
0.9599999999999106, -0.7329781995039402 
0.9699999999999095, -0.7320937902059962 
0.9799999999999084, -0.7307061022035463 
0.9899999999999073, -0.7285676303753983 
0.9999999999999062, -0.7252998930780945 
1.0099999999999052, -0.7204047418959612 
1.019999999999904, -0.7133879538499783 
1.029999999999903, -0.7040479934625126 
1.039999999999902, -0.6928046590599577 
1.0499999999999008, -0.6807326001366221 
1.0599999999998997, -0.6691428852043071 
1.0699999999998986, -0.6590462873486685 
1.0799999999998975, -0.6509119295615902 
1.0899999999998964, -0.6447512688261654 
1.0999999999998953, -0.6403184481364977 
1.1099999999998942, -0.6372751613322293 
1.119999999999893, -0.6352850829518226 
1.129999999999892, -0.6340559362370898 
1.1399999999998909, -0.633352449662454 
1.1499999999998898, -0.6329951659974035 
1.1599999999998887, -0.6328529481307454 
1.1699999999998876, -0.6328332398540238 
1.1799999999998865, -0.6328724199017711 
1.1899999999998854, -0.6329277305845624 
1.1999999999998843, -0.6329716726967544 
1.2099999999998832, -0.6329891245186582 
1.219999999999882, -0.6329765031055962 
1.229999999999881, -0.6329410733076344 
1.2399999999998799, -0.6328978490855074 
1.2499999999998788, -0.6328627115784299 
1.2599999999998777, -0.6328434262124218 
1.2699999999998766, -0.6328329743588925 
1.2799999999998755, -0.6328094540780229 
1.2899999999998744, -0.6327433085316041 
1.2999999999998733, -0.6326080189943404 
1.3099999999998722, -0.6323883791641977 
1.319999999999871, -0.6320830566746987 
1.32999999999987, -0.6317028031711718 
1.3399999999998689, -0.6312681957395855 
1.3499999999998678, -0.6308102596049271 
1.3599999999998666, -0.630375782937642 
1.3699999999998655, -0.6300382545204035 
1.3799999999998644, -0.6299151917785983 
1.3899999999998633, -0.6301923880227016 
1.3999999999998622, -0.6311542567688572 
1.4099999999998611, -0.633215487552592 
1.41999999999986, -0.6369399319054531 
1.429999999999859, -0.6430139413175529 
1.4399999999998578, -0.6521132398496051 
1.4499999999998567, -0.6645912950727013 
1.4599999999998556, -0.6800120118389776 
1.4699999999998545, -0.6968374546651808 
1.4799999999998534, -0.712799329516667 
1.4899999999998523, -0.7259681307056545 
1.4999999999998512, -0.7355989068364878 
1.5099999999998501, -0.7420392817352095 
1.519999999999849, -0.7460988810792305 
1.529999999999848, -0.7485564515040886 
1.5399999999998468, -0.7499829768972559 
1.5499999999998457, -0.7507458245320098 
1.5599999999998446, -0.7510625478439135 
1.5699999999998435, -0.7510487099168468 
1.5799999999998424, -0.7507471225340256 
1.5899999999998413, -0.7501392046574039 
1.5999999999998402, -0.7491403395702394 
1.6099999999998391, -0.7475796958539218 
1.619999999999838, -0.7451664110109653 
1.629999999999837, -0.741455781497166 
1.6399999999998358, -0.7358615438742302 
1.6499999999998347, -0.7278054997490454 
1.6599999999998336, -0.7170707147525426 
1.6699999999998325, -0.7041998368867788 
1.6799999999998314, -0.6905169894082757 
1.6899999999998303, -0.6775898996489356 
1.6999999999998292, -0.666571797110948 
1.709999999999828, -0.6579348425054574 
1.719999999999827, -0.6516046783268549 
1.729999999999826, -0.6472214795650195 
1.7399999999998248, -0.6443432175881469 
1.7499999999998237, -0.6425559377558551 
1.7599999999998226, -0.6415178747712624 
1.7699999999998215, -0.6409677803328744 
1.7799999999998204, -0.6407167552364974 
1.7899999999998193, -0.6406339200303918 
1.7999999999998182, -0.6406312710371089 
1.809999999999817, -0.6406504809629541 
1.819999999999816, -0.6406530024060693 
1.8299999999998149, -0.6406140197488841 
1.8399999999998138, -0.6405201156484875 
1.8499999999998127, -0.6403695048878757 
1.8599999999998116, -0.6401723268194438 
1.8699999999998105, -0.6399478771717637 
1.8799999999998094, -0.6397173721346323 
1.8899999999998083, -0.6394945409204971 
1.8999999999998072, -0.6392790021486061 
1.909999999999806, -0.639056377588376 
1.919999999999805, -0.6388050845273845 
1.9299999999998039, -0.6385057686541338 
1.9399999999998028, -0.6381484254767416 
1.9499999999998017, -0.6377349996387924 
1.9599999999998006, -0.6372789590828332 
1.9699999999997995, -0.6368049992006555 
1.9799999999997984, -0.6363513887873592 
1.9899999999997973, -0.6359761338859223 
1.9999999999997962, -0.6357671932375705 
2.0099999999998173, -0.635856390227597 
2.0199999999998384, -0.636435926171113 
2.0299999999998595, -0.6377749750998379 
2.0399999999998806, -0.6402309753681892 
2.0499999999999017, -0.6442444420182949 
2.059999999999923, -0.6502954622015349 
2.069999999999944, -0.6587863691960723 
2.079999999999965, -0.6698176211062438 
2.089999999999986, -0.6828943300451209 
2.100000000000007, -0.6967737290731832 
2.1100000000000283, -0.709766198655873 
2.1200000000000494, -0.7204670622477715 
2.1300000000000705, -0.7283309258191679 
2.1400000000000916, -0.7336192891548683 
2.1500000000001127, -0.7369575460214568 
2.160000000000134, -0.7389632663289187 
2.170000000000155, -0.7400981409313759 
2.180000000000176, -0.7406617646134127 
2.190000000000197, -0.7408297672422701 
2.2000000000002182, -0.7406899118783282 
2.2100000000002393, -0.7402634475802092 
2.2200000000002604, -0.7395105372827299 
2.2300000000002815, -0.7383198230506527 
2.2400000000003026, -0.7364809955091716 
2.2500000000003237, -0.7336413298572657 
2.260000000000345, -0.7292621545901495 
2.270000000000366, -0.72263398873185 
2.280000000000387, -0.713071303165718 
2.290000000000408, -0.7003748742951841 
2.3000000000004293, -0.6853342964796865 
2.3100000000004504, -0.669687567403492 
2.3200000000004715, -0.6553442727623169 
2.3300000000004926, -0.6435518740267365 
2.3400000000005137, -0.6346627508168684 
2.3500000000005348, -0.6284039200696117 
2.360000000000556, -0.6242393411956386 
2.370000000000577, -0.6216095877274412 
2.380000000000598, -0.6200390283479184 
2.390000000000619, -0.6191633352925894 
2.4000000000006403, -0.618721008096866 
2.4100000000006614, -0.6185327824661975 
2.4200000000006825, -0.6184797704187494 
2.4300000000007036, -0.6184846625902819 
2.4400000000007247, -0.6184974104615798 
2.450000000000746, -0.6184856118700808 
2.460000000000767, -0.6184293448071979 
2.470000000000788, -0.618319735330885 
2.480000000000809, -0.6181596065153242 
2.49000000000083, -0.6179633465140416 
2.5000000000008513, -0.617753015031075 
2.5100000000008724, -0.6175500401597904 
2.5200000000008935, -0.6173656373838999 
2.5300000000009146, -0.6171950927668413 
2.5400000000009357, -0.6170193424608584 
2.550000000000957, -0.6168130388978257 
2.560000000000978, -0.6165545200322534 
2.570000000000999, -0.616232646846159 
2.58000000000102, -0.6158486648951095 
2.5900000000010412, -0.6154150586711713 
2.6000000000010624, -0.6149548273312719 
2.6100000000010835, -0.6145038160010741 
2.6200000000011046, -0.6141175054624921 
2.6300000000011257, -0.6138830458756495 
2.6400000000011468, -0.6139371510387046 
2.650000000001168, -0.6144900389975354 
2.660000000001189, -0.6158539396120553 
2.67000000000121, -0.6184701075121218 
2.680000000001231, -0.6229175663476718 
2.6900000000012523, -0.6298657704704896 
2.7000000000012734, -0.6399053320806496 
2.7100000000012945, -0.653195310025406 
2.7200000000013156, -0.6690061973434773 
2.7300000000013367, -0.6855535161819009 
2.740000000001358, -0.7005959277082067 
2.750000000001379, -0.7125359767443933 
2.7600000000014, -0.7210097547163407 
2.770000000001421, -0.726564024009198 
2.780000000001442, -0.730022663041192 
2.7900000000014633, -0.732097232891497 
2.8000000000014844, -0.7332842114307293 
2.8100000000015055, -0.7338943086771599 
2.8200000000015266, -0.7341069568105302 
2.8300000000015477, -0.7340122147212169 
2.840000000001569, -0.7336340303272293 
2.85000000000159, -0.7329368055734968 
2.860000000001611, -0.7318170639187505 
2.870000000001632, -0.7300813861829996 
2.8800000000016532, -0.7274161683760332 
2.8900000000016743, -0.7233720602624507 
2.9000000000016954, -0.7174208735232296 
2.9100000000017165, -0.7091641351024409 
2.9200000000017377, -0.6986793324999432 
2.9300000000017588, -0.6867495020335171 
2.94000000000178, -0.674656647528866 
2.950000000001801, -0.6636321494387432 
2.960000000001822, -0.6544294118862322 
2.970000000001843, -0.6472648834051963 
2.9800000000018643, -0.6419909098032732 
2.9900000000018854, -0.638292577816535 
3.0000000000019065, -0.6358188277216933 
3.0100000000019276, -0.634248181829199 
3.0200000000019487, -0.6333137746245032 
3.03000000000197, -0.6328075508912566 
3.040000000001991, -0.6325748347886258 
3.050000000002012, -0.6325049832764591 
3.060000000002033, -0.6325212019877269 
3.070000000002054, -0.6325713788912598 
3.0800000000020753, -0.6326210932180991 
3.0900000000020964, -0.6326493739734463 
3.1000000000021175, -0.6326470218986473 
3.1100000000021386, -0.6326161869694087 
3.1200000000021597, -0.6325687979779757 
3.130000000002181, -0.6325215794035527 
3.140000000002202, -0.6324876766189006 
3.150000000002223, -0.6324681889039914 
3.160000000002244, -0.6324484067973477 
3.1700000000022652, -0.632401577704615 
3.1800000000022863, -0.6322985499612398 
3.1900000000023074, -0.6321178943007496 
3.2000000000023285, -0.6318514236831676 
3.2100000000023496, -0.6315041971262693 
3.2200000000023707, -0.6310920428997087 
3.230000000002392, -0.6306404745744388 
3.240000000002413, -0.6301875484075021 
3.250000000002434, -0.6297919083159934 
3.260000000002455, -0.629546810090516 
3.2700000000024763, -0.6296008246563516 
3.2800000000024974, -0.6301852617065486 
3.2900000000025185, -0.631645942553595 
3.3000000000025396, -0.6344707900403221 
3.3100000000025607, -0.639291278982429 
3.3200000000025818, -0.6468116695913946 
3.330000000002603, -0.657594004434251 
3.340000000002624, -0.6716535425298605 
3.350000000002645, -0.6880098965135879 
3.360000000002666, -0.7046614596120934 
3.3700000000026873, -0.7193691784135017 
3.3800000000027084, -0.7307520760546845 
3.3900000000027295, -0.7386784470085366 
3.4000000000027506, -0.7438073081019781 
3.4100000000027717, -0.7469711904629998 
3.420000000002793, -0.7488499582436867 
3.430000000002814, -0.7499057491388268 
3.440000000002835, -0.7504231991663451 
3.450000000002856, -0.7505634437058979 
3.460000000002877, -0.7504028096480179 
3.4700000000028983, -0.7499527202045566 
3.4800000000029194, -0.7491628385629571 
3.4900000000029405, -0.7479085834007037 
3.5000000000029616, -0.7459634958224072 
3.5100000000029827, -0.7429623603323214 
3.520000000003004, -0.7383820730046191 
3.530000000003025, -0.7316102164514928 
3.540000000003046, -0.7221977559474059 
3.550000000003067, -0.7102755478942216 
3.5600000000030882, -0.6968159775950851 
3.5700000000031094, -0.6833537378993839 
3.5800000000031305, -0.6713079336749008 
3.5900000000031516, -0.6614877379301884 
3.6000000000031727, -0.654057383851206 
3.6100000000031938, -0.6487679015709538 
3.620000000003215, -0.6452001470748228 
3.630000000003236, -0.6429189292536148 
3.640000000003257, -0.6415452495071027 
3.650000000003278, -0.6407791142247384 
3.6600000000032993, -0.6403978286704414 
3.6700000000033204, -0.6402439125152606 
3.6800000000033415, -0.6402099955996826 
3.6900000000033626, -0.6402245027939772 
3.7000000000033837, -0.6402400689608212 
3.710000000003405, -0.6402255863988096 
3.720000000003426, -0.6401621050969294 
3.730000000003447, -0.640042006289334 
3.740000000003468, -0.6398696249304605 
3.750000000003489, -0.6396603129540016 
3.7600000000035103, -0.6394353619586375 
3.7700000000035314, -0.6392131542604725 
3.7800000000035525, -0.6390005282479871 
3.7900000000035736, -0.6387892972039811 
3.8000000000035947, -0.6385600631998118 
3.810000000003616, -0.6382910341700249 
3.820000000003637, -0.6379668261142281 
3.830000000003658, -0.6375833174503907 
3.840000000003679, -0.6371483295791486 
3.8500000000037002, -0.6366808310533886 
3.8600000000037213, -0.6362117141718814 
3.8700000000037424, -0.6357879874835282 
3.8800000000037635, -0.6354810373723165 
3.8900000000037847, -0.6353989091958655 
3.9000000000038058, -0.6357019692558532 
3.910000000003827, -0.6366202871907021 
3.920000000003848, -0.6384690171709871 
3.930000000003869, -0.6416538621217099 
3.94000000000389, -0.6466504491274081 
3.9500000000039113, -0.6539280750000287 
3.9600000000039324, -0.6637781851225901 
3.9700000000039535, -0.676037068797802 
3.9800000000039746, -0.6898200453678932 
3.9900000000039957, -0.7035675482023523 
4.000000000004016, -0.7156166433990346 
4.010000000003993, -0.7249537563381121 
4.02000000000397, -0.7314874951370071 
4.030000000003946, -0.7357293884682753 
4.040000000003923, -0.7383390681460777 
4.0500000000039, -0.7398661901354592 
4.0600000000038765, -0.7406891683932681 
4.070000000003853, -0.7410410596755422 
4.08000000000383, -0.7410501881792129 
4.090000000003807, -0.7407695667488835 
4.100000000003783, -0.7401903125952375 
4.11000000000376, -0.7392392585881602 
4.120000000003737, -0.7377602403168432 
4.130000000003713, -0.7354781961602587 
4.14000000000369, -0.7319522000354526 
4.150000000003667, -0.72655078161593 
4.1600000000036434, -0.7185403619186908 
4.17000000000362, -0.7074147659665296 
4.180000000003597, -0.6934318233633241 
4.1900000000035735, -0.6779098693756818 
4.20000000000355, -0.6627814351455888 
4.210000000003527, -0.6496824732922278 
4.220000000003504, -0.6393928025246152 
4.23000000000348, -0.6319048639441027 
4.240000000003457, -0.6267796246991876 
4.250000000003434, -0.6234541793843477 
4.26000000000341, -0.6214079693173927 
4.270000000003387, -0.6202231480605824 
4.280000000003364, -0.6195903315355922 
4.2900000000033405, -0.619292531064317 
4.300000000003317, -0.6191834465368145 
4.310000000003294, -0.6191670583671662 
4.320000000003271, -0.6191811146999905 
4.330000000003247, -0.6191852316396285 
4.340000000003224, -0.6191535768253618 
4.350000000003201, -0.6190717063842339 
4.360000000003177, -0.618936452347059 
4.370000000003154, -0.6187565798629351 
4.380000000003131, -0.6185510474693627 
4.390000000003107, -0.6183427454607886 
4.400000000003084, -0.6181489662156205 
4.410000000003061, -0.617973160691196 
4.4200000000030375, -0.6178027149654677 
4.430000000003014, -0.617614186540315 
4.440000000002991, -0.6173830208389874 
4.450000000002968, -0.6170924161297052 
4.460000000002944, -0.6167375986182263 
4.470000000002921, -0.6163257598272405 
4.480000000002898, -0.6158747247853369 
4.490000000002874, -0.615413544945333 
4.500000000002851, -0.6149869756244131 
4.510000000002828, -0.6146648301343698 
4.520000000002804, -0.6145568728250342 
4.530000000002781, -0.6148337002058069 
4.540000000002758, -0.615753139160691 
4.5500000000027345, -0.6176888427919159 
4.560000000002711, -0.6211506611792835 
4.570000000002688, -0.6267710492576448 
4.580000000002665, -0.6352058988000514 
4.590000000002641, -0.6468780998007259 
4.600000000002618, -0.6615492003790118 
4.610000000002595, -0.6779443175455577 
4.620000000002571, -0.6939366016997981 
4.630000000002548, -0.7074916019499669 
4.640000000002525, -0.7176261521375753 
4.6500000000025015, -0.7245103376550153 
4.660000000002478, -0.7288957681079313 
4.670000000002455, -0.7315737769177871 
4.6800000000024315, -0.7331467056827161 
4.690000000002408, -0.7340096612992847 
4.700000000002385, -0.7344002399433458 
4.710000000002362, -0.7344483696745897 
4.720000000002338, -0.7342086232898761 
4.730000000002315, -0.7336746576036743 
4.740000000002292, -0.7327780074911883 
4.750000000002268, -0.731372396673248 
4.760000000002245, -0.7292058161247352 
4.770000000002222, -0.7258923926575556 
4.7800000000021985, -0.7209229705483315 
4.790000000002175, -0.7137904504830845 
4.800000000002152, -0.7042857049451935 
4.810000000002129, -0.6928371072771109 
4.820000000002105, -0.680547483769839 
4.830000000002082, -0.6687630724916268 
4.840000000002059, -0.6585187150750058 
4.850000000002035, -0.6502892942331441 
4.860000000002012, -0.6440785393333727 
4.870000000001989, -0.6396274960773336 
4.880000000001965, -0.6365850748594897 
4.890000000001942, -0.6346050007104078 
4.900000000001919, -0.6333883692628277 
4.9100000000018955, -0.6326961286127175 
4.920000000001872, -0.6323470914283639 
