t, s[1].omega / s[0].omega 
0, -0.749997672146648 
0.009999999999999995, -0.7497428210006272 
0.019999999999999934, -0.7494421881269557 
0.029999999999999874, -0.749091253038558 
0.04000000000000012, -0.7486870859275296 
0.050000000000000405, -0.7482321561153001 
0.06000000000000069, -0.7477363747529265 
0.07000000000000098, -0.7472177071565052 
0.08000000000000126, -0.7467026257072786 
0.09000000000000155, -0.7462272281874698 
0.10000000000000184, -0.7458387805573078 
0.11000000000000212, -0.7455965721977275 
0.12000000000000241, -0.7455707097041651 
0.130000000000002, -0.7458379533109596 
0.1400000000000009, -0.7464747405892891 
0.1499999999999998, -0.7475485227547117 
0.1599999999999987, -0.7491086422014529 
0.1699999999999976, -0.7511769092099742 
0.1799999999999965, -0.7537366244782752 
0.1899999999999954, -0.7567189770915065 
0.1999999999999943, -0.7599897059120845 
0.2099999999999932, -0.763346649280648 
0.2199999999999921, -0.7665438156205852 
0.229999999999991, -0.7693471372446732 
0.2399999999999899, -0.7715992923085828 
0.2499999999999888, -0.7732535872933914 
0.2599999999999877, -0.7743581139218401 
0.2699999999999866, -0.7750099842653555 
0.2799999999999855, -0.7753120166803311 
0.2899999999999844, -0.775348066547024 
0.2999999999999833, -0.775175225084926 
0.3099999999999822, -0.7748251001012537 
0.3199999999999811, -0.7743084496758724 
0.32999999999998, -0.7736212641580342 
0.3399999999999789, -0.7727535798095573 
0.3499999999999778, -0.7717047595290858 
0.35999999999997667, -0.7705102539632811 
0.36999999999997557, -0.7692821156008233 
0.37999999999997447, -0.7682526935332509 
0.38999999999997337, -0.7677841599439519 
0.39999999999997227, -0.7682843619547189 
0.40999999999997117, -0.7700103627761903 
0.41999999999997006, -0.7728749032261955 
0.42999999999996896, -0.7764476342450582 
0.43999999999996786, -0.7801702319051876 
0.44999999999996676, -0.7835854348647323 
0.45999999999996566, -0.7864335094837471 
0.46999999999996456, -0.7886361315416798 
0.47999999999996346, -0.7902347453989853 
0.48999999999996235, -0.791326539638863 
0.49999999999996125, -0.7920180178882636 
0.5099999999999602, -0.7923997389892995 
0.519999999999959, -0.792536417176996 
0.529999999999958, -0.7924646359259224 
0.5399999999999568, -0.7921923336813899 
0.5499999999999557, -0.7916966505156353 
0.5599999999999546, -0.7909186849603027 
0.5699999999999535, -0.7897559255272688 
0.5799999999999524, -0.7880572270339765 
0.5899999999999513, -0.7856323404116992 
0.5999999999999502, -0.7822945193875717 
0.6099999999999491, -0.777946326631063 
0.619999999999948, -0.7726799716992141 
0.6299999999999469, -0.7668180353081344 
0.6399999999999458, -0.760839242429734 
0.6499999999999447, -0.755227558817953 
0.6599999999999436, -0.7503427939372169 
0.6699999999999425, -0.7463706661036414 
0.6799999999999414, -0.7433402446633137 
0.6899999999999403, -0.7411704033531764 
0.6999999999999392, -0.739718189358567 
0.7099999999999381, -0.7388183527928676 
0.719999999999937, -0.738311499538957 
0.7299999999999359, -0.7380608717732448 
0.7399999999999348, -0.737958993035572 
0.7499999999999337, -0.7379266792472567 
0.7599999999999326, -0.7379076789464509 
0.7699999999999315, -0.7378620518749984 
0.7799999999999304, -0.7377606170685038 
0.7899999999999293, -0.737581870672076 
0.7999999999999282, -0.7373117809499559 
0.8099999999999271, -0.7369455858172689 
0.819999999999926, -0.7364893229910795 
0.8299999999999249, -0.7359584845931381 
0.8399999999999238, -0.735373065761568 
0.8499999999999227, -0.7347513443912407 
0.8599999999999216, -0.734106030903987 
0.8699999999999205, -0.7334446190164267 
0.8799999999999194, -0.7327728320085958 
0.8899999999999183, -0.7320986907254186 
0.8999999999999172, -0.7314354814424988 
0.9099999999999161, -0.7308033478723875 
0.919999999999915, -0.730229955142049 
0.9299999999999139, -0.7297504740248498 
0.9399999999999128, -0.7294066516659704 
0.9499999999999117, -0.7292445842075257 
0.9599999999999106, -0.7293111623663625 
0.9699999999999095, -0.7296497734919984 
0.9799999999999084, -0.7302962296997713 
0.9899999999999073, -0.7312756451512068 
0.9999999999999062, -0.7326000794369449 
1.0099999999999052, -0.7342656292809331 
1.019999999999904, -0.7362470508935048 
1.029999999999903, -0.7384889232599191 
1.039999999999902, -0.7408957881523018 
1.0499999999999008, -0.743329201321775 
1.0599999999998997, -0.7456226603472987 
1.0699999999998986, -0.7476178689408668 
1.0799999999998975, -0.7492073977227159 
1.0899999999998964, -0.7503576150565374 
1.0999999999998953, -0.7510992299777943 
1.1099999999998942, -0.75149747246924 
1.119999999999893, -0.7516227494644946 
1.129999999999892, -0.7515330645255428 
1.1399999999998909, -0.7512679481298626 
1.1499999999998898, -0.7508493531291484 
1.1599999999998887, -0.7502861515207593 
1.1699999999998876, -0.749581637072943 
1.1799999999998865, -0.7487460005671976 
1.1899999999998854, -0.7478174962461057 
1.1999999999998843, -0.7468955098330784 
1.2099999999998832, -0.7461820509572783 
1.219999999999882, -0.7460097353550642 
1.229999999999881, -0.7468063259923166 
1.2399999999998799, -0.7489410287663407 
1.2499999999998788, -0.7524808475750796 
1.2599999999998777, -0.7570433891572719 
1.2699999999998766, -0.7619390893635766 
1.2799999999998755, -0.7665077352304852 
1.2899999999998744, -0.7703507276143468 
1.2999999999998733, -0.773344194030728 
1.3099999999998722, -0.7755411175587 
1.319999999999871, -0.7770727493866458 
1.32999999999987, -0.7780842436557157 
1.3399999999998689, -0.7787018520586925 
1.3499999999998678, -0.7790207918100598 
1.3599999999998666, -0.7791036430328949 
1.3699999999998655, -0.7789821187933208 
1.3799999999998644, -0.7786580081808929 
1.3899999999998633, -0.778101199168934 
1.3999999999998622, -0.7772442913058358 
1.4099999999998611, -0.7759756107643958 
1.41999999999986, -0.7741370881070615 
1.429999999999859, -0.7715407896585854 
1.4399999999998578, -0.7680218653486481 
1.4499999999998567, -0.7635300012102515 
1.4599999999998556, -0.7582173037381454 
1.4699999999998545, -0.7524474417654143 
1.4799999999998534, -0.746694795888387 
1.4899999999998523, -0.7413964608957795 
1.4999999999998512, -0.7368493827571643 
1.5099999999998501, -0.7331864326075861 
1.519999999999849, -0.7304057542184418 
1.529999999999848, -0.7284167831872626 
1.5399999999998468, -0.7270824149224909 
1.5499999999998457, -0.7262512998705996 
1.5599999999998446, -0.7257800161250956 
1.5699999999998435, -0.725545982608124 
1.5799999999998424, -0.7254523825790498 
1.5899999999998413, -0.7254270992125502 
1.5999999999998402, -0.7254182154872612 
1.6099999999998391, -0.7253885708053189 
1.619999999999838, -0.7253113084423348 
1.629999999999837, -0.7251675598160117 
1.6399999999998358, -0.7249464226447434 
1.6499999999998347, -0.7246461295873905 
1.6599999999998336, -0.7242742265722859 
1.6699999999998325, -0.7238448520695265 
1.6799999999998314, -0.7233733938052684 
1.6899999999998303, -0.7228713018340549 
1.6999999999998292, -0.7223441171567837 
1.709999999999828, -0.7217934752997545 
1.719999999999827, -0.7212212664278767 
1.729999999999826, -0.7206334903747679 
1.7399999999998248, -0.720042607065986 
1.7499999999998237, -0.719468695887955 
1.7599999999998226, -0.7189402286291554 
1.7699999999998215, -0.7184947795902723 
1.7799999999998204, -0.7181792855955951 
1.7899999999998193, -0.7180491164072257 
1.7999999999998182, -0.7181654130834788 
1.809999999999817, -0.7185907526259847 
1.819999999999816, -0.7193837836019752 
1.8299999999998149, -0.7205935271946801 
1.8399999999998138, -0.7222532794352502 
1.8499999999998127, -0.7243728079948046 
1.8599999999998116, -0.7269268838792533 
1.8699999999998105, -0.7298398791700315 
1.8799999999998094, -0.7329718404568549 
1.8899999999998083, -0.7361196366482294 
1.8999999999998072, -0.7390484532051291 
1.909999999999806, -0.7415518824885103 
1.919999999999805, -0.7435099807746325 
1.9299999999998039, -0.7449079748165301 
1.9399999999998028, -0.745809346498202 
1.9499999999998017, -0.746310156937065 
1.9599999999998006, -0.7465026788048319 
1.9699999999997995, -0.7464574430685368 
1.9799999999997984, -0.7462188935306008 
1.9899999999997973, -0.7458072768432683 
1.9999999999997962, -0.745222220001984 
2.0099999999998173, -0.7444467089509511 
2.0199999999998384, -0.7434525860931457 
2.0299999999998595, -0.7422103833483562 
2.0399999999998806, -0.7407068601125704 
2.0499999999999017, -0.7389707543647834 
2.059999999999923, -0.7370976074442984 
2.069999999999944, -0.7352508593279762 
2.079999999999965, -0.7336205175953744 
2.089999999999986, -0.7323659129520407 
2.100000000000007, -0.7316006729138482 
2.1100000000000283, -0.7314018196904845 
2.1200000000000494, -0.731767406261288 
2.1300000000000705, -0.7325665517577643 
2.1400000000000916, -0.733579407721233 
2.1500000000001127, -0.7345945727120236 
2.160000000000134, -0.7354728687135839 
2.170000000000155, -0.7361525878649283 
2.180000000000176, -0.7366241296414813 
2.190000000000197, -0.7369019306414468 
2.2000000000002182, -0.7370046321953108 
2.2100000000002393, -0.7369434928043345 
2.2200000000002604, -0.7367157894485146 
2.2300000000002815, -0.736300431267489 
2.2400000000003026, -0.7356547708680928 
2.2500000000003237, -0.734714040068371 
2.260000000000345, -0.7333977742446603 
2.270000000000366, -0.7316292307837389 
2.280000000000387, -0.729369422225936 
2.290000000000408, -0.7266536674077047 
2.3000000000004293, -0.7236052791044493 
2.3100000000004504, -0.7204094652741275 
2.3200000000004715, -0.7172611492637008 
2.3300000000004926, -0.7143195034606398 
2.3400000000005137, -0.7116892001521143 
2.3500000000005348, -0.7094246893968928 
2.360000000000556, -0.7075436795397352 
2.370000000000577, -0.7060396416013937 
2.380000000000598, -0.7048900233336505 
2.390000000000619, -0.7040610353774314 
2.4000000000006403, -0.7035109853134844 
2.4100000000006614, -0.7031935648294614 
2.4200000000006825, -0.7030614511758755 
2.4300000000007036, -0.7030698015468518 
2.4400000000007247, -0.7031790058785958 
2.450000000000746, -0.7033563404835814 
2.460000000000767, -0.7035765923598116 
2.470000000000788, -0.7038219289685029 
2.480000000000809, -0.7040810854429413 
2.49000000000083, -0.7043474990964655 
2.5000000000008513, -0.7046159032335978 
2.5100000000008724, -0.70487770220911 
2.5200000000008935, -0.7051170158787489 
2.5300000000009146, -0.7053102084558612 
2.5400000000009357, -0.7054303875561441 
2.550000000000957, -0.7054550154358841 
2.560000000000978, -0.7053722788669903 
2.570000000000999, -0.7051829549369795 
2.58000000000102, -0.7048981706491093 
2.5900000000010412, -0.7045360832305154 
2.6000000000010624, -0.7041204439772705 
2.6100000000010835, -0.7036825626195651 
2.6200000000011046, -0.7032670042509291 
2.6300000000011257, -0.702940742653321 
2.6400000000011468, -0.7028048865004964 
2.650000000001168, -0.7030068667783174 
2.660000000001189, -0.7037488479706427 
2.67000000000121, -0.705285222637103 
2.680000000001231, -0.7078988870650872 
2.6900000000012523, -0.711844106169821 
2.7000000000012734, -0.7172481092416152 
2.7100000000012945, -0.7239852599887012 
2.7200000000013156, -0.7315853784644322 
2.7300000000013367, -0.7392811516059026 
2.740000000001358, -0.7462475757029223 
2.750000000001379, -0.7519108410417672 
2.7600000000014, -0.756101341502961 
2.770000000001421, -0.758973476445689 
2.780000000001442, -0.7608212612591043 
2.7900000000014633, -0.7619352063135205 
2.8000000000014844, -0.7625407168591749 
2.8100000000015055, -0.7627901241563027 
2.8200000000015266, -0.7627746155119463 
2.8300000000015477, -0.7625375470732985 
2.840000000001569, -0.7620823761645029 
2.85000000000159, -0.7613734929114676 
2.860000000001611, -0.7603295870636158 
2.870000000001632, -0.7588098039457724 
2.8800000000016532, -0.7565956286438524 
2.8900000000016743, -0.7533802216028761 
2.9000000000016954, -0.7487957124176328 
2.9100000000017165, -0.742528867572247 
2.9200000000017377, -0.7345494076816267 
2.9300000000017588, -0.7253425549737671 
2.94000000000178, -0.7158947211143569 
2.950000000001801, -0.7073202687589899 
2.960000000001822, -0.7003973039152701 
2.970000000001843, -0.6953677903118669 
2.9800000000018643, -0.6920461615649233 
2.9900000000018854, -0.6900441069658789 
3.0000000000019065, -0.6889507095558307 
3.0100000000019276, -0.6884241989123185 
3.0200000000019487, -0.6882166129800379 
3.03000000000197, -0.6881637804064863 
3.040000000001991, -0.6881635520403299 
3.050000000002012, -0.6881541166322728 
3.060000000002033, -0.6880968708809869 
3.070000000002054, -0.6879646486142079 
3.0800000000020753, -0.6877349043214095 
3.0900000000020964, -0.6873874625326145 
3.1000000000021175, -0.6869065776006036 
3.1100000000021386, -0.6862862868941113 
3.1200000000021597, -0.6855360970142546 
3.130000000002181, -0.6846825033642122 
3.140000000002202, -0.6837635147544303 
3.150000000002223, -0.6828183397890588 
3.160000000002244, -0.6818781707292534 
3.1700000000022652, -0.6809627036847662 
3.1800000000022863, -0.6800825421719681 
3.1900000000023074, -0.6792444536631868 
3.2000000000023285, -0.6784563660954552 
3.2100000000023496, -0.6777306442177862 
3.2200000000023707, -0.6770856578379756 
3.230000000002392, -0.6765461578306377 
3.240000000002413, -0.6761428110385059 
3.250000000002434, -0.6759109991884702 
3.260000000002455, -0.675888972644885 
3.2700000000024763, -0.6761156271170895 
3.2800000000024974, -0.6766283046668067 
3.2900000000025185, -0.6774608637994601 
3.3000000000025396, -0.6786417031445133 
3.3100000000025607, -0.680190554420425 
3.3200000000025818, -0.6821120537219845 
3.330000000002603, -0.684384177582064 
3.340000000002624, -0.686942036946469 
3.350000000002645, -0.6896635532650329 
3.360000000002666, -0.6923710381206032 
3.3700000000026873, -0.6948621442928598 
3.3800000000027084, -0.6969649738936938 
3.3900000000027295, -0.6985865276588517 
3.4000000000027506, -0.6997233856665935 
3.4100000000027717, -0.7004345285488224 
3.420000000002793, -0.7008019337239586 
3.430000000002814, -0.700901235262134 
3.440000000002835, -0.7007878491511398 
3.450000000002856, -0.7004935655289145 
3.460000000002877, -0.7000273759687496 
3.4700000000028983, -0.699376719890599 
3.4800000000029194, -0.6985076674903014 
3.4900000000029405, -0.6973639657211308 
3.5000000000029616, -0.6958655716282701 
3.5100000000029827, -0.6939074731129683 
3.520000000003004, -0.691359832135853 
3.530000000003025, -0.6880744086152358 
3.540000000003046, -0.6839182927347228 
3.550000000003067, -0.6788774611495719 
3.5600000000030882, -0.6732281587967929 
3.5700000000031094, -0.6676079862295745 
3.5800000000031305, -0.662781091437193 
3.5900000000031516, -0.659241024714875 
3.6000000000031727, -0.657033291148266 
3.6100000000031938, -0.6558867533729097 
3.620000000003215, -0.6554379271874862 
3.630000000003236, -0.6553753704152288 
3.640000000003257, -0.65548409229173 
3.650000000003278, -0.6556348162579986 
3.6600000000032993, -0.6557570426843704 
3.6700000000033204, -0.6558142373391502 
3.6800000000033415, -0.6557860545245647 
3.6900000000033626, -0.6556570739411909 
3.7000000000033837, -0.655410459049996 
3.710000000003405, -0.6550256253186684 
3.720000000003426, -0.6544800473392941 
3.730000000003447, -0.6537556576841065 
3.740000000003468, -0.6528487597060482 
3.750000000003489, -0.6517789649957921 
3.7600000000035103, -0.6505904489092018 
3.7700000000035314, -0.6493422588269059 
3.7800000000035525, -0.6480924199353462 
3.7900000000035736, -0.6468851228358388 
3.8000000000035947, -0.6457467397818432 
3.810000000003616, -0.6446896318532251 
3.820000000003637, -0.6437191595710817 
3.830000000003658, -0.6428399965802808 
3.840000000003679, -0.642060152692204 
3.8500000000037002, -0.6413928307023281 
3.8600000000037213, -0.6408568218573196 
3.8700000000037424, -0.640476036738608 
3.8800000000037635, -0.6402785344323801 
3.8900000000037847, -0.6402953114307107 
3.9000000000038058, -0.6405591087074218 
3.910000000003827, -0.6411034289216899 
3.920000000003848, -0.6419616714601559 
3.930000000003869, -0.643165713397593 
3.94000000000389, -0.6447424341288428 
3.9500000000039113, -0.6467058969305585 
3.9600000000039324, -0.6490430337939366 
3.9700000000039535, -0.6516934877950024 
3.9800000000039746, -0.6545314663435097 
3.9900000000039957, -0.6573664906375296 
4.000000000004016, -0.659978953546436 
4.010000000003993, -0.6621833416371339 
4.02000000000397, -0.6638820323973109 
4.030000000003946, -0.6650748177244722 
4.040000000003923, -0.6658269238332576 
4.0500000000039, -0.6662258025290739 
4.0600000000038765, -0.666350428460345 
4.070000000003853, -0.6662574183067588 
4.08000000000383, -0.6659776768619879 
4.090000000003807, -0.6655165747030812 
4.100000000003783, -0.6648532623756879 
4.11000000000376, -0.663936778986897 
4.120000000003737, -0.6626775028618934 
4.130000000003713, -0.6609330203954358 
4.14000000000369, -0.6584896680650841 
4.150000000003667, -0.6550496426400303 
4.1600000000036434, -0.6502562447722926 
4.17000000000362, -0.6438200939518414 
4.180000000003597, -0.635780271655162 
4.1900000000035735, -0.6267496871830562 
4.20000000000355, -0.6178184720266059 
4.210000000003527, -0.6100574978605118 
4.220000000003504, -0.6040545612190489 
4.23000000000348, -0.5998430382255884 
4.240000000003457, -0.5971184675026675 
4.250000000003434, -0.5954779289736154 
4.26000000000341, -0.5945589165789376 
4.270000000003387, -0.5940862516198897 
4.280000000003364, -0.5938702103255005 
4.2900000000033405, -0.593787602650909 
4.300000000003317, -0.5937612342824177 
4.310000000003294, -0.593743216107552 
4.320000000003271, -0.5937031264144875 
4.330000000003247, -0.5936205606871799 
4.340000000003224, -0.5934814014989124 
4.350000000003201, -0.5932772038740782 
4.360000000003177, -0.5930067848617029 
4.370000000003154, -0.592678228652265 
4.380000000003131, -0.5923087421775988 
4.390000000003107, -0.5919205196321274 
4.400000000003084, -0.5915334641824358 
4.410000000003061, -0.5911583525298519 
4.4200000000030375, -0.5907942038332028 
4.430000000003014, -0.5904310027946871 
4.440000000002991, -0.5900557571879255 
4.450000000002968, -0.5896584714739681 
4.460000000002944, -0.589235673794642 
4.470000000002921, -0.588791406289687 
4.480000000002898, -0.5883372065806354 
4.490000000002874, -0.5878928277253396 
4.500000000002851, -0.5874888604964937 
4.510000000002828, -0.5871718399544992 
4.520000000002804, -0.5870120985923425 
4.530000000002781, -0.5871143532050667 
4.540000000002758, -0.5876303213278311 
4.5500000000027345, -0.5887708346675955 
4.560000000002711, -0.5908107869297303 
4.570000000002688, -0.594072488038443 
4.580000000002665, -0.5988626829269647 
4.590000000002641, -0.6053371964166236 
4.600000000002618, -0.6133064344942318 
4.610000000002595, -0.6221000824584373 
4.620000000002571, -0.6306906056274983 
4.630000000002548, -0.6381118054769142 
4.640000000002525, -0.643860252701534 
4.6500000000025015, -0.6479521624399689 
4.660000000002478, -0.6506983596495823 
4.670000000002455, -0.6524660135970376 
4.6800000000024315, -0.6535585030338245 
4.690000000002408, -0.6541898743459668 
4.700000000002385, -0.6544981393407342 
4.710000000002362, -0.6545649820910693 
4.720000000002338, -0.6544307005680448 
4.730000000002315, -0.6541025561159093 
4.740000000002292, -0.6535574924511675 
4.750000000002268, -0.6527411349642132 
4.760000000002245, -0.6515666208084221 
4.770000000002222, -0.6499202938212713 
4.7800000000021985, -0.6476851836902526 
4.790000000002175, -0.6447901707986795 
4.800000000002152, -0.6412723547015201 
4.810000000002129, -0.6373101754609002 
4.820000000002105, -0.6331867876442437 
4.830000000002082, -0.6291983711153695 
4.840000000002059, -0.6255704197191595 
4.850000000002035, -0.6224264160143879 
4.860000000002012, -0.6198027201609183 
4.870000000001989, -0.6176804935683818 
4.880000000001965, -0.6160136814206939 
4.890000000001942, -0.6147466883196617 
4.900000000001919, -0.6138234156091055 
4.9100000000018955, -0.6131911949098472 
4.920000000001872, -0.6128023723383575 
4.930000000001849, -0.6126150614108272 
