t, s[1].omega / s[0].omega 
0, -0.6899976958347029 
0.009999999999999995, -0.6897582076724682 
0.019999999999999934, -0.6894959789748218 
0.029999999999999874, -0.6891994593941374 
0.04000000000000012, -0.6888567160383824 
0.050000000000000405, -0.6884616497131424 
0.06000000000000069, -0.6880173596323795 
0.07000000000000098, -0.6875368290101094 
0.08000000000000126, -0.6870429761365217 
0.09000000000000155, -0.6865700035996272 
0.10000000000000184, -0.6861667838345803 
0.11000000000000212, -0.685901822207009 
0.12000000000000241, -0.6858684973893502 
0.130000000000002, -0.6861887650382715 
0.1400000000000009, -0.6870133163981433 
0.1499999999999998, -0.6885162230757773 
0.1599999999999987, -0.6908818890530182 
0.1699999999999976, -0.6942808997719703 
0.1799999999999965, -0.6988292382645895 
0.1899999999999954, -0.7045258325786341 
0.1999999999999943, -0.7111754574523372 
0.2099999999999932, -0.7183360201814459 
0.2199999999999921, -0.7253629631111776 
0.229999999999991, -0.7315929283914123 
0.2399999999999899, -0.7365812678453957 
0.2499999999999888, -0.7402202177121814 
0.2599999999999877, -0.7426697592919205 
0.2699999999999866, -0.7442012310029009 
0.2799999999999855, -0.7450751709171516 
0.2899999999999844, -0.7454890939271623 
0.2999999999999833, -0.7455714910578545 
0.3099999999999822, -0.7453923544010284 
0.3199999999999811, -0.7449736779776125 
0.32999999999998, -0.744293665002737 
0.3399999999999789, -0.7432825986234979 
0.3499999999999778, -0.7418091944693368 
0.35999999999997667, -0.7396566340198627 
0.36999999999997557, -0.7364909694176671 
0.37999999999997447, -0.7318384953599977 
0.38999999999997337, -0.7251243717121002 
0.39999999999997227, -0.7158737731229232 
0.40999999999997117, -0.7041366107304832 
0.41999999999997006, -0.6908979312258047 
0.42999999999996896, -0.6779203230906429 
0.43999999999996786, -0.6669009696657093 
0.44999999999996676, -0.6586968434535754 
0.45999999999996566, -0.6532459987400869 
0.46999999999996456, -0.6499719217018821 
0.47999999999996346, -0.6481928003840319 
0.48999999999996235, -0.6473369411838269 
0.49999999999996125, -0.6469987112586936 
0.5099999999999602, -0.6469182335080499 
0.519999999999959, -0.646940029953879 
0.529999999999958, -0.6469747823892843 
0.5399999999999568, -0.6469709968286713 
0.5499999999999557, -0.646896318345081 
0.5599999999999546, -0.646726493713469 
0.5699999999999535, -0.6464403875850497 
0.5799999999999524, -0.6460202878138525 
0.5899999999999513, -0.6454567409927379 
0.5999999999999502, -0.6447555118686712 
0.6099999999999491, -0.6439417820847706 
0.619999999999948, -0.6430566604695858 
0.6299999999999469, -0.6421458911471446 
0.6399999999999458, -0.6412468829171769 
0.6499999999999447, -0.6403813661518654 
0.6599999999999436, -0.6395562885650519 
0.6699999999999425, -0.6387702662442012 
0.6799999999999414, -0.6380211114616243 
0.6899999999999403, -0.6373114359272694 
0.6999999999999392, -0.6366517552755933 
0.7099999999999381, -0.6360620239440149 
0.719999999999937, -0.6355726780626225 
0.7299999999999359, -0.6352256796589801 
0.7399999999999348, -0.6350754730814363 
0.7499999999999337, -0.6351895167100422 
0.7599999999999326, -0.6356481050362769 
0.7699999999999315, -0.6365433067841718 
0.7799999999999304, -0.6379766467737025 
0.7899999999999293, -0.6400542344412945 
0.7999999999999282, -0.6428761272887098 
0.8099999999999271, -0.6465142612502303 
0.819999999999926, -0.6509727283697101 
0.8299999999999249, -0.6561316319464096 
0.8399999999999238, -0.6616983536882489 
0.8499999999999227, -0.6672191727269892 
0.8599999999999216, -0.6721945229045524 
0.8699999999999205, -0.6762550661389659 
0.8799999999999194, -0.6792731886664586 
0.8899999999999183, -0.6813364045351028 
0.8999999999999172, -0.6826377073021888 
0.9099999999999161, -0.6833768202551134 
0.919999999999915, -0.6837111095950541 
0.9299999999999139, -0.6837445200040849 
0.9399999999999128, -0.6835321916304589 
0.9499999999999117, -0.6830863653974266 
0.9599999999999106, -0.6823770702041725 
0.9699999999999095, -0.681324569232314 
0.9799999999999084, -0.6797812466626675 
0.9899999999999073, -0.6775015514198581 
0.9999999999999062, -0.6741052874672167 
1.0099999999999052, -0.6690629216019188 
1.019999999999904, -0.6617802159879994 
1.029999999999903, -0.6518890418439357 
1.039999999999902, -0.639704615131405 
1.0499999999999008, -0.6264471076919954 
1.0599999999998997, -0.6138015911074002 
1.0699999999998986, -0.6031077026657905 
1.0799999999998975, -0.5949138174335661 
1.0899999999998964, -0.5890971078167784 
1.0999999999998953, -0.5852067882382 
1.1099999999998942, -0.5827325860267536 
1.119999999999893, -0.5812339672540279 
1.129999999999892, -0.5803755199562869 
1.1399999999998909, -0.5799194079294129 
1.1499999999998898, -0.5797044249670227 
1.1599999999998887, -0.5796245233757275 
1.1699999999998876, -0.5796111785813514 
1.1799999999998865, -0.5796204379363684 
1.1899999999998854, -0.5796243348006275 
1.1999999999998843, -0.5796060804551709 
1.2099999999998832, -0.5795582894464136 
1.219999999999882, -0.5794829960644671 
1.229999999999881, -0.5793914140646645 
1.2399999999998799, -0.5793010957961131 
1.2499999999998788, -0.5792294630994806 
1.2599999999998777, -0.5791854673971091 
1.2699999999998766, -0.5791634151362219 
1.2799999999998755, -0.579142733103607 
1.2899999999998744, -0.5790944198722326 
1.2999999999998733, -0.5789909025844227 
1.3099999999998722, -0.5788140203404768 
1.319999999999871, -0.5785577957020084 
1.32999999999987, -0.578226705446999 
1.3399999999998689, -0.577832667632982 
1.3499999999998678, -0.5773937611381406 
1.3599999999998666, -0.5769364101352515 
1.3699999999998655, -0.5765020466918246 
1.3799999999998644, -0.5761594394455425 
1.3899999999998633, -0.5760244040455966 
1.3999999999998622, -0.5762884640691586 
1.4099999999998611, -0.5772551623968547 
1.41999999999986, -0.5793727688663319 
1.429999999999859, -0.58322807436763 
1.4399999999998578, -0.5894268530494704 
1.4499999999998567, -0.5982738199565374 
1.4599999999998556, -0.6093081738427246 
1.4699999999998545, -0.6211120071635576 
1.4799999999998534, -0.6318858619403913 
1.4899999999998523, -0.6404431242329294 
1.4999999999998512, -0.6466051198336551 
1.5099999999998501, -0.6508114003419212 
1.519999999999849, -0.6536177325120565 
1.529999999999848, -0.6554680132215518 
1.5399999999998468, -0.6566670418840922 
1.5499999999998457, -0.6574138749072864 
1.5599999999998446, -0.6578354098387743 
1.5699999999998435, -0.658008822113941 
1.5799999999998424, -0.657974697815032 
1.5899999999998413, -0.6577437567231981 
1.5999999999998402, -0.6572993353853692 
1.6099999999998391, -0.6565979059343319 
1.619999999999838, -0.6555714362754419 
1.629999999999837, -0.6541379972855791 
1.6399999999998358, -0.6522277384100519 
1.6499999999998347, -0.6498236585118027 
1.6599999999998336, -0.6469980522132689 
1.6699999999998325, -0.6439132522709355 
1.6799999999998314, -0.64077562204617 
1.6899999999998303, -0.6377720473022281 
1.6999999999998292, -0.6350294805527132 
1.709999999999828, -0.6326106569426375 
1.719999999999827, -0.6305318436023204 
1.729999999999826, -0.6287842361941871 
1.7399999999998248, -0.6273494454073222 
1.7499999999998237, -0.6262076376697989 
1.7599999999998226, -0.6253404042908518 
1.7699999999998215, -0.6247308923041887 
1.7799999999998204, -0.624363083093597 
1.7899999999998193, -0.6242213231919089 
1.7999999999998182, -0.6242905799022478 
1.809999999999817, -0.6245574400723708 
1.819999999999816, -0.6250115653698918 
1.8299999999998149, -0.6256471010240261 
1.8399999999998138, -0.6264632976593993 
1.8499999999998127, -0.6274632534643514 
1.8599999999998116, -0.628649334019354 
1.8699999999998105, -0.6300140570246909 
1.8799999999998094, -0.6315270862019396 
1.8899999999998083, -0.6331231843593452 
1.8999999999998072, -0.6347007388150668 
1.909999999999806, -0.6361395465946069 
1.919999999999805, -0.6373342848863868 
1.9299999999998039, -0.6382244798829462 
1.9399999999998028, -0.638802122124306 
1.9499999999998017, -0.639096589444622 
1.9599999999998006, -0.639151556842356 
1.9699999999997995, -0.6390069658976633 
1.9799999999997984, -0.6386897143150133 
1.9899999999997973, -0.6382106869318376 
1.9999999999997962, -0.6375648444098201 
2.0099999999998173, -0.6367324198551363 
2.0199999999998384, -0.6356805950845997 
2.0299999999998595, -0.6343652472095738 
2.0399999999998806, -0.6327302174247627 
2.0499999999999017, -0.6306952735695457 
2.059999999999923, -0.6281162070801468 
2.069999999999944, -0.6247161329976614 
2.079999999999965, -0.6200797277895174 
2.089999999999986, -0.6139200929948024 
2.100000000000007, -0.6065956541679562 
2.1100000000000283, -0.5992362724147061 
2.1200000000000494, -0.5930702862466076 
2.1300000000000705, -0.5886938092058431 
2.1400000000000916, -0.5860052055771303 
2.1500000000001127, -0.5845655070814928 
2.160000000000134, -0.5839140740070515 
2.170000000000155, -0.5837004270431543 
2.180000000000176, -0.5836969059689529 
2.190000000000197, -0.5837688824691173 
2.2000000000002182, -0.5838410569845871 
2.2100000000002393, -0.5838717493433829 
2.2200000000002604, -0.5838360937200724 
2.2300000000002815, -0.5837162117524582 
2.2400000000003026, -0.5834966427514063 
2.2500000000003237, -0.5831641801481142 
2.260000000000345, -0.5827115845153349 
2.270000000000366, -0.5821436151851402 
2.280000000000387, -0.5814816702233563 
2.290000000000408, -0.5807623508174131 
2.3000000000004293, -0.5800282918601869 
2.3100000000004504, -0.5793153969556204 
2.3200000000004715, -0.5786435855984624 
2.3300000000004926, -0.5780153789717833 
2.3400000000005137, -0.5774214176327467 
2.3500000000005348, -0.5768487802546036 
2.360000000000556, -0.5762880754797639 
2.370000000000577, -0.5757375206486934 
2.380000000000598, -0.5752046293836024 
2.390000000000619, -0.5747072876911287 
2.4000000000006403, -0.5742758392981737 
2.4100000000006614, -0.5739571239819806 
2.4200000000006825, -0.5738208632547437 
2.4300000000007036, -0.5739684777513901 
2.4400000000007247, -0.5745441058387086 
2.450000000000746, -0.5757468019828458 
2.460000000000767, -0.5778407609936471 
2.470000000000788, -0.5811553867746643 
2.480000000000809, -0.5860572564630906 
2.49000000000083, -0.5928630866193837 
2.5000000000008513, -0.6016632057619072 
2.5100000000008724, -0.6120830693447523 
2.5200000000008935, -0.6231546691241822 
2.5300000000009146, -0.6335526958339968 
2.5400000000009357, -0.6421724537342102 
2.550000000000957, -0.648577515354972 
2.560000000000978, -0.6529565997105538 
2.570000000000999, -0.6557827449242344 
2.58000000000102, -0.6575292989875428 
2.5900000000010412, -0.6585555318812986 
2.6000000000010624, -0.6590994466539742 
2.6100000000010835, -0.659304939813418 
2.6200000000011046, -0.659248677986152 
2.6300000000011257, -0.6589571996128775 
2.6400000000011468, -0.6584138652657185 
2.650000000001168, -0.6575573720313215 
2.660000000001189, -0.6562747165430718 
2.67000000000121, -0.6543954752672823 
2.680000000001231, -0.6517033003111948 
2.6900000000012523, -0.6479901148515453 
2.7000000000012734, -0.6431669748673052 
2.7100000000012945, -0.6373869507042246 
2.7200000000013156, -0.6310701609536845 
2.7300000000013367, -0.6247690849512474 
2.740000000001358, -0.6189662986531754 
2.750000000001379, -0.6139520144862926 
2.7600000000014, -0.6098234142248882 
2.770000000001421, -0.606548228775164 
2.780000000001442, -0.6040306369911448 
2.7900000000014633, -0.6021548376187805 
2.8000000000014844, -0.600807287401393 
2.8100000000015055, -0.5998857906548268 
2.8200000000015266, -0.5993022419935351 
2.8300000000015477, -0.5989828597975893 
2.840000000001569, -0.5988675881388121 
2.85000000000159, -0.5989092384049787 
2.860000000001611, -0.599072549620035 
2.870000000001632, -0.5993332780485378 
2.8800000000016532, -0.5996773639803749 
2.8900000000016743, -0.6000999496649448 
2.9000000000016954, -0.6006034992345664 
2.9100000000017165, -0.6011937955751232 
2.9200000000017377, -0.6018728357969907 
2.9300000000017588, -0.6026292900767312 
2.94000000000178, -0.6034300938141947 
2.950000000001801, -0.6042191327787128 
2.960000000001822, -0.604927478842023 
2.970000000001843, -0.6054924145471559 
2.9800000000018643, -0.6058746158224323 
2.9900000000018854, -0.6060635156061522 
3.0000000000019065, -0.606070322336094 
3.0100000000019276, -0.6059159870571802 
3.0200000000019487, -0.6056212489493251 
3.03000000000197, -0.6052015209365493 
3.040000000001991, -0.6046662543730438 
3.050000000002012, -0.6040218905805403 
3.060000000002033, -0.6032783782041192 
3.070000000002054, -0.6024601252754151 
3.0800000000020753, -0.601621679995319 
3.0900000000020964, -0.6008635316508883 
3.1000000000021175, -0.6003294074957646 
3.1100000000021386, -0.6001435943083722 
3.1200000000021597, -0.6002493532468223 
3.130000000002181, -0.6002323839923663 
3.140000000002202, -0.5994443232588264 
3.150000000002223, -0.5975864011547333 
3.160000000002244, -0.5951207245995256 
3.1700000000022652, -0.5928657359969746 
3.1800000000022863, -0.591333967719576 
3.1900000000023074, -0.5905655245028039 
3.2000000000023285, -0.5903475765138169 
3.2100000000023496, -0.5904353793910412 
3.2200000000023707, -0.5906464840794567 
3.230000000002392, -0.5908700836280947 
3.240000000002413, -0.5910470518548754 
3.250000000002434, -0.5911480217995139 
3.260000000002455, -0.5911573276416093 
3.2700000000024763, -0.5910630245020261 
3.2800000000024974, -0.5908516436211311 
3.2900000000025185, -0.5905069323159094 
3.3000000000025396, -0.5900127106807328 
3.3100000000025607, -0.589359914817527 
3.3200000000025818, -0.5885558875237851 
3.330000000002603, -0.5876306541058973 
3.340000000002624, -0.5866340389317677 
3.350000000002645, -0.5856226526124011 
3.360000000002666, -0.5846436707852065 
3.3700000000026873, -0.5837246147259136 
3.3800000000027084, -0.5828730445173749 
3.3900000000027295, -0.5820835111553818 
3.4000000000027506, -0.5813465660488333 
3.4100000000027717, -0.5806559548726205 
3.420000000002793, -0.5800128172748578 
3.430000000002814, -0.5794277527098262 
3.440000000002835, -0.5789222614196947 
3.450000000002856, -0.5785307058749211 
3.460000000002877, -0.5783033018478494 
3.4700000000028983, -0.5783101860140812 
3.4800000000029194, -0.5786463615905613 
3.4900000000029405, -0.5794370980369218 
3.5000000000029616, -0.5808427839580935 
3.5100000000029827, -0.5830606672631965 
3.520000000003004, -0.5863174161848295 
3.530000000003025, -0.5908403460700258 
3.540000000003046, -0.5967888980616554 
3.550000000003067, -0.6041336449619863 
3.5600000000030882, -0.6125130409151852 
3.5700000000031094, -0.6211835511184673 
3.5800000000031305, -0.6292064412629774 
3.5900000000031516, -0.6358287058555943 
3.6000000000031727, -0.6407617387443078 
3.6100000000031938, -0.6441467311254225 
3.620000000003215, -0.6463277031876095 
3.630000000003236, -0.6476550490428071 
3.640000000003257, -0.6483994784495153 
3.650000000003278, -0.6487414480502374 
3.6600000000032993, -0.6487875563620764 
3.6700000000033204, -0.6485880996312794 
3.6800000000033415, -0.6481472723776469 
3.6900000000033626, -0.6474244977308491 
3.7000000000033837, -0.6463274396620113 
3.710000000003405, -0.6446993280963278 
3.720000000003426, -0.6423097008139431 
3.730000000003447, -0.63887178649149 
3.740000000003468, -0.6341239722475253 
3.750000000003489, -0.6279913250827395 
3.7600000000035103, -0.6207480095714722 
3.7700000000035314, -0.6130137761493912 
3.7800000000035525, -0.6055253684581166 
3.7900000000035736, -0.5988576014227862 
3.8000000000035947, -0.5932964744620721 
3.810000000003616, -0.5888796239659942 
3.820000000003637, -0.585500338456092 
3.830000000003658, -0.5829955172925612 
3.840000000003679, -0.5811966612448111 
3.8500000000037002, -0.57995243558034 
3.8600000000037213, -0.5791356494151614 
3.8700000000037424, -0.5786433651854338 
3.8800000000037635, -0.5783945681455068 
3.8900000000037847, -0.5783272584475421 
3.9000000000038058, -0.5783956585639483 
3.910000000003827, -0.5785678179213339 
3.920000000003848, -0.5788237555910253 
3.930000000003869, -0.5791540915793906 
3.94000000000389, -0.5795587020160735 
3.9500000000039113, -0.5800443397471706 
3.9600000000039324, -0.5806198052550375 
3.9700000000039535, -0.5812878563345099 
3.9800000000039746, -0.5820351215419414 
3.9900000000039957, -0.5828243504935988 
4.000000000004016, -0.5835952258924182 
4.010000000003993, -0.5842772114184187 
4.02000000000397, -0.5848096959857739 
4.030000000003946, -0.5851577595062663 
4.040000000003923, -0.5853148670377593 
4.0500000000039, -0.5852940750831135 
4.0600000000038765, -0.5851157323285239 
4.070000000003853, -0.5847980351548256 
4.08000000000383, -0.5843522337057397 
4.090000000003807, -0.5837815742159588 
4.100000000003783, -0.5830827238666485 
4.11000000000376, -0.5822490210028952 
4.120000000003737, -0.5812749921217284 
4.130000000003713, -0.5801595350158217 
4.14000000000369, -0.5788983172889629 
4.150000000003667, -0.5774428166928107 
4.1600000000036434, -0.5755986386382024 
4.17000000000362, -0.5729004178650059 
4.180000000003597, -0.5686911458320802 
4.1900000000035735, -0.5626723402608873 
4.20000000000355, -0.5555233528683847 
4.210000000003527, -0.5486366014598014 
4.220000000003504, -0.543138238449448 
4.23000000000348, -0.5393629513984027 
4.240000000003457, -0.5370623920928604 
4.250000000003434, -0.5357997314836925 
4.26000000000341, -0.5351822155483421 
4.270000000003387, -0.5349286625913624 
4.280000000003364, -0.5348595731652092 
4.2900000000033405, -0.5348674897456343 
4.300000000003317, -0.5348900591180799 
4.310000000003294, -0.5348908987953085 
4.320000000003271, -0.534847591676229 
4.330000000003247, -0.5347451482714725 
4.340000000003224, -0.5345736944869456 
4.350000000003201, -0.5343294929197506 
4.360000000003177, -0.5340179783314081 
4.370000000003154, -0.5336562886178663 
4.380000000003131, -0.5332720289519818 
4.390000000003107, -0.5328965543945439 
4.400000000003084, -0.5325548201313266 
4.410000000003061, -0.5322567860013626 
4.4200000000030375, -0.5319947932773823 
4.430000000003014, -0.5317479586175787 
4.440000000002991, -0.5314909561136201 
4.450000000002968, -0.5312026589622646 
4.460000000002944, -0.5308710834881885 
4.470000000002921, -0.5304941041086344 
4.480000000002898, -0.5300780007799273 
4.490000000002874, -0.5296365045544335 
4.500000000002851, -0.5291922713014158 
4.510000000002828, -0.5287820126531559 
4.520000000002804, -0.5284664759943699 
4.530000000002781, -0.528346887630069 
4.540000000002758, -0.528589581402969 
4.5500000000027345, -0.5294585651692316 
4.560000000002711, -0.5313475907466401 
4.570000000002688, -0.5347811535941631 
4.580000000002665, -0.5403128746685295 
4.590000000002641, -0.5482242373730715 
4.600000000002618, -0.5580550407391609 
4.610000000002595, -0.5683925736314871 
4.620000000002571, -0.5774912630670779 
4.630000000002548, -0.5843467196334664 
4.640000000002525, -0.5890290661061699 
4.6500000000025015, -0.5921322486024404 
4.660000000002478, -0.5942178356505619 
4.670000000002455, -0.5956490724739625 
4.6800000000024315, -0.5966352006329493 
4.690000000002408, -0.5972992714087222 
4.700000000002385, -0.597718254524703 
4.710000000002362, -0.5979412336839064 
4.720000000002338, -0.5979969729860193 
4.730000000002315, -0.5978970338982796 
4.740000000002292, -0.5976371799212745 
4.750000000002268, -0.5971988101189846 
4.760000000002245, -0.5965525822476032 
4.770000000002222, -0.5956670172561334 
4.7800000000021985, -0.5945237320232085 
4.790000000002175, -0.5931358532483183 
4.800000000002152, -0.5915588972301598 
4.810000000002129, -0.5898828332380102 
4.820000000002105, -0.5882064873483305 
4.830000000002082, -0.5866100024699485 
4.840000000002059, -0.5851408800763362 
4.850000000002035, -0.5838163210712827 
4.860000000002012, -0.582634542402057 
4.870000000001989, -0.5815868988049704 
4.880000000001965, -0.5806665881790889 
4.890000000001942, -0.5798734038301185 
4.900000000001919, -0.5792157352239122 
4.9100000000018955, -0.5787112102956363 
4.920000000001872, -0.5783869095724699 
