t, s[1].omega / s[0].omega 
0, -0.7299976801579655 
0.009999999999999995, -0.7297470726398675 
0.019999999999999934, -0.7294570370413406 
0.029999999999999874, -0.7291217942807243 
0.04000000000000012, -0.7287366536980074 
0.050000000000000405, -0.7283021252871597 
0.06000000000000069, -0.7278261229301249 
0.07000000000000098, -0.7273245556634339 
0.08000000000000126, -0.7268216982660232 
0.09000000000000155, -0.7263513984302925 
0.10000000000000184, -0.7259591482323948 
0.11000000000000212, -0.7257041151275132 
0.12000000000000241, -0.7256597508295317 
0.130000000000002, -0.7259116955068622 
0.1400000000000009, -0.726552341352426 
0.1499999999999998, -0.7276722593750417 
0.1599999999999987, -0.7293490404185072 
0.1699999999999976, -0.731633456759314 
0.1799999999999965, -0.7345317369479684 
0.1899999999999954, -0.7379832595653144 
0.1999999999999943, -0.7418382101329929 
0.2099999999999932, -0.7458504043043656 
0.2199999999999921, -0.7497078106734529 
0.229999999999991, -0.7531084881923802 
0.2399999999999899, -0.7558495274759881 
0.2499999999999888, -0.7578723388496733 
0.2599999999999877, -0.7592397775025017 
0.2699999999999866, -0.7600749108541931 
0.2799999999999855, -0.760505635712551 
0.2899999999999844, -0.7606348397013252 
0.2999999999999833, -0.7605318694942378 
0.3099999999999822, -0.7602343110206218 
0.3199999999999811, -0.7597522776932747 
0.32999999999998, -0.7590719192541661 
0.3399999999999789, -0.7581579283567315 
0.3499999999999778, -0.7569567975943043 
0.35999999999997667, -0.7554041226513998 
0.36999999999997557, -0.7534399228667513 
0.37999999999997447, -0.751033716408358 
0.38999999999997337, -0.7482143114614199 
0.39999999999997227, -0.7450936563368459 
0.40999999999997117, -0.7418819513911226 
0.41999999999997006, -0.7388954434483472 
0.42999999999996896, -0.7365129629514625 
0.43999999999996786, -0.7350252031530774 
0.44999999999996676, -0.7344711294253643 
0.45999999999996566, -0.7346359420017975 
0.46999999999996456, -0.7352005586937912 
0.47999999999996346, -0.735888518783295 
0.48999999999996235, -0.7365248977755565 
0.49999999999996125, -0.7370260590952896 
0.5099999999999602, -0.7373657119403305 
0.519999999999959, -0.737544121187861 
0.529999999999958, -0.7375676264396238 
0.5399999999999568, -0.7374366499143576 
0.5499999999999557, -0.7371386344388181 
0.5599999999999546, -0.7366435250637542 
0.5699999999999535, -0.7359015736327097 
0.5799999999999524, -0.7348459254198408 
0.5899999999999513, -0.7334047417365577 
0.5999999999999502, -0.7315264221161779 
0.6099999999999491, -0.7292127216775708 
0.619999999999948, -0.7265412387680603 
0.6299999999999469, -0.7236569863259745 
0.6399999999999458, -0.720733525310649 
0.6499999999999447, -0.7179281751251885 
0.6599999999999436, -0.7153556048800771 
0.6699999999999425, -0.7130844950484525 
0.6799999999999414, -0.7111472161720543 
0.6899999999999403, -0.7095515207545706 
0.6999999999999392, -0.7082889074340629 
0.7099999999999381, -0.7073392180892407 
0.719999999999937, -0.7066731358369961 
0.7299999999999359, -0.706254334345886 
0.7399999999999348, -0.7060422033857068 
0.7499999999999337, -0.7059951330363605 
0.7599999999999326, -0.7060737577202576 
0.7699999999999315, -0.7062435105067386 
0.7799999999999304, -0.7064761673444252 
0.7899999999999293, -0.7067504190027434 
0.7999999999999282, -0.7070515755817587 
0.8099999999999271, -0.7073702306586748 
0.819999999999926, -0.7076994500513617 
0.8299999999999249, -0.7080304448307777 
0.8399999999999238, -0.7083480186459716 
0.8499999999999227, -0.7086284886753875 
0.8599999999999216, -0.7088425017005658 
0.8699999999999205, -0.7089623315947234 
0.8799999999999194, -0.7089697619383223 
0.8899999999999183, -0.7088600780285474 
0.8999999999999172, -0.7086409030883863 
0.9099999999999161, -0.7083283377420712 
0.919999999999915, -0.7079439342003406 
0.9299999999999139, -0.7075147974969455 
0.9399999999999128, -0.7070775965907432 
0.9499999999999117, -0.706686476279257 
0.9599999999999106, -0.7064244202966876 
0.9699999999999095, -0.7064167485709217 
0.9799999999999084, -0.7068435827062292 
0.9899999999999073, -0.707945152745041 
0.9999999999999062, -0.710010099254815 
1.0099999999999052, -0.7133335931811713 
1.019999999999904, -0.7181326595372638 
1.029999999999903, -0.7244197413466161 
1.039999999999902, -0.7318755152597869 
1.0499999999999008, -0.739819598864984 
1.0599999999998997, -0.7473786691268942 
1.0699999999998986, -0.7538088980775154 
1.0799999999998975, -0.7587509961979054 
1.0899999999998964, -0.7622425141298906 
1.0999999999998953, -0.7645483602077958 
1.1099999999998942, -0.7659819039516368 
1.119999999999893, -0.7668069306457063 
1.129999999999892, -0.7672111694028703 
1.1399999999998909, -0.767313469633026 
1.1499999999998898, -0.7671784815838361 
1.1599999999998887, -0.7668277524988143 
1.1699999999998876, -0.7662440142479865 
1.1799999999998865, -0.765368009436723 
1.1899999999998854, -0.764087801994568 
1.1999999999998843, -0.7622218694167202 
1.2099999999998832, -0.759502727527005 
1.219999999999882, -0.7555819413421768 
1.229999999999881, -0.7500996486012532 
1.2399999999998799, -0.7428649767505626 
1.2499999999998788, -0.7341120850004761 
1.2599999999998777, -0.7246290796522741 
1.2699999999998766, -0.715536914472158 
1.2799999999998755, -0.7078145816624631 
1.2899999999998744, -0.7019495441390358 
1.2999999999998733, -0.6979220309681323 
1.3099999999998722, -0.695404388253566 
1.319999999999871, -0.6939751613757236 
1.32999999999987, -0.6932519349843034 
1.3399999999998689, -0.6929426645174602 
1.3499999999998678, -0.6928474930403539 
1.3599999999998666, -0.6928396592314658 
1.3699999999998655, -0.6928423474854049 
1.3799999999998644, -0.6928088930252774 
1.3899999999998633, -0.6927084098517728 
1.3999999999998622, -0.6925167103448195 
1.4099999999998611, -0.6922120114557212 
1.41999999999986, -0.6917751870896947 
1.429999999999859, -0.6911941080454534 
1.4399999999998578, -0.6904700991472346 
1.4499999999998567, -0.6896223472809684 
1.4599999999998556, -0.6886858984613405 
1.4699999999998545, -0.6877027702770093 
1.4799999999998534, -0.6867110080666949 
1.4899999999998523, -0.6857378309747089 
1.4999999999998512, -0.68479933615585 
1.5099999999998501, -0.6839048191578082 
1.519999999999849, -0.6830622161580786 
1.529999999999848, -0.6822822899464847 
1.5399999999998468, -0.6815809281213405 
1.5499999999998457, -0.6809799006298578 
1.5599999999998446, -0.6805065322011341 
1.5699999999998435, -0.6801925329946736 
1.5799999999998424, -0.6800721487871961 
1.5899999999998413, -0.6801799218846407 
1.5999999999998402, -0.6805485100324098 
1.6099999999998391, -0.6812069455591625 
1.619999999999838, -0.6821792897198816 
1.629999999999837, -0.6834828916008056 
1.6399999999998358, -0.6851246423511845 
1.6499999999998347, -0.6870932493599347 
1.6599999999998336, -0.6893466419305571 
1.6699999999998325, -0.6917974939653825 
1.6799999999998314, -0.6943064306641712 
1.6899999999998303, -0.6966965453134886 
1.6999999999998292, -0.6987941966818783 
1.709999999999828, -0.7004786804219989 
1.719999999999827, -0.7017096009563827 
1.729999999999826, -0.7025170192598785 
1.7399999999998248, -0.7029685913092552 
1.7499999999998237, -0.7031374728844006 
1.7599999999998226, -0.7030831815778974 
1.7699999999998215, -0.7028445283551601 
1.7799999999998204, -0.7024390792554411 
1.7899999999998193, -0.7018647312107349 
1.7999999999998182, -0.7011014023505175 
1.809999999999817, -0.7001126915634581 
1.819999999999816, -0.6988484468412691 
1.8299999999998149, -0.6972493592285796 
1.8399999999998138, -0.6952533026879099 
1.8499999999998127, -0.6928004417029932 
1.8599999999998116, -0.6898365979571097 
1.8699999999998105, -0.6863355193370504 
1.8799999999998094, -0.6823837601392498 
1.8899999999998083, -0.6783026630056949 
1.8999999999998072, -0.6746270557049681 
1.909999999999806, -0.6718422313737895 
1.919999999999805, -0.6701205347933575 
1.9299999999998039, -0.6693119917786449 
1.9399999999998028, -0.6691180088039473 
1.9499999999998017, -0.6692523224586601 
1.9599999999998006, -0.6695101313643601 
1.9699999999997995, -0.6697696785747265 
1.9799999999997984, -0.6699682909300686 
1.9899999999997973, -0.6700771181040315 
1.9999999999997962, -0.6700824334523022 
2.0099999999998173, -0.6699736846552231 
2.0199999999998384, -0.6697365115866798 
2.0299999999998595, -0.6693494698659272 
2.0399999999998806, -0.6687845205399354 
2.0499999999999017, -0.6680124410951618 
2.059999999999923, -0.6670138386098834 
2.069999999999944, -0.6657930717150864 
2.079999999999965, -0.6643874530555547 
2.089999999999986, -0.6628634708207979 
2.100000000000007, -0.6612997673490394 
2.1100000000000283, -0.6597668445074141 
2.1200000000000494, -0.6583147710373279 
2.1300000000000705, -0.6569723142278446 
2.1400000000000916, -0.6557533851193751 
2.1500000000001127, -0.654665011041385 
2.160000000000134, -0.6537133271062381 
2.170000000000155, -0.6529067154918118 
2.180000000000176, -0.6522566284029893 
2.190000000000197, -0.6517769623861472 
2.2000000000002182, -0.6514827400593528 
2.2100000000002393, -0.6513886971421772 
2.2200000000002604, -0.6515082394444008 
2.2300000000002815, -0.65185304770443 
2.2400000000003026, -0.6524333011207879 
2.2500000000003237, -0.6532580604561566 
2.260000000000345, -0.6543348410033201 
2.270000000000366, -0.655666918550297 
2.280000000000387, -0.6572467666176772 
2.290000000000408, -0.6590449906916165 
2.3000000000004293, -0.6609972941232456 
2.3100000000004504, -0.662997323707418 
2.3200000000004715, -0.6649065503777767 
2.3300000000004926, -0.6665856305520131 
2.3400000000005137, -0.6679340691538034 
2.3500000000005348, -0.6689136150031698 
2.360000000000556, -0.6695425952232135 
2.370000000000577, -0.6698710719883808 
2.380000000000598, -0.6699552045848154 
2.390000000000619, -0.6698410546518192 
2.4000000000006403, -0.6695578515672221 
2.4100000000006614, -0.6691166365250161 
2.4200000000006825, -0.6685107225892029 
2.4300000000007036, -0.6677161279846849 
2.4400000000007247, -0.6666914334097499 
2.450000000000746, -0.6653770186188864 
2.460000000000767, -0.6636931850872683 
2.470000000000788, -0.6615354388610926 
2.480000000000809, -0.6587665090811391 
2.49000000000083, -0.6552197994062129 
2.5000000000008513, -0.6507651672766469 
2.5100000000008724, -0.6454864259358052 
2.5200000000008935, -0.6398599400344983 
2.5300000000009146, -0.6346537038884394 
2.5400000000009357, -0.6305247320642409 
2.550000000000957, -0.6277094603147746 
2.560000000000978, -0.6260552331194067 
2.570000000000999, -0.6252355646308252 
2.58000000000102, -0.6249280477332867 
2.5900000000010412, -0.6248897889323369 
2.6000000000010624, -0.6249634989186734 
2.6100000000010835, -0.6250568523749572 
2.6200000000011046, -0.6251187459223144 
2.6300000000011257, -0.6251206842266563 
2.6400000000011468, -0.6250443210368947 
2.650000000001168, -0.6248740580978567 
2.660000000001189, -0.6245936951362151 
2.67000000000121, -0.6241868313077636 
2.680000000001231, -0.6236410217503228 
2.6900000000012523, -0.6229547160853057 
2.7000000000012734, -0.6221436716195281 
2.7100000000012945, -0.6212418807022222 
2.7200000000013156, -0.6202942889159994 
2.7300000000013367, -0.6193444210687826 
2.740000000001358, -0.6184239685561767 
2.750000000001379, -0.6175493682176894 
2.7600000000014, -0.6167251471605744 
2.770000000001421, -0.6159504009735189 
2.780000000001442, -0.6152248460618734 
2.7900000000014633, -0.614552835550949 
2.8000000000014844, -0.6139455210106066 
2.8100000000015055, -0.6134220602677446 
2.8200000000015266, -0.6130106054882261 
2.8300000000015477, -0.6127493478216782 
2.840000000001569, -0.6126875509783898 
2.85000000000159, -0.6128863643014835 
2.860000000001611, -0.6134191501386766 
2.870000000001632, -0.6143708674401469 
2.8800000000016532, -0.6158354356512723 
2.8900000000016743, -0.6179087003159337 
2.9000000000016954, -0.6206727366000643 
2.9100000000017165, -0.6241661006738549 
2.9200000000017377, -0.6283382583917734 
2.9300000000017588, -0.6330009620963872 
2.94000000000178, -0.6378137774432859 
2.950000000001801, -0.6423484811634778 
2.960000000001822, -0.646227209459697 
2.970000000001843, -0.6492483170863622 
2.9800000000018643, -0.6514109911614006 
2.9900000000018854, -0.6528448468111265 
3.0000000000019065, -0.6537189517867282 
3.0100000000019276, -0.654183176310551 
3.0200000000019487, -0.6543465988403651 
3.03000000000197, -0.6542764844651909 
3.040000000001991, -0.6540032091949497 
3.050000000002012, -0.6535235072588501 
3.060000000002033, -0.6527989123258516 
3.070000000002054, -0.6517481624241432 
3.0800000000020753, -0.6502337658469469 
3.0900000000020964, -0.6480469513585294 
3.1000000000021175, -0.6449060408294127 
3.1100000000021386, -0.6405017374917746 
3.1200000000021597, -0.6346292007313437 
3.130000000002181, -0.6273887700273162 
3.140000000002202, -0.6193075014158034 
3.150000000002223, -0.611206268682318 
3.160000000002244, -0.6038662147601102 
3.1700000000022652, -0.5977624451912621 
3.1800000000022863, -0.5930215174995925 
3.1900000000023074, -0.5895313604359007 
3.2000000000023285, -0.5870729408830619 
3.2100000000023496, -0.58540962853904 
3.2200000000023707, -0.584330842495998 
3.230000000002392, -0.5836664538435438 
3.240000000002413, -0.5832867286361252 
3.250000000002434, -0.5830965581600418 
3.260000000002455, -0.5830282698869029 
3.2700000000024763, -0.5830349199557312 
3.2800000000024974, -0.5830848605755167 
3.2900000000025185, -0.5831578761431955 
3.3000000000025396, -0.5832428625839308 
3.3100000000025607, -0.5833366201050049 
3.3200000000025818, -0.5834427706525223 
3.330000000002603, -0.5835693977400134 
3.340000000002624, -0.5837243836166326 
3.350000000002645, -0.5839089707176137 
3.360000000002666, -0.5841121376045911 
3.3700000000026873, -0.5843093338227269 
3.3800000000027084, -0.5844675330886211 
3.3900000000027295, -0.5845547255679786 
3.4000000000027506, -0.5845487226797587 
3.4100000000027717, -0.5844407810619028 
3.420000000002793, -0.5842335999616837 
3.430000000002814, -0.5839366857402696 
3.440000000002835, -0.5835624465549908 
3.450000000002856, -0.5831248720994624 
3.460000000002877, -0.5826413769062018 
3.4700000000028983, -0.582138108706717 
3.4800000000029194, -0.5816593635554878 
3.4900000000029405, -0.5812819085396301 
3.5000000000029616, -0.5811337583919133 
3.5100000000029827, -0.5814120064207638 
3.520000000003004, -0.5823823979032471 
3.530000000003025, -0.5843249905216897 
3.540000000003046, -0.5873868770218925 
3.550000000003067, -0.5913737439289795 
3.5600000000030882, -0.5956762282182415 
3.5700000000031094, -0.5995493290328426 
3.5800000000031305, -0.6025637591245108 
3.5900000000031516, -0.6047423978247816 
3.6000000000031727, -0.606322171827673 
3.6100000000031938, -0.6075115147340931 
3.620000000003215, -0.6084259505050305 
3.630000000003236, -0.6091205988534043 
3.640000000003257, -0.60962669578668 
3.650000000003278, -0.6099680140184545 
3.6600000000032993, -0.6101641201854069 
3.6700000000033204, -0.6102289832674128 
3.6800000000033415, -0.6101689147930458 
3.6900000000033626, -0.6099810355901802 
3.7000000000033837, -0.6096527359887043 
3.710000000003405, -0.6091629878871154 
3.720000000003426, -0.6084870415314151 
3.730000000003447, -0.6076058699431914 
3.740000000003468, -0.6065192376429113 
3.750000000003489, -0.6052565284979172 
3.7600000000035103, -0.6038768175087965 
3.7700000000035314, -0.6024549056303788 
3.7800000000035525, -0.6010606582285765 
3.7900000000035736, -0.599743760716832 
3.8000000000035947, -0.598530168667281 
3.810000000003616, -0.5974278387299236 
3.820000000003637, -0.5964357151801751 
3.830000000003658, -0.5955514522915373 
3.840000000003679, -0.5947762890393953 
3.8500000000037002, -0.5941174562936166 
3.8600000000037213, -0.5935891056200486 
3.8700000000037424, -0.5932125680358988 
3.8800000000037635, -0.5930163891828701 
3.8900000000037847, -0.5930363421841223 
3.9000000000038058, -0.5933155033808866 
3.910000000003827, -0.5939043554629072 
3.920000000003848, -0.5948605740403616 
3.930000000003869, -0.5962474698087715 
3.94000000000389, -0.5981288789647796 
3.9500000000039113, -0.6005568287750618 
3.9600000000039324, -0.6035477817457531 
3.9700000000039535, -0.6070469107345675 
3.9800000000039746, -0.6108920365994541 
3.9900000000039957, -0.6148070904572567 
4.000000000004016, -0.6184570986007715 
4.010000000003993, -0.621555220185589 
4.02000000000397, -0.6239542711216284 
4.030000000003946, -0.6256600347377952 
4.040000000003923, -0.6267756540864208 
4.0500000000039, -0.6274327730005066 
4.0600000000038765, -0.6277471783447957 
4.070000000003853, -0.6278018416115776 
4.08000000000383, -0.6276451322568771 
4.090000000003807, -0.627293217533843 
4.100000000003783, -0.6267306238014518 
4.11000000000376, -0.6259061810185782 
4.120000000003737, -0.6247231491764453 
4.130000000003713, -0.6230242936905602 
4.14000000000369, -0.6205785048713526 
4.150000000003667, -0.6170895075478902 
4.1600000000036434, -0.6122661084841132 
4.17000000000362, -0.6059852139162603 
4.180000000003597, -0.5984886305239103 
4.1900000000035735, -0.5904287104632855 
4.20000000000355, -0.5826407221986368 
4.210000000003527, -0.5758013957034546 
4.220000000003504, -0.5702427104985845 
4.23000000000348, -0.5659849115612899 
4.240000000003457, -0.5628680908939504 
4.250000000003434, -0.5606694303015025 
4.26000000000341, -0.5591710591756178 
4.270000000003387, -0.5581881941348115 
4.280000000003364, -0.5575753223667722 
4.2900000000033405, -0.5572228911121967 
4.300000000003317, -0.557051000183415 
4.310000000003294, -0.5570029475315579 
4.320000000003271, -0.5570397213964744 
4.330000000003247, -0.5571357965541571 
4.340000000003224, -0.5572762690910718 
4.350000000003201, -0.5574550942328108 
4.360000000003177, -0.5576737902127921 
4.370000000003154, -0.5579394892049978 
4.380000000003131, -0.5582610516940728 
4.390000000003107, -0.5586427018300169 
4.400000000003084, -0.5590764856058421 
4.410000000003061, -0.5595370240331408 
4.4200000000030375, -0.5599827475512581 
4.430000000003014, -0.5603651909137073 
4.440000000002991, -0.5606424997928106 
4.450000000002968, -0.5607896273026627 
4.460000000002944, -0.5608001456471052 
4.470000000002921, -0.5606808283284614 
4.480000000002898, -0.5604438641652227 
4.490000000002874, -0.5601006698177909 
4.500000000002851, -0.5596586132098721 
4.510000000002828, -0.5591202527859852 
4.520000000002804, -0.5584843204231935 
4.530000000002781, -0.5577478015428837 
4.540000000002758, -0.5569081095383743 
4.5500000000027345, -0.5559623891308707 
4.560000000002711, -0.5548962216325314 
4.570000000002688, -0.5536480226492241 
4.580000000002665, -0.5520425437496052 
4.590000000002641, -0.5497421666417306 
4.600000000002618, -0.5463625745565384 
4.610000000002595, -0.5418355025849843 
4.620000000002571, -0.5366952811555836 
4.630000000002548, -0.5318302075163073 
4.640000000002525, -0.5279197146762716 
4.6500000000025015, -0.5251663237767411 
4.660000000002478, -0.5234208602113173 
4.670000000002455, -0.5224088437425792 
4.6800000000024315, -0.5218722515642671 
4.690000000002408, -0.5216176449054639 
4.700000000002385, -0.5215156102717864 
4.710000000002362, -0.5214848965466578 
4.720000000002338, -0.5214760781443062 
4.730000000002315, -0.5214591349592788 
4.740000000002292, -0.5214153018122694 
4.750000000002268, -0.5213325199921635 
4.760000000002245, -0.5212038153621393 
4.770000000002222, -0.5210279354251763 
4.7800000000021985, -0.520811130259036 
4.790000000002175, -0.5205681568227791 
4.800000000002152, -0.5203203095672049 
4.810000000002129, -0.5200896122948478 
4.820000000002105, -0.5198909679007835 
4.830000000002082, -0.5197260316846125 
4.840000000002059, -0.5195821213395511 
4.850000000002035, -0.5194368571812257 
4.860000000002012, -0.5192660963385266 
4.870000000001989, -0.5190510936052257 
4.880000000001965, -0.5187819221489173 
4.890000000001942, -0.5184570359716724 
4.900000000001919, -0.5180810045419268 
4.9100000000018955, -0.5176626931146984 
4.920000000001872, -0.5172153045943938 
