t, s[1].omega / s[0].omega 
0, -1.6798883818201502 
0.009999999999999995, -1.6667087645066552 
0.019999999999999934, -1.6523590702246955 
0.029999999999999874, -1.6437959429636906 
0.04000000000000012, -1.6436276540561277 
0.050000000000000405, -1.6470319852094586 
0.06000000000000069, -1.6499333113760213 
0.07000000000000098, -1.6515254502723138 
0.08000000000000126, -1.6521556126456989 
0.09000000000000155, -1.6521839903275244 
0.10000000000000184, -1.6518120633792879 
0.11000000000000212, -1.6511711678616987 
0.12000000000000241, -1.6504883578349532 
0.130000000000002, -1.6502362602270768 
0.1400000000000009, -1.6509339101505536 
0.1499999999999998, -1.652577755925557 
0.1599999999999987, -1.6546016214065993 
0.1699999999999976, -1.6564515174467576 
0.1799999999999965, -1.6578685861812616 
0.1899999999999954, -1.6587960847603707 
0.1999999999999943, -1.6592515652675126 
0.2099999999999932, -1.6592645739271905 
0.2199999999999921, -1.6588544785509594 
0.229999999999991, -1.6580252371685744 
0.2399999999999899, -1.656769640453413 
0.2499999999999888, -1.6550859643166849 
0.2599999999999877, -1.6530209222766885 
0.2699999999999866, -1.650760324503808 
0.2799999999999855, -1.648722272976275 
0.2899999999999844, -1.6474108736927406 
0.2999999999999833, -1.6469529263523222 
0.3099999999999822, -1.6469710735478422 
0.3199999999999811, -1.6470162834184507 
0.32999999999998, -1.646833624126641 
0.3399999999999789, -1.6462744893956807 
0.3499999999999778, -1.6451324590653518 
0.35999999999997667, -1.643015522258071 
0.36999999999997557, -1.6393676739265826 
0.37999999999997447, -1.6342589139365526 
0.38999999999997337, -1.6308490900183403 
0.39999999999997227, -1.6356582997553157 
0.40999999999997117, -1.6494531997429411 
0.41999999999997006, -1.6644353857189305 
0.42999999999996896, -1.6751298562891663 
0.43999999999996786, -1.6813304954328767 
0.44999999999996676, -1.684533667939495 
0.45999999999996566, -1.6860047346723133 
0.46999999999996456, -1.6865044967713012 
0.47999999999996346, -1.686444698578096 
0.48999999999996235, -1.6860556344318394 
0.49999999999996125, -1.685504312326642 
0.5099999999999602, -1.6849516523401662 
0.519999999999959, -1.6845298413409506 
0.529999999999958, -1.6842930221009886 
0.5399999999999568, -1.6842265313115998 
0.5499999999999557, -1.6842691177142979 
0.5599999999999546, -1.6843087952318059 
0.5699999999999535, -1.6842047829713067 
0.5799999999999524, -1.6838101747079364 
0.5899999999999513, -1.6829403237448197 
0.5999999999999502, -1.6812932274664316 
0.6099999999999491, -1.678341691892332 
0.619999999999948, -1.6732294353241897 
0.6299999999999469, -1.664847003691332 
0.6399999999999458, -1.652685512501859 
0.6499999999999447, -1.6391179554969653 
0.6599999999999436, -1.630127771633365 
0.6699999999999425, -1.6287942084207934 
0.6799999999999414, -1.6314184750431415 
0.6899999999999403, -1.634033478651186 
0.6999999999999392, -1.635555798958558 
0.7099999999999381, -1.6361802903347775 
0.719999999999937, -1.6362163733775124 
0.7299999999999359, -1.6358466188695284 
0.7399999999999348, -1.63518295415133 
0.7499999999999337, -1.6344245919049178 
0.7599999999999326, -1.6340503783174252 
0.7699999999999315, -1.6347040167028062 
0.7799999999999304, -1.6365420487716658 
0.7899999999999293, -1.6389735086581911 
0.7999999999999282, -1.6412877950087914 
0.8099999999999271, -1.6431174560665394 
0.819999999999926, -1.6443783902184606 
0.8299999999999249, -1.6451012322291798 
0.8399999999999238, -1.6453406291719237 
0.8499999999999227, -1.6451432273614954 
0.8599999999999216, -1.6445401031004816 
0.8699999999999205, -1.6435499154806916 
0.8799999999999194, -1.642191455260262 
0.8899999999999183, -1.640511175102621 
0.8999999999999172, -1.638637908234087 
0.9099999999999161, -1.6368550850824373 
0.919999999999915, -1.6355598891056924 
0.9299999999999139, -1.6349639057497007 
0.9399999999999128, -1.6348652244738144 
0.9499999999999117, -1.6348792981810338 
0.9599999999999106, -1.634728917069435 
0.9699999999999095, -1.6342446084983546 
0.9799999999999084, -1.6332233063043258 
0.9899999999999073, -1.6312738650139544 
0.9999999999999062, -1.6276934901836366 
1.0099999999999052, -1.6217286222816631 
1.019999999999904, -1.6144619987666549 
1.029999999999903, -1.612124224204545 
1.039999999999902, -1.6214576559219687 
1.0499999999999008, -1.6378538111252738 
1.0599999999998997, -1.651921791747259 
1.0699999999998986, -1.6606147208123776 
1.0799999999998975, -1.665192822310038 
1.0899999999998964, -1.667364055156359 
1.0999999999998953, -1.6682307363802675 
1.1099999999998942, -1.6683820808190124 
1.119999999999893, -1.6681238880764373 
1.129999999999892, -1.6676468894095897 
1.1399999999998909, -1.6671283624274476 
1.1499999999998898, -1.6667435174541219 
1.1599999999998887, -1.6665882801976217 
1.1699999999998876, -1.6666389030240663 
1.1799999999998865, -1.666808118157693 
1.1899999999998854, -1.6669888980823326 
1.1999999999998843, -1.6670614709133507 
1.2099999999998832, -1.6669042516658241 
1.219999999999882, -1.6663872014098366 
1.229999999999881, -1.6653328219597014 
1.2399999999998799, -1.663461588739878 
1.2499999999998788, -1.6603403347145516 
1.2599999999998777, -1.6553740136160333 
1.2699999999998766, -1.6479912569433748 
1.2799999999998755, -1.6383823643334339 
1.2899999999998744, -1.6287926036861697 
1.2999999999998733, -1.6229966181749578 
1.3099999999998722, -1.6220946069861366 
1.319999999999871, -1.6235107767030386 
1.32999999999987, -1.624938514460619 
1.3399999999998689, -1.6257236558175534 
1.3499999999998678, -1.6259269277936148 
1.3599999999998666, -1.625684700442942 
1.3699999999998655, -1.6250658824743234 
1.3799999999998644, -1.6241369157355632 
1.3899999999998633, -1.623188246521297 
1.3999999999998622, -1.623022523181244 
1.4099999999998611, -1.6246242339461276 
1.41999999999986, -1.6279799501285424 
1.429999999999859, -1.6319390166832353 
1.4399999999998578, -1.6354344070834572 
1.4499999999998567, -1.6380545373134232 
1.4599999999998556, -1.6398024584324147 
1.4699999999998545, -1.6408120236363213 
1.4799999999998534, -1.6412242653599105 
1.4899999999998523, -1.6411532613873288 
1.4999999999998512, -1.6406836100613145 
1.5099999999998501, -1.6398801737324 
1.519999999999849, -1.6388057885744416 
1.529999999999848, -1.637544188502524 
1.5399999999998468, -1.6362291233280017 
1.5499999999998457, -1.6350701772347391 
1.5599999999998446, -1.6342952787747937 
1.5699999999998435, -1.633964631832989 
1.5799999999998424, -1.6338901042706149 
1.5899999999998413, -1.6338030041975653 
1.5999999999998402, -1.633495923226834 
1.6099999999998391, -1.6327834738744673 
1.619999999999838, -1.6313672018000305 
1.629999999999837, -1.6286485479227193 
1.6399999999998358, -1.6235156633697734 
1.6499999999998347, -1.6145249900767085 
1.6599999999998336, -1.6020913012295612 
1.6699999999998325, -1.593090547213397 
1.6799999999998314, -1.596847053095153 
1.6899999999998303, -1.6101591865278646 
1.6999999999998292, -1.622644503728101 
1.709999999999828, -1.6303630257454955 
1.719999999999827, -1.6343186662399798 
1.729999999999826, -1.6361175987262253 
1.7399999999998248, -1.6367738075651517 
1.7499999999998237, -1.6368077886147756 
1.7599999999998226, -1.6364842683854453 
1.7699999999998215, -1.635986275245281 
1.7799999999998204, -1.6355256232270339 
1.7899999999998193, -1.6353372137464546 
1.7999999999998182, -1.635531687714133 
1.809999999999817, -1.6360106803722414 
1.819999999999816, -1.6365830385047642 
1.8299999999998149, -1.637087486182896 
1.8399999999998138, -1.6374099638242394 
1.8499999999998127, -1.637464769875859 
1.8599999999998116, -1.6371750846885917 
1.8699999999998105, -1.6364512723192477 
1.8799999999998094, -1.6351720616509478 
1.8899999999998083, -1.6331748819630412 
1.8999999999998072, -1.6302647071303504 
1.909999999999806, -1.6262770256151646 
1.919999999999805, -1.6212844884594422 
1.9299999999998039, -1.61599742405556 
1.9399999999998028, -1.6118842647759828 
1.9499999999998017, -1.6100598815432812 
1.9599999999998006, -1.6100429993736731 
1.9699999999997995, -1.6105955298941965 
1.9799999999997984, -1.6109822191511038 
1.9899999999997973, -1.611006182420099 
1.9999999999997962, -1.6106400955073954 
2.0099999999998173, -1.609830745057208 
2.0199999999998384, -1.608475763265392 
2.0299999999998595, -1.6066265762518892 
2.0399999999998806, -1.6051447699935544 
2.0499999999999017, -1.6062803205959022 
2.059999999999923, -1.6118269246198633 
2.069999999999944, -1.620199933964967 
2.079999999999965, -1.6282131014962402 
2.089999999999986, -1.6342117394986584 
2.100000000000007, -1.6381186782660204 
2.1100000000000283, -1.6404114774840068 
2.1200000000000494, -1.6415825526787682 
2.1300000000000705, -1.6419994356280867 
2.1400000000000916, -1.6419071323719592 
2.1500000000001127, -1.641466885906116 
2.160000000000134, -1.6408009717555945 
2.170000000000155, -1.6400263152963703 
2.180000000000176, -1.639260486599273 
2.190000000000197, -1.6386113789233936 
2.2000000000002182, -1.6381683126994893 
2.2100000000002393, -1.6379591421515252 
2.2200000000002604, -1.6378954373485268 
2.2300000000002815, -1.6378078734606665 
2.2400000000003026, -1.6375233154661015 
2.2500000000003237, -1.636863225614731 
2.260000000000345, -1.635557288537808 
2.270000000000366, -1.6331000319437265 
2.280000000000387, -1.628555633213254 
2.290000000000408, -1.6204298477923218 
2.3000000000004293, -1.6072602921066221 
2.3100000000004504, -1.5903365784354055 
2.3200000000004715, -1.5768930533773868 
2.3300000000004926, -1.5740186296999439 
2.3400000000005137, -1.5786591699175814 
2.3500000000005348, -1.584003458114664 
2.360000000000556, -1.587440438002227 
2.370000000000577, -1.5891753826445734 
2.380000000000598, -1.5898591540795042 
2.390000000000619, -1.5899246446585986 
2.4000000000006403, -1.5895969725197967 
2.4100000000006614, -1.5890173104186542 
2.4200000000006825, -1.588390222028892 
2.4300000000007036, -1.588102722521469 
2.4400000000007247, -1.5885930128850105 
2.450000000000746, -1.5899317192424305 
2.460000000000767, -1.5917155229838102 
2.470000000000788, -1.5934613834574296 
2.480000000000809, -1.594888299010108 
2.49000000000083, -1.5958973078972822 
2.5000000000008513, -1.596475635586519 
2.5100000000008724, -1.59663756078819 
2.5200000000008935, -1.5963989855786458 
2.5300000000009146, -1.5957688338402736 
2.5400000000009357, -1.5947493996911573 
2.550000000000957, -1.593345067604385 
2.560000000000978, -1.5915847009242203 
2.570000000000999, -1.5895689999537463 
2.58000000000102, -1.5875433332981597 
2.5900000000010412, -1.5859074032274918 
2.6000000000010624, -1.5849876025261782 
2.6100000000010835, -1.5847225678128984 
2.6200000000011046, -1.5847432024597592 
2.6300000000011257, -1.5847100977249982 
2.6400000000011468, -1.5844267677493604 
2.650000000001168, -1.5837379036015917 
2.660000000001189, -1.5823868507978518 
2.67000000000121, -1.579871879275626 
2.680000000001231, -1.575372499032911 
2.6900000000012523, -1.5682806834740721 
2.7000000000012734, -1.5606109784371318 
2.7100000000012945, -1.5595364041768307 
2.7200000000013156, -1.5703295961433066 
2.7300000000013367, -1.586776867869594 
2.740000000001358, -1.6002096739479743 
2.750000000001379, -1.6083709209742945 
2.7600000000014, -1.6126460551790562 
2.770000000001421, -1.6146669873960668 
2.780000000001442, -1.6154656445728173 
2.7900000000014633, -1.6155907294001672 
2.8000000000014844, -1.61532751622624 
2.8100000000015055, -1.6148586269621823 
2.8200000000015266, -1.6143661807457677 
2.8300000000015477, -1.6140468207883487 
2.840000000001569, -1.6140188692575628 
2.85000000000159, -1.6142483136693002 
2.860000000001611, -1.614609240619234 
2.870000000001632, -1.6149694684296332 
2.8800000000016532, -1.6152130092389534 
2.8900000000016743, -1.6152385687635173 
2.9000000000016954, -1.6149518670973524 
2.9100000000017165, -1.6142451035783238 
2.9200000000017377, -1.6129723615787015 
2.9300000000017588, -1.6109326727979636 
2.94000000000178, -1.6078715997420425 
2.950000000001801, -1.6035342427404484 
2.960000000001822, -1.597862744204029 
2.970000000001843, -1.5914473145600767 
2.9800000000018643, -1.5858936306016014 
2.9900000000018854, -1.5829062272837933 
3.0000000000019065, -1.5824550339573018 
3.0100000000019276, -1.5830957150183809 
3.0200000000019487, -1.5837212352246972 
3.03000000000197, -1.5839771113849124 
3.040000000001991, -1.5838337073861999 
3.050000000002012, -1.5832883300395522 
3.060000000002033, -1.5822824288138404 
3.070000000002054, -1.5807786817381875 
3.0800000000020753, -1.5791305248696925 
3.0900000000020964, -1.5787530454108316 
3.1000000000021175, -1.5817830747447712 
3.1100000000021386, -1.5884965248112155 
3.1200000000021597, -1.5964563926042081 
3.130000000002181, -1.6032797671949806 
3.140000000002202, -1.6081596399015254 
3.150000000002223, -1.6112739016746975 
3.160000000002244, -1.613060622258867 
3.1700000000022652, -1.6139182475559597 
3.1800000000022863, -1.6141391828547238 
3.1900000000023074, -1.6139212646038632 
3.2000000000023285, -1.6134017902120692 
3.2100000000023496, -1.6126952908677807 
3.2200000000023707, -1.6119174276193462 
3.230000000002392, -1.6111824545249085 
3.240000000002413, -1.610591394693748 
3.250000000002434, -1.6102184241723307 
3.260000000002455, -1.6100635216598989 
3.2700000000024763, -1.6100173101408686 
3.2800000000024974, -1.6099122796018346 
3.2900000000025185, -1.6095846906202058 
3.3000000000025396, -1.608856495148864 
3.3100000000025607, -1.6074485745859453 
3.3200000000025818, -1.6048492005665527 
3.330000000002603, -1.6001494246711556 
3.340000000002624, -1.5919736402968447 
3.350000000002645, -1.5790746597918752 
3.360000000002666, -1.562665168857046 
3.3700000000026873, -1.5490006398784737 
3.3800000000027084, -1.5445670807436649 
3.3900000000027295, -1.5475079840999084 
3.4000000000027506, -1.5519076371835898 
3.4100000000027717, -1.5549772800914026 
3.420000000002793, -1.5565952892135024 
3.430000000002814, -1.557249352282635 
3.440000000002835, -1.5573104847185673 
3.450000000002856, -1.5569767513697146 
3.460000000002877, -1.556365120956452 
3.4700000000028983, -1.5556508909432252 
3.4800000000029194, -1.5552284255213304 
3.4900000000029405, -1.5556692827755232 
3.5000000000029616, -1.5572466702843653 
3.5100000000029827, -1.5595820487833247 
3.520000000003004, -1.5620190152536517 
3.530000000003025, -1.564109252826042 
3.540000000003046, -1.5656837643665769 
3.550000000003067, -1.5667273047186523 
3.5600000000030882, -1.5672794143380329 
3.5700000000031094, -1.5673899241286056 
3.5800000000031305, -1.5671036542484913 
3.5900000000031516, -1.5664578265290525 
3.6000000000031727, -1.5654870843185915 
3.6100000000031938, -1.564236161726868 
3.620000000003215, -1.5627811808042422 
3.630000000003236, -1.5612610053250062 
3.640000000003257, -1.5599017860629982 
3.650000000003278, -1.5589558525999192 
3.6600000000032993, -1.5585149546949812 
3.6700000000033204, -1.5584112259510816 
3.6800000000033415, -1.55836850565371 
3.6900000000033626, -1.5581683591572804 
3.7000000000033837, -1.5576463033649013 
3.710000000003405, -1.5565864414659862 
3.720000000003426, -1.5545769652038641 
3.730000000003447, -1.5508206786984418 
3.740000000003468, -1.544000144258673 
3.750000000003489, -1.532865813805707 
3.7600000000035103, -1.519055536265219 
3.7700000000035314, -1.5103503965013179 
3.7800000000035525, -1.5139244350448264 
3.7900000000035736, -1.5253487191412216 
3.8000000000035947, -1.5359601082502434 
3.810000000003616, -1.542649394360339 
3.820000000003637, -1.5461682109618518 
3.830000000003658, -1.5478062036522957 
3.840000000003679, -1.5484132112155478 
3.8500000000037002, -1.54843852472002 
3.8600000000037213, -1.5481121704419885 
3.8700000000037424, -1.5475932335366074 
3.8800000000037635, -1.5470886900991339 
3.8900000000037847, -1.5468948880265934 
3.9000000000038058, -1.5472533494026632 
3.910000000003827, -1.5481341094823686 
3.920000000003848, -1.5492695805044876 
3.930000000003869, -1.550379334115365 
3.94000000000389, -1.5512868618740072 
3.9500000000039113, -1.5519041693583377 
3.9600000000039324, -1.5521902214368537 
3.9700000000039535, -1.5521227640885948 
3.9800000000039746, -1.5516828451557414 
3.9900000000039957, -1.5508482228815235 
4.000000000004016, -1.5495937192006541 
4.010000000003993, -1.5479000079770509 
4.02000000000397, -1.545778644481216 
4.030000000003946, -1.5433283647073042 
4.040000000003923, -1.5408235542151951 
4.0500000000039, -1.5387369661444306 
4.0600000000038765, -1.5374946521121378 
4.070000000003853, -1.5370903950138124 
4.08000000000383, -1.5371193082799293 
4.090000000003807, -1.5371726179545733 
4.100000000003783, -1.5370207346277351 
4.11000000000376, -1.536528732328615 
4.120000000003737, -1.5355177689155437 
4.130000000003713, -1.5336390848535113 
4.14000000000369, -1.5302725473402803 
4.150000000003667, -1.5246848147008527 
4.1600000000036434, -1.5173005184792066 
4.17000000000362, -1.5125024431849972 
4.180000000003597, -1.5174718215294356 
4.1900000000035735, -1.532180170360364 
4.20000000000355, -1.5481434971296284 
4.210000000003527, -1.5595559346492354 
4.220000000003504, -1.5661480953431572 
4.23000000000348, -1.5695362905718906 
4.240000000003457, -1.5711035558634778 
4.250000000003434, -1.5716723141305173 
4.26000000000341, -1.5716768692582697 
4.270000000003387, -1.5713511096259558 
4.280000000003364, -1.5708633253891904 
4.2900000000033405, -1.57040056376092 
4.300000000003317, -1.57016311548419 
4.310000000003294, -1.570256501783517 
4.320000000003271, -1.5706226620340147 
4.330000000003247, -1.5711133456623023 
4.340000000003224, -1.5715841066673923 
4.350000000003201, -1.571919953430767 
4.360000000003177, -1.5720301993268166 
4.370000000003154, -1.5718377868029152 
4.380000000003131, -1.5712631067977714 
4.390000000003107, -1.5702087835911565 
4.400000000003084, -1.5685524150048056 
4.410000000003061, -1.5661517008663426 
4.4200000000030375, -1.5628759462648962 
4.430000000003014, -1.5587054144702086 
4.440000000002991, -1.5539546067727787 
4.450000000002968, -1.549513634524389 
4.460000000002944, -1.5465588205625918 
4.470000000002921, -1.545506585333121 
4.480000000002898, -1.5456406095058357 
4.490000000002874, -1.5460444811349023 
4.500000000002851, -1.5462520570663256 
4.510000000002828, -1.546129981143682 
4.520000000002804, -1.5456228411044077 
4.530000000002781, -1.5446183990286475 
4.540000000002758, -1.5429184670253182 
4.5500000000027345, -1.5404124672160697 
4.560000000002711, -1.5378117746165743 
4.570000000002688, -1.537806505242684 
4.580000000002665, -1.5438112956099368 
4.590000000002641, -1.5551717680527424 
4.600000000002618, -1.5672169782020362 
4.610000000002595, -1.5765521813009746 
4.620000000002571, -1.5826162740794056 
4.630000000002548, -1.586142109520351 
4.640000000002525, -1.58799025821394 
4.6500000000025015, -1.588795335852619 
4.660000000002478, -1.5889574409378253 
4.670000000002455, -1.5887171646517575 
4.6800000000024315, -1.5882346008502715 
4.690000000002408, -1.5876502471056873 
4.700000000002385, -1.5871042550369203 
4.710000000002362, -1.5867039391858808 
4.720000000002338, -1.586490636394173 
4.730000000002315, -1.5864478067342351 
4.740000000002292, -1.5865102550900994 
4.750000000002268, -1.5865670939176073 
4.760000000002245, -1.5864884817117992 
4.770000000002222, -1.5861447060465186 
4.7800000000021985, -1.585384039910536 
4.790000000002175, -1.58398259191947 
4.800000000002152, -1.5815885114462234 
4.810000000002129, -1.577683330968186 
4.820000000002105, -1.5716255272688735 
4.830000000002082, -1.5629633670995955 
4.840000000002059, -1.552309715129916 
4.850000000002035, -1.5423697648588626 
4.860000000002012, -1.5366872840915626 
4.870000000001989, -1.5358078789188494 
4.880000000001965, -1.5371667736654229 
4.890000000001942, -1.5386025464611337 
4.900000000001919, -1.5394498277030793 
4.9100000000018955, -1.539731168583486 
4.920000000001872, -1.5395694468664627 
4.930000000001849, -1.5390257817974602 
