t, s[1].omega / s[0].omega 
0, -1.0998967656404637 
0.009999999999999995, -1.088881492910399 
0.019999999999999934, -1.0774224966766077 
0.029999999999999874, -1.0671309062380996 
0.04000000000000012, -1.0593666620086304 
0.050000000000000405, -1.0546300539109268 
0.06000000000000069, -1.0524654062160672 
0.07000000000000098, -1.0519232297807426 
0.08000000000000126, -1.0521184955129246 
0.09000000000000155, -1.052489542344268 
0.10000000000000184, -1.0527682303632078 
0.11000000000000212, -1.052852577731132 
0.12000000000000241, -1.0527005715537499 
0.130000000000002, -1.052265288057582 
0.1400000000000009, -1.0514527892355972 
0.1499999999999998, -1.0500822839077029 
0.1599999999999987, -1.0478371384532599 
0.1699999999999976, -1.0442131232424754 
0.1799999999999965, -1.038508471062475 
0.1899999999999954, -1.0299594720167395 
0.1999999999999943, -1.0181375724198811 
0.2099999999999932, -1.003533859696359 
0.2199999999999921, -0.9878686991710974 
0.229999999999991, -0.9735893426059443 
0.2399999999999899, -0.9627122595883915 
0.2499999999999888, -0.9559245853919511 
0.2599999999999877, -0.9526103232313196 
0.2699999999999866, -0.9515507576349556 
0.2799999999999855, -0.9516138360587352 
0.2899999999999844, -0.9520549682757912 
0.2999999999999833, -0.9524938505940396 
0.3099999999999822, -0.9527764750351462 
0.3199999999999811, -0.9528525758117192 
0.32999999999998, -0.952699724283119 
0.3399999999999789, -0.9522810938886757 
0.3499999999999778, -0.9515177536318994 
0.35999999999997667, -0.9502626263426877 
0.36999999999997557, -0.9482727096477491 
0.37999999999997447, -0.9451911007976201 
0.38999999999997337, -0.9405738746286098 
0.39999999999997227, -0.9340139497110039 
0.40999999999997117, -0.9253758155006204 
0.41999999999997006, -0.915031576629335 
0.42999999999996896, -0.9038938978970993 
0.43999999999996786, -0.8931559631694863 
0.44999999999996676, -0.8838901445857342 
0.45999999999996566, -0.8767413882862259 
0.46999999999996456, -0.8718346259228762 
0.47999999999996346, -0.8688754247125099 
0.48999999999996235, -0.8673517437931857 
0.49999999999996125, -0.8667321175723798 
0.5099999999999602, -0.8665890523370319 
0.519999999999959, -0.8666346135628548 
0.529999999999958, -0.8666982948157514 
0.5399999999999568, -0.8666849536115034 
0.5499999999999557, -0.8665360453389189 
0.5599999999999546, -0.8662016225854925 
0.5699999999999535, -0.8656228988077675 
0.5799999999999524, -0.8647248044957102 
0.5899999999999513, -0.8634209122137909 
0.5999999999999502, -0.8616342689704395 
0.6099999999999491, -0.8593312734672564 
0.619999999999948, -0.8565520632833197 
0.6299999999999469, -0.8534146841091633 
0.6399999999999458, -0.8500868033643032 
0.6499999999999447, -0.8467443425753458 
0.6599999999999436, -0.8435416953782131 
0.6699999999999425, -0.8406015083763758 
0.6799999999999414, -0.8380161256168908 
0.6899999999999403, -0.8358499847667631 
0.6999999999999392, -0.8341378467978362 
0.7099999999999381, -0.8328802646582225 
0.719999999999937, -0.8320413774653224 
0.7299999999999359, -0.8315536445267779 
0.7399999999999348, -0.8313300202596686 
0.7499999999999337, -0.8312792986807859 
0.7599999999999326, -0.8313187019279079 
0.7699999999999315, -0.8313802413320536 
0.7799999999999304, -0.8314113926939637 
0.7899999999999293, -0.8313731629846141 
0.7999999999999282, -0.8312386471491588 
0.8099999999999271, -0.8309932900241142 
0.819999999999926, -0.8306355292791159 
0.8299999999999249, -0.8301751428547546 
0.8399999999999238, -0.8296281109745538 
0.8499999999999227, -0.8290102116742141 
0.8599999999999216, -0.8283333116467574 
0.8699999999999205, -0.827606368291016 
0.8799999999999194, -0.8268397267012123 
0.8899999999999183, -0.826049768579473 
0.8999999999999172, -0.8252619731345355 
0.9099999999999161, -0.8245119889722078 
0.919999999999915, -0.8238447282002654 
0.9299999999999139, -0.8233110822581347 
0.9399999999999128, -0.8229619209444714 
0.9499999999999117, -0.8228401810382537 
0.9599999999999106, -0.82297333825973 
0.9699999999999095, -0.8233690101225741 
0.9799999999999084, -0.8240152346242222 
0.9899999999999073, -0.824884858297723 
0.9999999999999062, -0.8259417606080678 
1.0099999999999052, -0.8271460895243419 
1.019999999999904, -0.8284562356033286 
1.029999999999903, -0.8298266523396183 
1.039999999999902, -0.8312028290907755 
1.0499999999999008, -0.8325175419611496 
1.0599999999998997, -0.8336941881567197 
1.0699999999998986, -0.83466017693328 
1.0799999999998975, -0.835365314171 
1.0899999999998964, -0.8357937921079452 
1.0999999999998953, -0.8359623001018941 
1.1099999999998942, -0.8359077693609906 
1.119999999999893, -0.8356745437306392 
1.129999999999892, -0.8353083387430036 
1.1399999999998909, -0.834859173575415 
1.1499999999998898, -0.8343925254944846 
1.1599999999998887, -0.834006752480188 
1.1699999999998876, -0.8338526142234655 
1.1799999999998865, -0.83414627946763 
1.1899999999998854, -0.83516308011341 
1.1999999999998843, -0.8372013441013142 
1.2099999999998832, -0.8405172713201141 
1.219999999999882, -0.8452465543037935 
1.229999999999881, -0.8513343956679167 
1.2399999999998799, -0.8584918404703732 
1.2499999999998788, -0.8661969056597497 
1.2599999999998777, -0.8737683397392377 
1.2699999999998766, -0.880527768691562 
1.2799999999998755, -0.8859996346868486 
1.2899999999998744, -0.8900304136724774 
1.2999999999998733, -0.8927513320578452 
1.3099999999998722, -0.8944378072619971 
1.319999999999871, -0.8953760727841227 
1.32999999999987, -0.8957936708095378 
1.3399999999998689, -0.8958446431358016 
1.3499999999998678, -0.8956205663170256 
1.3599999999998666, -0.8951684376729881 
1.3699999999998655, -0.8945102593567539 
1.3799999999998644, -0.89366918445889 
1.3899999999998633, -0.892714566620523 
1.3999999999998622, -0.891842521327273 
1.4099999999998611, -0.891499377762336 
1.41999999999986, -0.8925104842529192 
1.429999999999859, -0.8960844096723777 
1.4399999999998578, -0.9034872602823288 
1.4499999999998567, -0.9153075184417097 
1.4599999999998556, -0.9306838020225943 
1.4699999999998545, -0.9472827957218131 
1.4799999999998534, -0.9623812742551646 
1.4899999999998523, -0.9742173046854941 
1.4999999999998512, -0.982457193756901 
1.5099999999998501, -0.9877114704969812 
1.519999999999849, -0.9908513585330617 
1.529999999999848, -0.9926172745737671 
1.5399999999998468, -0.9935186537905807 
1.5499999999998457, -0.9938667767710022 
1.5599999999998446, -0.9938339212446824 
1.5699999999998435, -0.9935004258413436 
1.5799999999998424, -0.9928855098010054 
1.5899999999998413, -0.9919706618609079 
1.5999999999998402, -0.9907329555986882 
1.6099999999998391, -0.9892182379596163 
1.619999999999838, -0.9876948899918879 
1.629999999999837, -0.9868986195867937 
1.6399999999998358, -0.988231140203373 
1.6499999999998347, -0.9935265854722957 
1.6599999999998336, -1.0040340352519028 
1.6699999999998325, -1.0190955081248547 
1.6799999999998314, -1.0359487164889365 
1.6899999999998303, -1.0512848957879115 
1.6999999999998292, -1.063087378687852 
1.709999999999828, -1.0710885690076273 
1.719999999999827, -1.0760430239273417 
1.729999999999826, -1.0789104049284461 
1.7399999999998248, -1.080458006930702 
1.7499999999998237, -1.0811906449954383 
1.7599999999998226, -1.081405506280635 
1.7699999999998215, -1.0812618136870245 
1.7799999999998204, -1.080834144887932 
1.7899999999998193, -1.0801535140088885 
1.7999999999998182, -1.079255125033562 
1.809999999999817, -1.0782613091919342 
1.819999999999816, -1.0775230554034523 
1.8299999999998149, -1.077780040986154 
1.8399999999998138, -1.0801493910566071 
1.8499999999998127, -1.0856866762304433 
1.8599999999998116, -1.0946214867747486 
1.8699999999998105, -1.1059337518824992 
1.8799999999998094, -1.1177755865018209 
1.8899999999998083, -1.1283800137964168 
1.8999999999998072, -1.1367216734879635 
1.909999999999806, -1.142612941473248 
1.919999999999805, -1.146412803348737 
1.9299999999998039, -1.1486671798200143 
1.9399999999998028, -1.1498745069834495 
1.9499999999998017, -1.1504001755503388 
1.9599999999998006, -1.1504806470353743 
1.9699999999997995, -1.1502604810144104 
1.9799999999997984, -1.1498360812863027 
1.9899999999997973, -1.1493029537239483 
1.9999999999997962, -1.1488083911394877 
2.0099999999998173, -1.1485936503843974 
2.0199999999998384, -1.148976516518237 
2.0299999999998595, -1.1502321652249172 
2.0399999999998806, -1.1524323646056234 
2.0499999999999017, -1.1553896420063858 
2.059999999999923, -1.158755921124707 
2.069999999999944, -1.1621689710968466 
2.079999999999965, -1.1653409415256466 
2.089999999999986, -1.168079050367283 
2.100000000000007, -1.1702760089960547 
2.1100000000000283, -1.1718968990394436 
2.1200000000000494, -1.1729666386839874 
2.1300000000000705, -1.1735529141602727 
2.1400000000000916, -1.1737443978717494 
2.1500000000001127, -1.1736316942251832 
2.160000000000134, -1.173298869217081 
2.170000000000155, -1.1728275164145163 
2.180000000000176, -1.1723081690066768 
2.190000000000197, -1.1718472527174877 
2.2000000000002182, -1.171555559296018 
2.2100000000002393, -1.1715163762965999 
2.2200000000002604, -1.17175447153484 
2.2300000000002815, -1.1722312111642479 
2.2400000000003026, -1.1728657435834104 
2.2500000000003237, -1.1735627703309857 
2.260000000000345, -1.1742331283451148 
2.270000000000366, -1.17480461401779 
2.280000000000387, -1.1752248316385852 
2.290000000000408, -1.1754591529392422 
2.3000000000004293, -1.1754870955855954 
2.3100000000004504, -1.1752993194633161 
2.3200000000004715, -1.174896141360716 
2.3300000000004926, -1.1742876933523076 
2.3400000000005137, -1.1734954524098868 
2.3500000000005348, -1.172554769162155 
2.360000000000556, -1.171517692822939 
2.370000000000577, -1.1704540805861228 
2.380000000000598, -1.169447738590381 
2.390000000000619, -1.1685853123026668 
2.4000000000006403, -1.1679381383042287 
2.4100000000006614, -1.1675400638234505 
2.4200000000006825, -1.1673705348800252 
2.4300000000007036, -1.1673572192096429 
2.4400000000007247, -1.1674004367143942 
2.450000000000746, -1.1674011435225844 
2.460000000000767, -1.1672738006145664 
2.470000000000788, -1.1669434038912587 
2.480000000000809, -1.1663379760477983 
2.49000000000083, -1.1653868065234663 
2.5000000000008513, -1.1640280141993424 
2.5100000000008724, -1.1622220850366272 
2.5200000000008935, -1.159964441536302 
2.5300000000009146, -1.1572929695788023 
2.5400000000009357, -1.154293188481025 
2.550000000000957, -1.1511061760397057 
2.560000000000978, -1.147937157275081 
2.570000000000999, -1.14504798186189 
2.58000000000102, -1.1427067338259023 
2.5900000000010412, -1.141089409103342 
2.6000000000010624, -1.1401909997160684 
2.6100000000010835, -1.1398317937087248 
2.6200000000011046, -1.1397606981916752 
2.6300000000011257, -1.1397601710767726 
2.6400000000011468, -1.1396822181905415 
2.650000000001168, -1.139426411973968 
2.660000000001189, -1.1388986192882546 
2.67000000000121, -1.1379715040700742 
2.680000000001231, -1.1364519751806588 
2.6900000000012523, -1.1340621316688475 
2.7000000000012734, -1.1304533435450301 
2.7100000000012945, -1.1252828342034493 
2.7200000000013156, -1.1183653724747433 
2.7300000000013367, -1.1098606279853436 
2.740000000001358, -1.1004021505060098 
2.750000000001379, -1.091058284963953 
2.7600000000014, -1.0830508142249733 
2.770000000001421, -1.0772827430250547 
2.780000000001442, -1.0739472563152106 
2.7900000000014633, -1.0725445408281482 
2.8000000000014844, -1.0722835652829716 
2.8100000000015055, -1.0724904228996475 
2.8200000000015266, -1.072760399101232 
2.8300000000015477, -1.0729053163382924 
2.840000000001569, -1.072847289805439 
2.85000000000159, -1.072536117505763 
2.860000000001611, -1.0718958477093206 
2.870000000001632, -1.0707827074158498 
2.8800000000016532, -1.0689388548788843 
2.8900000000016743, -1.0659397140380014 
2.9000000000016954, -1.0611619551202705 
2.9100000000017165, -1.0538518672642092 
2.9200000000017377, -1.0434146152161519 
2.9300000000017588, -1.0299477693285994 
2.94000000000178, -1.01471335363169 
2.950000000001801, -0.999978959829121 
2.960000000001822, -0.9880423790779294 
2.970000000001843, -0.980114555467865 
2.9800000000018643, -0.9759662034044452 
2.9900000000018854, -0.9744673013045254 
3.0000000000019065, -0.9743794382357482 
3.0100000000019276, -0.9748172952007732 
3.0200000000019487, -0.9753053782767905 
3.03000000000197, -0.9756452004827342 
3.040000000001991, -0.9757729948566183 
3.050000000002012, -0.9756669721926892 
3.060000000002033, -0.9752962721890703 
3.070000000002054, -0.9745894938824877 
3.0800000000020753, -0.9734059607069099 
3.0900000000020964, -0.9715020302156935 
3.1000000000021175, -0.9684986529061226 
3.1100000000021386, -0.9638821271806304 
3.1200000000021597, -0.9571031410630779 
3.130000000002181, -0.9478326311728329 
3.140000000002202, -0.9363095012820217 
3.150000000002223, -0.923522869318991 
3.160000000002244, -0.9109818365516302 
3.1700000000022652, -0.9001556122557115 
3.1800000000022863, -0.8919528909028077 
3.1900000000023074, -0.8865323810825497 
3.2000000000023285, -0.883459626640916 
3.2100000000023496, -0.8820316618270938 
3.2200000000023707, -0.8815679834618969 
3.230000000002392, -0.8815617689175268 
3.240000000002413, -0.8816994043876253 
3.250000000002434, -0.8818118117350686 
3.260000000002455, -0.881813243520099 
3.2700000000024763, -0.8816529057944358 
3.2800000000024974, -0.881282815557195 
3.2900000000025185, -0.8806376225587285 
3.3000000000025396, -0.8796235941392924 
3.3100000000025607, -0.8781195003158139 
3.3200000000025818, -0.8759971745713381 
3.330000000002603, -0.873166360428959 
3.340000000002624, -0.8696302953474404 
3.350000000002645, -0.8655170879479808 
3.360000000002666, -0.8610589736094628 
3.3700000000026873, -0.8565317328529403 
3.3800000000027084, -0.8521945110364365 
3.3900000000027295, -0.8482563314240087 
3.4000000000027506, -0.844866384782228 
3.4100000000027717, -0.8421130725143302 
3.420000000002793, -0.8400229056364328 
3.430000000002814, -0.8385608286548033 
3.440000000002835, -0.837638333813197 
3.450000000002856, -0.8371322869413907 
3.460000000002877, -0.8369097311974351 
3.4700000000028983, -0.8368494303103342 
3.4800000000029194, -0.8368533758853294 
3.4900000000029405, -0.8368478079246392 
3.5000000000029616, -0.836778055439442 
3.5100000000029827, -0.8366025624285603 
3.520000000003004, -0.8362899938116856 
3.530000000003025, -0.8358207222064168 
3.540000000003046, -0.8351908080288576 
3.550000000003067, -0.8344140287539981 
3.5600000000030882, -0.8335182087716241 
3.5700000000031094, -0.8325367196932106 
3.5800000000031305, -0.8315003584725987 
3.5900000000031516, -0.8304342681318415 
3.6000000000031727, -0.8293602784971599 
3.6100000000031938, -0.8283016949370351 
3.620000000003215, -0.827287322944198 
3.630000000003236, -0.82635297171679 
3.640000000003257, -0.8255399070437024 
3.650000000003278, -0.8248903716231121 
3.6600000000032993, -0.8244409974181937 
3.6700000000033204, -0.8242158868118376 
3.6800000000033415, -0.824221698924506 
3.6900000000033626, -0.8244465742799374 
3.7000000000033837, -0.8248632551260894 
3.710000000003405, -0.8254351096666042 
3.720000000003426, -0.8261228084893986 
3.730000000003447, -0.8268894606772358 
3.740000000003468, -0.8277027636515502 
3.750000000003489, -0.828533653083103 
3.7600000000035103, -0.8293520585678641 
3.7700000000035314, -0.8301220249008934 
3.7800000000035525, -0.8308000965104962 
3.7900000000035736, -0.831340351367133 
3.8000000000035947, -0.8317052241238574 
3.810000000003616, -0.8318759686774901 
3.820000000003637, -0.8318561885389295 
3.830000000003658, -0.8316676477238628 
3.840000000003679, -0.8313434581851794 
3.8500000000037002, -0.8309244758006491 
3.8600000000037213, -0.8304616854466442 
3.8700000000037424, -0.8300240675191318 
3.8800000000037635, -0.8297089256642705 
3.8900000000037847, -0.8296492950604929 
3.9000000000038058, -0.8300114510598465 
3.910000000003827, -0.8309772434552547 
3.920000000003848, -0.8327125295227722 
3.930000000003869, -0.8353308273385457 
3.94000000000389, -0.8388633059920554 
3.9500000000039113, -0.8432399938844846 
3.9600000000039324, -0.8482798643541709 
3.9700000000039535, -0.853689482222095 
3.9800000000039746, -0.8590825839723035 
3.9900000000039957, -0.8640411202231892 
4.000000000004016, -0.8682172475459276 
4.010000000003993, -0.871428598961766 
4.02000000000397, -0.8736829131304956 
4.030000000003946, -0.8751211400854734 
4.040000000003923, -0.8759305349892473 
4.0500000000039, -0.8762807740053103 
4.0600000000038765, -0.8762976289838977 
4.070000000003853, -0.8760624586471513 
4.08000000000383, -0.8756235889699269 
4.090000000003807, -0.8750138269800166 
4.100000000003783, -0.8742768039599553 
4.11000000000376, -0.8735109192008664 
4.120000000003737, -0.8729408169461645 
4.130000000003713, -0.8730142066639782 
4.14000000000369, -0.8744838177967589 
4.150000000003667, -0.8783730903368738 
4.1600000000036434, -0.885693596059895 
4.17000000000362, -0.8968875831963301 
4.180000000003597, -0.911256518018887 
4.1900000000035735, -0.9268978270987572 
4.20000000000355, -0.941453161939922 
4.210000000003527, -0.9532030374251497 
4.220000000003504, -0.9616230453345025 
4.23000000000348, -0.9671258198182594 
4.240000000003457, -0.9704805567979428 
4.250000000003434, -0.9724031352667687 
4.26000000000341, -0.9734122134670281 
4.270000000003387, -0.9738360066389156 
4.280000000003364, -0.9738623603918783 
4.2900000000033405, -0.9735845933667584 
4.300000000003317, -0.9730331643314916 
4.310000000003294, -0.9721988005856108 
4.320000000003271, -0.9710610636869339 
4.330000000003247, -0.9696468011055164 
4.340000000003224, -0.9681540804019744 
4.350000000003201, -0.9671632199785807 
4.360000000003177, -0.9678557110236833 
4.370000000003154, -0.9719469909668603 
4.380000000003131, -0.9809426082870776 
4.390000000003107, -0.9948555563564447 
4.400000000003084, -1.01153422660092 
4.410000000003061, -1.0276781733601017 
4.4200000000030375, -1.0407583544479029 
4.430000000003014, -1.0499856922415973 
4.440000000002991, -1.0558735158142931 
4.450000000002968, -1.059369782698454 
4.460000000002944, -1.0613189728601145 
4.470000000002921, -1.0623078404019837 
4.480000000002898, -1.062694383066526 
4.490000000002874, -1.0626771324888413 
4.500000000002851, -1.0623527933739232 
4.510000000002828, -1.061757001095113 
4.520000000002804, -1.0609012895654883 
4.530000000002781, -1.05983069029296 
4.540000000002758, -1.0587356498962017 
4.5500000000027345, -1.0581345453018283 
4.560000000002711, -1.0590392691598942 
4.570000000002688, -1.0628279403391747 
4.580000000002665, -1.0705613666195715 
4.590000000002641, -1.0820528299083354 
4.600000000002618, -1.0956035004021645 
4.610000000002595, -1.1088308900480135 
4.620000000002571, -1.1198682294765239 
4.630000000002548, -1.1279711120704587 
4.640000000002525, -1.1333411876485524 
4.6500000000025015, -1.136615512999002 
4.660000000002478, -1.1384574787958281 
4.670000000002455, -1.1393771953965424 
4.6800000000024315, -1.1397100213576752 
4.690000000002408, -1.1396570052259354 
4.700000000002385, -1.1393354984573583 
4.710000000002362, -1.1388278159321261 
4.720000000002338, -1.1382347778509705 
4.730000000002315, -1.137739578082703 
4.740000000002292, -1.1376586058769935 
4.750000000002268, -1.1384089710110277 
4.760000000002245, -1.1403370609015708 
4.770000000002222, -1.1435000610399437 
4.7800000000021985, -1.1476035589917157 
4.790000000002175, -1.1521491649277917 
4.800000000002152, -1.1566369053707757 
4.810000000002129, -1.1606841423572771 
4.820000000002105, -1.164054780961125 
4.830000000002082, -1.166647722494305 
4.840000000002059, -1.1684731154712642 
4.850000000002035, -1.1696197513880318 
4.860000000002012, -1.170215429334422 
4.870000000001989, -1.1703911552285649 
4.880000000001965, -1.170260759762797 
4.890000000001942, -1.1699193323660897 
4.900000000001919, -1.1694562405958044 
4.9100000000018955, -1.1689736704865707 
4.920000000001872, -1.1685958034324861 
4.930000000001849, -1.1684515599500416 
