t, s[1].omega / s[0].omega 
0, -0.8798319000189597 
0.009999999999999995, -0.8638840926840338 
0.019999999999999934, -0.8512507174471615 
0.029999999999999874, -0.8430765490711571 
0.04000000000000012, -0.8388898337189639 
0.050000000000000405, -0.8374067892404892 
0.06000000000000069, -0.8373618039407853 
0.07000000000000098, -0.8378817775492633 
0.08000000000000126, -0.8384916797782808 
0.09000000000000155, -0.83898283387398 
0.10000000000000184, -0.8392849520137824 
0.11000000000000212, -0.8393823709026643 
0.12000000000000241, -0.839268000217757 
0.130000000000002, -0.8389186839483296 
0.1400000000000009, -0.8382794924384754 
0.1499999999999998, -0.8372509321646744 
0.1599999999999987, -0.8356804432454231 
0.1699999999999976, -0.8333689781433119 
0.1799999999999965, -0.830111655575114 
0.1899999999999954, -0.8257835674172803 
0.1999999999999943, -0.8204418974360413 
0.2099999999999932, -0.8143702919008777 
0.2199999999999921, -0.8080135704115072 
0.229999999999991, -0.8018427031833723 
0.2399999999999899, -0.7962401312243083 
0.2499999999999888, -0.7914518443829873 
0.2599999999999877, -0.787591172591595 
0.2699999999999866, -0.7846624489454278 
0.2799999999999855, -0.7825872959440124 
0.2899999999999844, -0.781231070061346 
0.2999999999999833, -0.7804306280949846 
0.3099999999999822, -0.7800211367116027 
0.3199999999999811, -0.7798566814819793 
0.32999999999998, -0.7798207649846256 
0.3399999999999789, -0.7798269243364626 
0.3499999999999778, -0.7798131125364574 
0.35999999999997667, -0.7797344299109444 
0.36999999999997557, -0.7795578520723764 
0.37999999999997447, -0.7792608501132559 
0.38999999999997337, -0.7788335291620574 
0.39999999999997227, -0.778281342764795 
0.40999999999997117, -0.7776241997755422 
0.41999999999997006, -0.7768900500251462 
0.42999999999996896, -0.77610582344064 
0.43999999999996786, -0.775291195448036 
0.44999999999996676, -0.7744583540935205 
0.45999999999996566, -0.7736165321786308 
0.46999999999996456, -0.7727777692995107 
0.47999999999996346, -0.7719611870088605 
0.48999999999996235, -0.7711949949208055 
0.49999999999996125, -0.7705164687293848 
0.5099999999999602, -0.7699700215543586 
0.519999999999959, -0.7696032353991604 
0.529999999999958, -0.769461135894936 
0.5399999999999568, -0.7695799512319514 
0.5499999999999557, -0.7699822717898664 
0.5599999999999546, -0.7706751952387481 
0.5699999999999535, -0.7716517331758201 
0.5799999999999524, -0.7728941830430565 
0.5899999999999513, -0.7743770933529249 
0.5999999999999502, -0.7760672604887561 
0.6099999999999491, -0.7779191257254043 
0.619999999999948, -0.7798664531261393 
0.6299999999999469, -0.7818154367437289 
0.6399999999999458, -0.7836482433892442 
0.6499999999999447, -0.7852436277133782 
0.6599999999999436, -0.7865088314872676 
0.6699999999999425, -0.7874037896090523 
0.6799999999999414, -0.7879419551709248 
0.6899999999999403, -0.7881708355368746 
0.6999999999999392, -0.7881482002827644 
0.7099999999999381, -0.787926546716734 
0.719999999999937, -0.7875490104514775 
0.7299999999999359, -0.7870551193699431 
0.7399999999999348, -0.7864954668938787 
0.7499999999999337, -0.7859569427989552 
0.7599999999999326, -0.7856012679975313 
0.7699999999999315, -0.7857160717473485 
0.7799999999999304, -0.7867661386865512 
0.7899999999999293, -0.7894115148252232 
0.7999999999999282, -0.7944359475371596 
0.8099999999999271, -0.8025252523554492 
0.819999999999926, -0.8138890516329391 
0.8299999999999249, -0.8278683607045926 
0.8399999999999238, -0.8428599937765263 
0.8499999999999227, -0.85683989951072 
0.8599999999999216, -0.8682513893554471 
0.8699999999999205, -0.876553855584636 
0.8799999999999194, -0.8820739941680321 
0.8899999999999183, -0.8855059971696196 
0.8999999999999172, -0.8875223871932759 
0.9099999999999161, -0.8886228873206757 
0.919999999999915, -0.8891302563867238 
0.9299999999999139, -0.8892326352870388 
0.9399999999999128, -0.8890242180967812 
0.9499999999999117, -0.8885312975876746 
0.9599999999999106, -0.8877242483882691 
0.9699999999999095, -0.886519907111761 
0.9799999999999084, -0.8847818652100885 
0.9899999999999073, -0.8823334429921708 
0.9999999999999062, -0.8790108000121245 
1.0099999999999052, -0.8747909310359704 
1.019999999999904, -0.8699939148038777 
1.029999999999903, -0.8654381130241566 
1.039999999999902, -0.8622997360837354 
1.0499999999999008, -0.8615668896705049 
1.0599999999998997, -0.8634298591308207 
1.0699999999998986, -0.8671532047431769 
1.0799999999998975, -0.8715519795078178 
1.0899999999998964, -0.8756261718441338 
1.0999999999998953, -0.878868035111551 
1.1099999999998942, -0.881192347275349 
1.119999999999893, -0.8827291155632461 
1.129999999999892, -0.8836613378379733 
1.1399999999998909, -0.8841458601838529 
1.1499999999998898, -0.8842885936264986 
1.1599999999998887, -0.8841417441209348 
1.1699999999998876, -0.8837037453903855 
1.1799999999998865, -0.8829122669193483 
1.1899999999998854, -0.881625009521691 
1.1999999999998843, -0.8795858135448966 
1.2099999999998832, -0.8763817746694382 
1.219999999999882, -0.8714215896743231 
1.229999999999881, -0.8640123349276754 
1.2399999999998799, -0.853640450098486 
1.2499999999998788, -0.8404433592696284 
1.2599999999998777, -0.8255415619590416 
1.2699999999998766, -0.8107809613683076 
1.2799999999998755, -0.7979454743867556 
1.2899999999998744, -0.7880693979280192 
1.2999999999998733, -0.7812912903761022 
1.3099999999998722, -0.7771327803647419 
1.319999999999871, -0.7748747578377742 
1.32999999999987, -0.7738286946558073 
1.3399999999998689, -0.7734624491263873 
1.3499999999998678, -0.7734194653416437 
1.3599999999998666, -0.7734849320596736 
1.3699999999998655, -0.7735383024642204 
1.3799999999998644, -0.7735119875593518 
1.3899999999998633, -0.7733619165430021 
1.3999999999998622, -0.7730491299311619 
1.4099999999998611, -0.7725305536184177 
1.41999999999986, -0.7717586801161388 
1.429999999999859, -0.7706910875833092 
1.4399999999998578, -0.7693083520179453 
1.4499999999998567, -0.7676320144918897 
1.4599999999998556, -0.765729148469786 
1.4699999999998545, -0.7636967364447304 
1.4799999999998534, -0.7616349202595823 
1.4899999999998523, -0.7596259659611599 
1.4999999999998512, -0.7577278506287353 
1.5099999999998501, -0.755979316919655 
1.519999999999849, -0.7544084620375362 
1.529999999999848, -0.7530390601905036 
1.5399999999998468, -0.7518926324557491 
1.5499999999998457, -0.7509868545671419 
1.5599999999998446, -0.7503320341558548 
1.5699999999998435, -0.7499276683405129 
1.5799999999998424, -0.7497607960714354 
1.5899999999998413, -0.7498070469150211 
1.5999999999998402, -0.7500341785132203 
1.6099999999998391, -0.7504069626916718 
1.619999999999838, -0.7508919488479291 
1.629999999999837, -0.7514609002292958 
1.6399999999998358, -0.7520921321983176 
1.6499999999998347, -0.7527692017224654 
1.6599999999998336, -0.753476629981422 
1.6699999999998325, -0.7541933598895325 
1.6799999999998314, -0.7548867596408622 
1.6899999999998303, -0.7555117593146238 
1.6999999999998292, -0.7560183276119643 
1.709999999999828, -0.7563649284040297 
1.719999999999827, -0.7565301122880106 
1.729999999999826, -0.7565154368039398 
1.7399999999998248, -0.7563400690015301 
1.7499999999998237, -0.7560331084092333 
1.7599999999998226, -0.7556295262866394 
1.7699999999998215, -0.7551724548401306 
1.7799999999998204, -0.7547221740441429 
1.7899999999998193, -0.7543710846040973 
1.7999999999998182, -0.7542627358716203 
1.809999999999817, -0.7546103419758726 
1.819999999999816, -0.7557063771047953 
1.8299999999998149, -0.7579116787000986 
1.8399999999998138, -0.7616123149074474 
1.8499999999998127, -0.7671359975320612 
1.8599999999998116, -0.7746274228321204 
1.8699999999998105, -0.7839005545346106 
1.8799999999998094, -0.794329245038581 
1.8899999999998083, -0.8048918137987217 
1.8999999999998072, -0.8144570197829072 
1.909999999999806, -0.822202120114604 
1.919999999999805, -0.8278654939295397 
1.9299999999998039, -0.8316671895607752 
1.9399999999998028, -0.8340434964675131 
1.9499999999998017, -0.835424680955048 
1.9599999999998006, -0.8361380956209047 
1.9699999999997995, -0.8363982345518284 
1.9799999999997984, -0.8363285399863758 
1.9899999999997973, -0.8359846494945996 
1.9999999999997962, -0.8353693870974658 
2.0099999999998173, -0.8344391421092112 
2.0199999999998384, -0.8331050500962924 
2.0299999999998595, -0.8312359053250328 
2.0399999999998806, -0.828675745264148 
2.0499999999999017, -0.82529576716731 
2.059999999999923, -0.8210954888220389 
2.069999999999944, -0.8163293208170119 
2.079999999999965, -0.8115667318416422 
2.089999999999986, -0.8075858246412129 
2.100000000000007, -0.8051138034582319 
2.1100000000000283, -0.8045194691098301 
2.1200000000000494, -0.8056072705011992 
2.1300000000000705, -0.8077198593957078 
2.1400000000000916, -0.8101133147760547 
2.1500000000001127, -0.8122697698318209 
2.160000000000134, -0.8139627258410794 
2.170000000000155, -0.8151656717408035 
2.180000000000176, -0.8159413649829832 
2.190000000000197, -0.816369694981001 
2.2000000000002182, -0.8165132816075001 
2.2100000000002393, -0.8164039487509076 
2.2200000000002604, -0.8160361798766672 
2.2300000000002815, -0.8153594894301494 
2.2400000000003026, -0.8142662348236236 
2.2500000000003237, -0.8125764912530069 
2.260000000000345, -0.8100310891683398 
2.270000000000366, -0.8063192037899887 
2.280000000000387, -0.8011749112947356 
2.290000000000408, -0.7945417817875141 
2.3000000000004293, -0.7867133085877364 
2.3100000000004504, -0.7783105230800808 
2.3200000000004715, -0.7700774180030601 
2.3300000000004926, -0.7626425190050464 
2.3400000000005137, -0.7563913891223903 
2.3500000000005348, -0.7514643846727999 
2.360000000000556, -0.7478166397928458 
2.370000000000577, -0.7452873883043346 
2.380000000000598, -0.743658539714605 
2.390000000000619, -0.7426996918809612 
2.4000000000006403, -0.7421997310224332 
2.4100000000006614, -0.7419846818497742 
2.4200000000006825, -0.7419227736655634 
2.4300000000007036, -0.7419200983471312 
2.4400000000007247, -0.7419115770739585 
2.450000000000746, -0.7418515677356521 
2.460000000000767, -0.7417071227551072 
2.470000000000788, -0.7414554146545906 
2.480000000000809, -0.7410851226854304 
2.49000000000083, -0.7405993546898519 
2.5000000000008513, -0.7400159831229651 
2.5100000000008724, -0.739362436218483 
2.5200000000008935, -0.7386664201094489 
2.5300000000009146, -0.7379478941955088 
2.5400000000009357, -0.7372168364202543 
2.550000000000957, -0.7364769864023443 
2.560000000000978, -0.7357322425765422 
2.570000000000999, -0.7349922015095864 
2.58000000000102, -0.7342753948140779 
2.5900000000010412, -0.7336106205825086 
2.6000000000010624, -0.7330370947468905 
2.6100000000010835, -0.7326034742763476 
2.6200000000011046, -0.7323652665179248 
2.6300000000011257, -0.7323803815290673 
2.6400000000011468, -0.7327034691111048 
2.650000000001168, -0.7333805133414331 
2.660000000001189, -0.7344451748233229 
2.67000000000121, -0.7359173094555383 
2.680000000001231, -0.737802376262677 
2.6900000000012523, -0.7400889005088614 
2.7000000000012734, -0.742740750522748 
2.7100000000012945, -0.7456830218714857 
2.7200000000013156, -0.7487863081581533 
2.7300000000013367, -0.7518631636556476 
2.740000000001358, -0.7546940426402491 
2.750000000001379, -0.7570841273289719 
2.7600000000014, -0.7589214806429632 
2.770000000001421, -0.7601968878088924 
2.780000000001442, -0.7609770137719013 
2.7900000000014633, -0.7613582871390508 
2.8000000000014844, -0.7614307915287812 
2.8100000000015055, -0.7612614836715951 
2.8200000000015266, -0.7608918438438498 
2.8300000000015477, -0.7603432578224817 
2.840000000001569, -0.7596275667383929 
2.85000000000159, -0.7587652847336862 
2.860000000001611, -0.757818623936741 
2.870000000001632, -0.7569494193906967 
2.8800000000016532, -0.7565077912239051 
2.8900000000016743, -0.7571324093683572 
2.9000000000016954, -0.7597807211947502 
2.9100000000017165, -0.7655242485936058 
2.9200000000017377, -0.7749728153677238 
2.9300000000017588, -0.7875557204727772 
2.94000000000178, -0.8014021297860122 
2.950000000001801, -0.8142561606949551 
2.960000000001822, -0.8246365364342705 
2.970000000001843, -0.8321932897940055 
2.9800000000018643, -0.837312307280963 
2.9900000000018854, -0.8406106447141386 
3.0000000000019065, -0.8426499948153969 
3.0100000000019276, -0.8438472392943055 
3.0200000000019487, -0.844479237930552 
3.03000000000197, -0.8447138419819021 
3.040000000001991, -0.8446381565163941 
3.050000000002012, -0.8442752084988465 
3.060000000002033, -0.8435870724972542 
3.070000000002054, -0.8424633835940327 
3.0800000000020753, -0.84069377048476 
3.0900000000020964, -0.8379259375809 
3.1000000000021175, -0.8336267770657593 
3.1100000000021386, -0.8271037945326263 
3.1200000000021597, -0.817696193382857 
3.130000000002181, -0.8052086035179036 
3.140000000002202, -0.7903879921998117 
3.150000000002223, -0.7749324776230307 
3.160000000002244, -0.7608042755666707 
3.1700000000022652, -0.7493806093649068 
3.1800000000022863, -0.7411033864741804 
3.1900000000023074, -0.7356748709361064 
3.2000000000023285, -0.7324450260746973 
3.2100000000023496, -0.730719950548947 
3.2200000000023707, -0.72992198143531 
3.230000000002392, -0.7296353939874649 
3.240000000002413, -0.7295902702103292 
3.250000000002434, -0.7296240210002705 
3.260000000002455, -0.7296424859833854 
3.2700000000024763, -0.729589363199 
3.2800000000024974, -0.7294254611820655 
3.2900000000025185, -0.7291167157803586 
3.3000000000025396, -0.728630066689755 
3.3100000000025607, -0.7279369888613295 
3.3200000000025818, -0.7270234893641782 
3.330000000002603, -0.7259015978411046 
3.340000000002624, -0.7246136818464969 
3.350000000002645, -0.7232235986908288 
3.360000000002666, -0.7217985616624337 
3.3700000000026873, -0.7203929634979673 
3.3800000000027084, -0.7190423708194262 
3.3900000000027295, -0.7177673275070894 
3.4000000000027506, -0.7165814410193525 
3.4100000000027717, -0.7154986455236638 
3.420000000002793, -0.7145373420393908 
3.430000000002814, -0.7137213186545797 
3.440000000002835, -0.7130782008290657 
3.450000000002856, -0.7126363016836759 
3.460000000002877, -0.7124208109000006 
3.4700000000028983, -0.7124503993985276 
3.4800000000029194, -0.7127352646309951 
3.4900000000029405, -0.7132771885959777 
3.5000000000029616, -0.7140714052055339 
3.5100000000029827, -0.7151092495717497 
3.520000000003004, -0.7163799255360287 
3.530000000003025, -0.7178694045048284 
3.540000000003046, -0.7195547164803635 
3.550000000003067, -0.721393442216666 
3.5600000000030882, -0.7233119762246552 
3.5700000000031094, -0.7252013554867154 
3.5800000000031305, -0.726931002596664 
3.5900000000031516, -0.7283812655296379 
3.6000000000031727, -0.7294781389968583 
3.6100000000031938, -0.7302074401116518 
3.620000000003215, -0.7306020719614212 
3.630000000003236, -0.730716262411011 
3.640000000003257, -0.7306037161835205 
3.650000000003278, -0.73030678560896 
3.6600000000032993, -0.7298556029187857 
3.6700000000033204, -0.7292746605307043 
3.6800000000033415, -0.7285969001595826 
3.6900000000033626, -0.7278889587611215 
3.7000000000033837, -0.7272940273605141 
3.710000000003405, -0.7270980076897247 
3.720000000003426, -0.727813560562147 
3.730000000003447, -0.7302435724484206 
3.740000000003468, -0.735423504586263 
3.750000000003489, -0.744288498717099 
3.7600000000035103, -0.7570139118122164 
3.7700000000035314, -0.7724044999472062 
3.7800000000035525, -0.7881034436319457 
3.7900000000035736, -0.8017864218042655 
3.8000000000035947, -0.8122640661773947 
3.810000000003616, -0.8195629386326486 
3.820000000003637, -0.8243349480283616 
3.830000000003658, -0.8273229062358576 
3.840000000003679, -0.8291231444179272 
3.8500000000037002, -0.8301464229595767 
3.8600000000037213, -0.8306514735974961 
3.8700000000037424, -0.8307875357855868 
3.8800000000037635, -0.8306252124452514 
3.8900000000037847, -0.8301719834424303 
3.9000000000038058, -0.8293726224730206 
3.910000000003827, -0.8280941059759211 
3.920000000003848, -0.8260940646102428 
3.930000000003869, -0.8229767821851753 
3.94000000000389, -0.81816135186802 
3.9500000000039113, -0.8109332925219421 
3.9600000000039324, -0.8006964544207393 
3.9700000000039535, -0.7874565701965488 
3.9800000000039746, -0.7722359239805257 
3.9900000000039957, -0.7568924467938904 
4.000000000004016, -0.7433055662617399 
4.010000000003993, -0.7326098336350735 
4.02000000000397, -0.7250179171840652 
4.030000000003946, -0.7201102671706889 
4.040000000003923, -0.7172161893695008 
4.0500000000039, -0.7156764856557694 
4.0600000000038765, -0.7149633554796732 
4.070000000003853, -0.714704302286395 
4.08000000000383, -0.7146591534451965 
4.090000000003807, -0.7146827025497375 
4.100000000003783, -0.7146895923270862 
4.11000000000376, -0.7146274924737677 
4.120000000003737, -0.7144592676895588 
4.130000000003713, -0.7141531891288019 
4.14000000000369, -0.7136805004706137 
4.150000000003667, -0.7130198718827032 
4.1600000000036434, -0.7121666372785579 
4.17000000000362, -0.711141102201888 
4.180000000003597, -0.7099883661887268 
4.1900000000035735, -0.708766833419695 
4.20000000000355, -0.7075315624953291 
4.210000000003527, -0.7063224773892517 
4.220000000003504, -0.7051625040108076 
4.23000000000348, -0.7040633660904729 
4.240000000003457, -0.703033678956581 
4.250000000003434, -0.7020853431682585 
4.26000000000341, -0.701236915629559 
4.270000000003387, -0.7005143159834961 
4.280000000003364, -0.6999495883354341 
4.2900000000033405, -0.699578263778283 
4.300000000003317, -0.6994358557732763 
4.310000000003294, -0.6995542687318458 
4.320000000003271, -0.6999590830301095 
4.330000000003247, -0.7006684540814302 
4.340000000003224, -0.701693655719485 
4.350000000003201, -0.7030403091211216 
4.360000000003177, -0.7047083631214909 
4.370000000003154, -0.706688257354934 
4.380000000003131, -0.7089510339232425 
4.390000000003107, -0.7114327494637391 
4.400000000003084, -0.7140196597907289 
4.410000000003061, -0.7165482641332394 
4.4200000000030375, -0.7188338890326728 
4.430000000003014, -0.7207227529478809 
4.440000000002991, -0.7221368966808244 
4.450000000002968, -0.7230818941917293 
4.460000000002944, -0.7236187749130771 
4.470000000002921, -0.723826057676711 
4.480000000002898, -0.7237729504081389 
4.490000000002874, -0.7235080006569804 
4.500000000002851, -0.723058299231726 
4.510000000002828, -0.7224343645980286 
4.520000000002804, -0.7216395164851985 
4.530000000002781, -0.7206866204900273 
4.540000000002758, -0.7196286684323059 
4.5500000000027345, -0.718610988175421 
4.560000000002711, -0.7179454092469696 
4.570000000002688, -0.7181765392911224 
4.580000000002665, -0.7200474922881976 
4.590000000002641, -0.724225406575327 
4.600000000002618, -0.730790056844406 
4.610000000002595, -0.7389069657602804 
4.620000000002571, -0.7472089448786592 
4.630000000002548, -0.7545872694045002 
4.640000000002525, -0.7605565592038157 
4.6500000000025015, -0.7650907221831089 
4.660000000002478, -0.7683722644320498 
4.670000000002455, -0.7706481583663578 
4.6800000000024315, -0.7721594857181986 
4.690000000002408, -0.7731072825523585 
4.700000000002385, -0.7736408473857727 
4.710000000002362, -0.773858793198367 
4.720000000002338, -0.7738141588744949 
4.730000000002315, -0.7735177386392785 
4.740000000002292, -0.772936519006521 
4.750000000002268, -0.7719862184208437 
4.760000000002245, -0.7705199869871721 
4.770000000002222, -0.7683222428335335 
4.7800000000021985, -0.7651288582595448 
4.790000000002175, -0.7607032315600649 
4.800000000002152, -0.7549730663259444 
4.810000000002129, -0.7481576624881641 
4.820000000002105, -0.7407646445824949 
4.830000000002082, -0.7334236913203169 
4.840000000002059, -0.7266781886464457 
4.850000000002035, -0.7208700271308462 
4.860000000002012, -0.7161380192607454 
4.870000000001989, -0.712472224151506 
4.880000000001965, -0.709772381455311 
4.890000000001942, -0.7078914867600943 
4.900000000001919, -0.7066652064879994 
4.9100000000018955, -0.7059320286222845 
4.920000000001872, -0.7055469078963559 
4.930000000001849, -0.7053890131208302 
