t, s[1].omega / s[0].omega 
0, -0.6999976929119167 
0.009999999999999995, -0.6997644524749492 
0.019999999999999934, -0.6995181088094856 
0.029999999999999874, -0.6992388471359615 
0.04000000000000012, -0.6989053947358818 
0.050000000000000405, -0.6985051595787629 
0.06000000000000069, -0.698039800170702 
0.07000000000000098, -0.6975263573818233 
0.08000000000000126, -0.6969972748761671 
0.09000000000000155, -0.6965024330906445 
0.10000000000000184, -0.6961141837112689 
0.11000000000000212, -0.6959342401209591 
0.12000000000000241, -0.6960998924771472 
0.130000000000002, -0.6967865426307185 
0.1400000000000009, -0.6982041891416679 
0.1499999999999998, -0.7005869635820642 
0.1599999999999987, -0.7041756625375587 
0.1699999999999976, -0.709191205387327 
0.1799999999999965, -0.715791186552797 
0.1899999999999954, -0.7239961539319436 
0.1999999999999943, -0.7335803565926624 
0.2099999999999932, -0.743965208973583 
0.2199999999999921, -0.754228510206693 
0.229999999999991, -0.763347345942792 
0.2399999999999899, -0.7705960768388013 
0.2499999999999888, -0.7757914590195718 
0.2599999999999877, -0.7792007221335251 
0.2699999999999866, -0.7812708682756453 
0.2799999999999855, -0.7824169384842676 
0.2899999999999844, -0.7829400878859166 
0.2999999999999833, -0.7830264740713158 
0.3099999999999822, -0.7827705974587508 
0.3199999999999811, -0.7821952762953897 
0.32999999999998, -0.7812601371534331 
0.3399999999999789, -0.7798580702320641 
0.3499999999999778, -0.7778014049019638 
0.35999999999997667, -0.7748014970858492 
0.36999999999997557, -0.770448237979697 
0.37999999999997447, -0.7641960540820517 
0.38999999999997337, -0.7553591982953842 
0.39999999999997227, -0.7431642554518574 
0.40999999999997117, -0.727126595974475 
0.41999999999997006, -0.7080735496871245 
0.42999999999996896, -0.6888945279837951 
0.43999999999996786, -0.6731442360937121 
0.44999999999996676, -0.662607364450775 
0.45999999999996566, -0.6568004284390103 
0.46999999999996456, -0.6542137118951603 
0.47999999999996346, -0.6534240022841155 
0.48999999999996235, -0.6534727044146923 
0.49999999999996125, -0.6538213778161741 
0.5099999999999602, -0.6542035721988108 
0.519999999999959, -0.6545008313519963 
0.529999999999958, -0.6546642759506281 
0.5399999999999568, -0.654670757137287 
0.5499999999999557, -0.6544998396793474 
0.5599999999999546, -0.6541227281952998 
0.5699999999999535, -0.6534996893733467 
0.5799999999999524, -0.6525867057510345 
0.5899999999999513, -0.6513530141703591 
0.5999999999999502, -0.6498056715474941 
0.6099999999999491, -0.6480066763482409 
0.619999999999948, -0.6460652578000088 
0.6299999999999469, -0.6441047280135258 
0.6399999999999458, -0.6422254558035936 
0.6499999999999447, -0.6404862792154924 
0.6599999999999436, -0.6389081654089112 
0.6699999999999425, -0.6374896662450296 
0.6799999999999414, -0.636222924501471 
0.6899999999999403, -0.6351046404897401 
0.6999999999999392, -0.6341413820281294 
0.7099999999999381, -0.6333508496845148 
0.719999999999937, -0.6327608663777566 
0.7299999999999359, -0.632407247275143 
0.7399999999999348, -0.6323312418185345 
0.7499999999999337, -0.632577157088731 
0.7599999999999326, -0.6331908350541178 
0.7699999999999315, -0.6342195247599393 
0.7799999999999304, -0.6357131365399578 
0.7899999999999293, -0.6377257868343814 
0.7999999999999282, -0.6403148737977367 
0.8099999999999271, -0.6435327128895556 
0.819999999999926, -0.6474038495420897 
0.8299999999999249, -0.6518828807303756 
0.8399999999999238, -0.6568001479998331 
0.8499999999999227, -0.6618304273876751 
0.8599999999999216, -0.6665405486813627 
0.8699999999999205, -0.6705305657773772 
0.8799999999999194, -0.6735819101696743 
0.8899999999999183, -0.6756970453126735 
0.8999999999999172, -0.677022817807365 
0.9099999999999161, -0.6777449226476866 
0.919999999999915, -0.6780202278440927 
0.9299999999999139, -0.6779526967647298 
0.9399999999999128, -0.6775917895000836 
0.9499999999999117, -0.6769350178377687 
0.9599999999999106, -0.675924683231707 
0.9699999999999095, -0.6744327354268357 
0.9799999999999084, -0.6722263163263518 
0.9899999999999073, -0.6689003358109916 
0.9999999999999062, -0.6637544035084619 
1.0099999999999052, -0.6556004271813258 
1.019999999999904, -0.6426074896047776 
1.029999999999903, -0.6226876821654057 
1.039999999999902, -0.5952196273188616 
1.0499999999999008, -0.5632720692126616 
1.0599999999998997, -0.5327804712198317 
1.0699999999998986, -0.5084247744980105 
1.0799999999998975, -0.49135270408328846 
1.0899999999998964, -0.4803345908866271 
1.0999999999998953, -0.4735606606485482 
1.1099999999998942, -0.4695202979788487 
1.119999999999893, -0.46716920189243166 
1.129999999999892, -0.4658412549281796 
1.1399999999998909, -0.4651263488403523 
1.1499999999998898, -0.46477582268118 
1.1599999999998887, -0.46464000681474377 
1.1699999999998876, -0.46462954507535903 
1.1799999999998865, -0.4646923801049517 
1.1899999999998854, -0.46480083417643314 
1.1999999999998843, -0.4649452688619219 
1.2099999999998832, -0.46513179051323306 
1.219999999999882, -0.46538144283507304 
1.229999999999881, -0.4657278679312066 
1.2399999999998799, -0.4662105789923481 
1.2499999999998788, -0.46686251179048277 
1.2599999999998777, -0.46769319172046975 
1.2699999999998766, -0.46867246614616825 
1.2799999999998755, -0.4697240787933037 
1.2899999999998744, -0.470739017683362 
1.2999999999998733, -0.4716079267412532 
1.3099999999998722, -0.47225453633963366 
1.319999999999871, -0.4726489583403188 
1.32999999999987, -0.47279725060591293 
1.3399999999998689, -0.4727202299109843 
1.3499999999998678, -0.4724343594811141 
1.3599999999998666, -0.47193831877153586 
1.3699999999998655, -0.471201812830807 
1.3799999999998644, -0.4701499658240017 
1.3899999999998633, -0.46863360707947416 
1.3999999999998622, -0.46636947769091713 
1.4099999999998611, -0.46282588774802047 
1.41999999999986, -0.45704043052558463 
1.429999999999859, -0.4474751412749106 
1.4399999999998578, -0.4323731823189565 
1.4499999999998567, -0.4112682952783365 
1.4599999999998556, -0.38672932378716035 
1.4699999999998545, -0.36336871247118213 
1.4799999999998534, -0.34453096205538386 
1.4899999999998523, -0.33089445605381546 
1.4999999999998512, -0.32154988199458223 
1.5099999999998501, -0.31526893116330507 
1.519999999999849, -0.31104976544634305 
1.529999999999848, -0.3081993808026792 
1.5399999999998468, -0.30626923702965664 
1.5499999999998457, -0.30497774443756065 
1.5599999999998446, -0.30415273615003807 
1.5699999999998435, -0.3036947877098203 
1.5799999999998424, -0.3035560274407725 
1.5899999999998413, -0.30372989672619277 
1.5999999999998402, -0.30424929663060596 
1.6099999999998391, -0.30519235268207295 
1.619999999999838, -0.3066964407516831 
1.629999999999837, -0.3089818157000223 
1.6399999999998358, -0.3123845870476986 
1.6499999999998347, -0.3173897093774765 
1.6599999999998336, -0.32462573129715766 
1.6699999999998325, -0.334720294895294 
1.6799999999998314, -0.34786350785276166 
1.6899999999998303, -0.3631305277531215 
1.6999999999998292, -0.37829033117395994 
1.709999999999828, -0.39092919961809747 
1.719999999999827, -0.3999542255543424 
1.729999999999826, -0.4057429748610465 
1.7399999999998248, -0.40925032334000483 
1.7499999999998237, -0.41132436123297794 
1.7599999999998226, -0.41252753982818957 
1.7699999999998215, -0.4131895797407251 
1.7799999999998204, -0.4134922750604787 
1.7899999999998193, -0.4135293446230017 
1.7999999999998182, -0.4133410480937732 
1.809999999999817, -0.41293385361892626 
1.819999999999816, -0.41229448534028446 
1.8299999999998149, -0.4114055630216364 
1.8399999999998138, -0.4102664827796243 
1.8499999999998127, -0.40891534726269985 
1.8599999999998116, -0.4074381427787925 
1.8699999999998105, -0.405952340977331 
1.8799999999998094, -0.4045706486933568 
1.8899999999998083, -0.40336812358342183 
1.8999999999998072, -0.40237027433510386 
1.909999999999806, -0.4015609248943277 
1.919999999999805, -0.4008990161229288 
1.9299999999998039, -0.40033565421520223 
1.9399999999998028, -0.3998270850609966 
1.9499999999998017, -0.39934193717329375 
1.9599999999998006, -0.3988632400971531 
1.9699999999997995, -0.39838760732876555 
1.9799999999997984, -0.39792462847884813 
1.9899999999997973, -0.39749909948394846 
1.9999999999997962, -0.3971583655726102 
2.0099999999998173, -0.3969875706341236 
2.0199999999998384, -0.3971369078839493 
2.0299999999998595, -0.39786531180185997 
2.0399999999998806, -0.399597262462683 
2.0499999999999017, -0.40294933130017396 
2.059999999999923, -0.4085525576847001 
2.069999999999944, -0.4162502078400795 
2.079999999999965, -0.4234108885162615 
2.089999999999986, -0.424295771831355 
2.100000000000007, -0.41462937364496655 
2.1100000000000283, -0.3975288768412405 
2.1200000000000494, -0.38024628482938455 
2.1300000000000705, -0.3670971512928303 
2.1400000000000916, -0.35847819679416726 
2.1500000000001127, -0.35322259859472427 
2.160000000000134, -0.3501218551760576 
2.170000000000155, -0.34832406535319294 
2.180000000000176, -0.34730058820658194 
2.190000000000197, -0.3467388434657485 
2.2000000000002182, -0.34645753541255836 
2.2100000000002393, -0.34635318331837117 
2.2200000000002604, -0.34636919735707794 
2.2300000000002815, -0.3464791049108708 
2.2400000000003026, -0.346678460407999 
2.2500000000003237, -0.346982068597977 
2.260000000000345, -0.3474240507895966 
2.270000000000366, -0.34805828306295805 
2.280000000000387, -0.34895626862545964 
2.290000000000408, -0.35019876166993635 
2.3000000000004293, -0.35185641658583644 
2.3100000000004504, -0.3539552436660936 
2.3200000000004715, -0.35643139890806796 
2.3300000000004926, -0.35910210129336917 
2.3400000000005137, -0.3616954686186906 
2.3500000000005348, -0.36394701588230566 
2.360000000000556, -0.36569775903822266 
2.370000000000577, -0.36691992861618006 
2.380000000000598, -0.3676723358999815 
2.390000000000619, -0.36803956936857596 
2.4000000000006403, -0.36809137195430897 
2.4100000000006614, -0.36786437703796165 
2.4200000000006825, -0.3673548312939164 
2.4300000000007036, -0.36651293576066324 
2.4400000000007247, -0.36523590332587724 
2.450000000000746, -0.3633656778469796 
2.460000000000767, -0.3607106479428897 
2.470000000000788, -0.35712144219289516 
2.480000000000809, -0.3526252293176769 
2.49000000000083, -0.34753193817672834 
2.5000000000008513, -0.34236875687997326 
2.5100000000008724, -0.33764647784083524 
2.5200000000008935, -0.3336614794851951 
2.5300000000009146, -0.3304720144552843 
2.5400000000009357, -0.3279887294011495 
2.550000000000957, -0.3260701111125445 
2.560000000000978, -0.32457873705833756 
2.570000000000999, -0.32340394602411504 
2.58000000000102, -0.32246677253272116 
2.5900000000010412, -0.32171805519498337 
2.6000000000010624, -0.3211354557506789 
2.6100000000010835, -0.3207224530864537 
2.6200000000011046, -0.32051143586977443 
2.6300000000011257, -0.32057323334738763 
2.6400000000011468, -0.3210367875777632 
2.650000000001168, -0.32212543858638243 
2.660000000001189, -0.3242204623973895 
2.67000000000121, -0.3279655844224898 
2.680000000001231, -0.33441441000586464 
2.6900000000012523, -0.34514469402197984 
2.7000000000012734, -0.3619964913651476 
2.7100000000012945, -0.38564026351367653 
2.7200000000013156, -0.4127997293120226 
2.7300000000013367, -0.43586756868675514 
2.740000000001358, -0.44912145922522473 
2.750000000001379, -0.4537629641694719 
2.7600000000014, -0.4542766535291288 
2.770000000001421, -0.45376716456665556 
2.780000000001442, -0.4533682167937167 
2.7900000000014633, -0.453253436690388 
2.8000000000014844, -0.453329572295692 
2.8100000000015055, -0.45348638504061434 
2.8200000000015266, -0.45364952479625564 
2.8300000000015477, -0.4537765682734466 
2.840000000001569, -0.4538442831744912 
2.85000000000159, -0.45383897592578337 
2.860000000001611, -0.4537515059475111 
2.870000000001632, -0.45357661597560367 
2.8800000000016532, -0.4533160123104215 
2.8900000000016743, -0.45298375545180003 
2.9000000000016954, -0.4526105798310727 
2.9100000000017165, -0.45224248216264495 
2.9200000000017377, -0.45193107464473997 
2.9300000000017588, -0.45171849056975455 
2.94000000000178, -0.4516233784170992 
2.950000000001801, -0.45163376460531 
2.960000000001822, -0.45170962969621786 
2.970000000001843, -0.45179492265246235 
2.9800000000018643, -0.451834499243945 
2.9900000000018854, -0.45178796893748896 
3.0000000000019065, -0.4516343889982923 
3.0100000000019276, -0.45136829468103146 
3.0200000000019487, -0.45099212618258766 
3.03000000000197, -0.4505096439691302 
3.040000000001991, -0.4499221038350091 
3.050000000002012, -0.44922676782716114 
3.060000000002033, -0.448415923715835 
3.070000000002054, -0.4474716900332811 
3.0800000000020753, -0.4463420773526897 
3.0900000000020964, -0.44485504717676144 
3.1000000000021175, -0.4424644017967677 
3.1100000000021386, -0.4376772476381949 
3.1200000000021597, -0.4273879056595291 
3.130000000002181, -0.4078094112214516 
3.140000000002202, -0.37887239872600775 
3.150000000002223, -0.34710536584860424 
3.160000000002244, -0.320204787217521 
3.1700000000022652, -0.3010783037567089 
3.1800000000022863, -0.28866457880211654 
3.1900000000023074, -0.2808792970777071 
3.2000000000023285, -0.2760176294403556 
3.2100000000023496, -0.27296038956312685 
3.2200000000023707, -0.2710275135440362 
3.230000000002392, -0.2698163591690884 
3.240000000002413, -0.26909142223298477 
3.250000000002434, -0.2687186657723578 
3.260000000002455, -0.2686288544833838 
3.2700000000024763, -0.26879871542937533 
3.2800000000024974, -0.26924358340990323 
3.2900000000025185, -0.27001849555976865 
3.3000000000025396, -0.2712266904280565 
3.3100000000025607, -0.27303525555447333 
3.3200000000025818, -0.27569627317074813 
3.330000000002603, -0.2795645941168544 
3.340000000002624, -0.2850823150091398 
3.350000000002645, -0.2926595984870327 
3.360000000002666, -0.3023623530764087 
3.3700000000026873, -0.31347962426362874 
3.3800000000027084, -0.3244603204261821 
3.3900000000027295, -0.333676081131451 
3.4000000000027506, -0.34036955743994 
3.4100000000027717, -0.3447536797134068 
3.420000000002793, -0.34745556364531716 
3.430000000002814, -0.34906236825993137 
3.440000000002835, -0.34998015812233724 
3.450000000002856, -0.35045416408193414 
3.460000000002877, -0.35062113723258137 
3.4700000000028983, -0.35055028168629676 
3.4800000000029194, -0.3502691122498916 
3.4900000000029405, -0.3497805460418539 
3.5000000000029616, -0.349078063250697 
3.5100000000029827, -0.34816341444504745 
3.520000000003004, -0.34706579513237834 
3.530000000003025, -0.3458534292667437 
3.540000000003046, -0.34462596583855204 
3.550000000003067, -0.34348737851125966 
3.5600000000030882, -0.3425153670348352 
3.5700000000031094, -0.3417446361891918 
3.5800000000031305, -0.34116765759382217 
3.5900000000031516, -0.34074597793631217 
3.6000000000031727, -0.34042512161572086 
3.6100000000031938, -0.34014913197078056 
3.620000000003215, -0.3398715594325508 
3.630000000003236, -0.33956035913594024 
3.640000000003257, -0.3391967184673919 
3.650000000003278, -0.33877032503686033 
3.6600000000032993, -0.33827379831896814 
3.6700000000033204, -0.337697316614301 
3.6800000000033415, -0.33702204728962076 
3.6900000000033626, -0.3362073582159585 
3.7000000000033837, -0.3351585928024802 
3.710000000003405, -0.3336419401494774 
3.720000000003426, -0.33107270854189325 
3.730000000003447, -0.3260818415133878 
3.740000000003468, -0.31603788301794633 
3.750000000003489, -0.29779990571467146 
3.7600000000035103, -0.27133427061988624 
3.7700000000035314, -0.2423893330281895 
3.7800000000035525, -0.21789197443990055 
3.7900000000035736, -0.20045094777853287 
3.8000000000035947, -0.18905442190763963 
3.810000000003616, -0.18179716680069316 
3.820000000003637, -0.17714907939066304 
3.830000000003658, -0.17411875048666586 
3.840000000003679, -0.17210964065317064 
3.8500000000037002, -0.17077253783936902 
3.8600000000037213, -0.1699083740484386 
3.8700000000037424, -0.1694126170596178 
3.8800000000037635, -0.16924701171348572 
3.8900000000037847, -0.1694298576034284 
3.9000000000038058, -0.170041789399173 
3.910000000003827, -0.1712494308537538 
3.920000000003848, -0.1733555962555674 
3.930000000003869, -0.17689272959700852 
3.94000000000389, -0.18278116729710364 
3.9500000000039113, -0.19254336558357865 
3.9600000000039324, -0.2083744599399297 
3.9700000000039535, -0.23227376883741618 
3.9800000000039746, -0.2629869516013868 
3.9900000000039957, -0.2929501522401191 
4.000000000004016, -0.3131944976647701 
4.010000000003993, -0.3223111441235512 
4.02000000000397, -0.32488155367332594 
4.030000000003946, -0.3250452111821326 
4.040000000003923, -0.3246945111353114 
4.0500000000039, -0.32439515888079923 
4.0600000000038765, -0.3242330285098124 
4.070000000003853, -0.324173450408165 
4.08000000000383, -0.3241707815427466 
4.090000000003807, -0.3241920956501815 
4.100000000003783, -0.3242179345033747 
4.11000000000376, -0.3242394426010312 
4.120000000003737, -0.3242569033118999 
4.130000000003713, -0.3242805210583375 
4.14000000000369, -0.3243328291951897 
4.150000000003667, -0.3244510622873229 
4.1600000000036434, -0.3246870868440305 
4.17000000000362, -0.3251026531295583 
4.180000000003597, -0.32575870161614845 
4.1900000000035735, -0.32669818665249584 
4.20000000000355, -0.3279230951141223 
4.210000000003527, -0.32937207141770986 
4.220000000003504, -0.3309154465986157 
4.23000000000348, -0.3323849256604939 
4.240000000003457, -0.33362993952465053 
4.250000000003434, -0.33456314789164643 
4.26000000000341, -0.3351660828775411 
4.270000000003387, -0.33546280006396584 
4.280000000003364, -0.3354872481900499 
4.2900000000033405, -0.33525950179826147 
4.300000000003317, -0.3347709279675745 
4.310000000003294, -0.33397224275267223 
4.320000000003271, -0.33275953176732426 
4.330000000003247, -0.3309591984860658 
4.340000000003224, -0.32832641052015327 
4.350000000003201, -0.3245950020435194 
4.360000000003177, -0.31962481238124757 
4.370000000003154, -0.31361112664004326 
4.380000000003131, -0.3071534098638296 
4.390000000003107, -0.30101115604495865 
4.400000000003084, -0.29573665488701417 
4.410000000003061, -0.29152118923058384 
4.4200000000030375, -0.28828803801161024 
4.430000000003014, -0.2858488146700125 
4.440000000002991, -0.2840066683257025 
4.450000000002968, -0.2825988675097564 
4.460000000002944, -0.2815058646233552 
4.470000000002921, -0.280647689898177 
4.480000000002898, -0.27997778871288986 
4.490000000002874, -0.2794785594474611 
4.500000000002851, -0.2791607059072313 
4.510000000002828, -0.27906825101253774 
4.520000000002804, -0.2792920013112904 
4.530000000002781, -0.279996465127903 
4.540000000002758, -0.281468825325545 
4.5500000000027345, -0.28420200389832295 
4.560000000002711, -0.28901695026681556 
4.570000000002688, -0.2971695448487724 
4.580000000002665, -0.3101536844479923 
4.590000000002641, -0.3284108770545574 
4.600000000002618, -0.34842420488698467 
4.610000000002595, -0.3618332752558544 
4.620000000002571, -0.3627494011839806 
4.630000000002548, -0.354650264958961 
4.640000000002525, -0.34475494872942425 
4.6500000000025015, -0.33697442112048553 
4.660000000002478, -0.33186003483905346 
4.670000000002455, -0.3287586440772277 
4.6800000000024315, -0.3269493137681651 
4.690000000002408, -0.3259203572395047 
4.700000000002385, -0.3253542626477973 
4.710000000002362, -0.32506409027966093 
4.720000000002338, -0.324942846025269 
4.730000000002315, -0.32493174884807896 
4.740000000002292, -0.3250023888808714 
4.750000000002268, -0.325147877691388 
4.760000000002245, -0.32537966877264807 
4.770000000002222, -0.32572766292366395 
4.7800000000021985, -0.3262413371665315 
4.790000000002175, -0.3269892867535094 
4.800000000002152, -0.3280539872399509 
4.810000000002129, -0.3295175193158094 
4.820000000002105, -0.3314330135030464 
4.830000000002082, -0.33378067725204613 
4.840000000002059, -0.33642517534674293 
4.850000000002035, -0.3391163543551271 
4.860000000002012, -0.34156520165094284 
4.870000000001989, -0.34355645416368097 
