t, s[1].omega / s[0].omega 
0, -0.4999977588689881 
0.009999999999999995, -0.4998091709056367 
0.019999999999999934, -0.49967939594565713 
0.029999999999999874, -0.4995783045334714 
0.04000000000000012, -0.49946794906180525 
0.050000000000000405, -0.49931457767191245 
0.06000000000000069, -0.4990963950403571 
0.07000000000000098, -0.4988049248691085 
0.08000000000000126, -0.49844204682593807 
0.09000000000000155, -0.4980164444248431 
0.10000000000000184, -0.49754228999824707 
0.11000000000000212, -0.49704164449567384 
0.12000000000000241, -0.4965516420606296 
0.130000000000002, -0.49613801169975885 
0.1400000000000009, -0.4959168571693479 
0.1499999999999998, -0.4960843468578629 
0.1599999999999987, -0.4969423738602633 
0.1699999999999976, -0.49887329311828826 
0.1799999999999965, -0.5021497106866799 
0.1899999999999954, -0.5064488203261253 
0.1999999999999943, -0.5102997947317787 
0.2099999999999932, -0.5115048756648297 
0.2199999999999921, -0.5090606745818187 
0.229999999999991, -0.5043003759591337 
0.2399999999999899, -0.4994305284481476 
0.2499999999999888, -0.4957473232015758 
0.2599999999999877, -0.4934388186878557 
0.2699999999999866, -0.49218212691506025 
0.2799999999999855, -0.4915899971775125 
0.2899999999999844, -0.4913687611776846 
0.2999999999999833, -0.4913306526206761 
0.3099999999999822, -0.49136521077592227 
0.3199999999999811, -0.49140991588663274 
0.32999999999998, -0.49142934388946174 
0.3399999999999789, -0.49140247206841386 
0.3499999999999778, -0.49131613345753367 
0.35999999999997667, -0.49116309624703325 
0.36999999999997557, -0.49094363494724613 
0.37999999999997447, -0.49066892137738805 
0.38999999999997337, -0.4903632499363904 
0.39999999999997227, -0.4900615586037997 
0.40999999999997117, -0.4898007989237157 
0.41999999999997006, -0.4896078526047396 
0.42999999999996896, -0.48948948034420425 
0.43999999999996786, -0.4894290890752604 
0.44999999999996676, -0.48939201732511844 
0.45999999999996566, -0.4893371348711459 
0.46999999999996456, -0.4892292167573279 
0.47999999999996346, -0.489046347612789 
0.48999999999996235, -0.48878042316350656 
0.49999999999996125, -0.4884332434924059 
0.5099999999999602, -0.4880121363961642 
0.519999999999959, -0.48752780546618535 
0.529999999999958, -0.486995533947116 
0.5399999999999568, -0.48644029170167996 
0.5499999999999557, -0.4859064033938504 
0.5599999999999546, -0.48547187141826537 
0.5699999999999535, -0.4852629889700662 
0.5799999999999524, -0.4854489143577555 
0.5899999999999513, -0.4861564227023648 
0.5999999999999502, -0.48719447109221636 
0.6099999999999491, -0.4875690253142525 
0.619999999999948, -0.4853331608545356 
0.6299999999999469, -0.4788637342812656 
0.6399999999999458, -0.46890611571689594 
0.6499999999999447, -0.45830625619987775 
0.6599999999999436, -0.44952128280901926 
0.6699999999999425, -0.44333708040166186 
0.6799999999999414, -0.4394049328045592 
0.6899999999999403, -0.4370615293328276 
0.6999999999999392, -0.43573014061490245 
0.7099999999999381, -0.4350085671264372 
0.719999999999937, -0.4346417612057495 
0.7299999999999359, -0.4344751717069286 
0.7399999999999348, -0.43441728331002316 
0.7499999999999337, -0.434414776728528 
0.7599999999999326, -0.43443757225406865 
0.7699999999999315, -0.43447072198298364 
0.7799999999999304, -0.43451093207548375 
0.7899999999999293, -0.43456596375154233 
0.7999999999999282, -0.43465496539643167 
0.8099999999999271, -0.43480729679212676 
0.819999999999926, -0.43505752570255296 
0.8299999999999249, -0.43543568738431804 
0.8399999999999238, -0.43595425836558477 
0.8499999999999227, -0.43659588817220685 
0.8599999999999216, -0.4373083210648324 
0.8699999999999205, -0.4380129053994789 
0.8799999999999194, -0.4386265157193384 
0.8899999999999183, -0.43908579845686607 
0.8999999999999172, -0.43935937528395896 
0.9099999999999161, -0.4394435141814232 
0.919999999999915, -0.43934832327766316 
0.9299999999999139, -0.4390834393745629 
0.9399999999999128, -0.43864693316423164 
0.9499999999999117, -0.43801597078722265 
0.9599999999999106, -0.43713504482904975 
0.9699999999999095, -0.43589581735483607 
0.9799999999999084, -0.4341004348284157 
0.9899999999999073, -0.4314000975034144 
0.9999999999999062, -0.42721716640308427 
1.0099999999999052, -0.42072915059110205 
1.019999999999904, -0.41112927893208584 
1.029999999999903, -0.3983405078402603 
1.039999999999902, -0.3836798367006889 
1.0499999999999008, -0.3693952928419574 
1.0599999999998997, -0.357292384784372 
1.0699999999998986, -0.3479946069761669 
1.0799999999998975, -0.3412450614716031 
1.0899999999998964, -0.3364722512404214 
1.0999999999998953, -0.3331251249718709 
1.1099999999998942, -0.3307797057277343 
1.119999999999893, -0.32913993728328556 
1.129999999999892, -0.32800937039266287 
1.1399999999998909, -0.32726303053408096 
1.1499999999998898, -0.32682684814743934 
1.1599999999998887, -0.3266648136441396 
1.1699999999998876, -0.3267725378185773 
1.1799999999998865, -0.3271761815768973 
1.1899999999998854, -0.32793636814069616 
1.1999999999998843, -0.3291571810258718 
1.2099999999998832, -0.33100014973122893 
1.219999999999882, -0.3337009304949984 
1.229999999999881, -0.33757904898927066 
1.2399999999998799, -0.34301317079578336 
1.2499999999998788, -0.3503255420717154 
1.2599999999998777, -0.359516778197173 
1.2699999999998766, -0.36992960977379374 
1.2799999999998755, -0.38021987636220655 
1.2899999999998744, -0.38896686596233565 
1.2999999999998733, -0.39545254086074955 
1.3099999999998722, -0.39979960499785894 
1.319999999999871, -0.40253967447028804 
1.32999999999987, -0.40420796991423574 
1.3399999999998689, -0.4051921605925906 
1.3499999999998678, -0.40573517347062893 
1.3599999999998666, -0.40597786868022395 
1.3699999999998655, -0.40599594151407514 
1.3799999999998644, -0.405823682964647 
1.3899999999998633, -0.40546847462421837 
1.3999999999998622, -0.4049214707223112 
1.4099999999998611, -0.4041693147202555 
1.41999999999986, -0.4032096691225064 
1.429999999999859, -0.4020682262793304 
1.4399999999998578, -0.4008079151709776 
1.4499999999998567, -0.39952000449624603 
1.4599999999998556, -0.39829822242149027 
1.4699999999998545, -0.39721124593458196 
1.4799999999998534, -0.3962889509242489 
1.4899999999998523, -0.3955251609102545 
1.4999999999998512, -0.3948899915826156 
1.5099999999998501, -0.39434415973081205 
1.519999999999849, -0.393850585902951 
1.529999999999848, -0.39338125998683726 
1.5399999999998468, -0.39291950021715255 
1.5499999999998457, -0.39245941144240704 
1.5599999999998446, -0.39200492850344487 
1.5699999999998435, -0.3915704332288509 
1.5799999999998424, -0.3911843692545204 
1.5899999999998413, -0.3908970846031051 
1.5999999999998402, -0.39079403481942 
1.6099999999998391, -0.39101388127316966 
1.619999999999838, -0.39176308182400277 
1.629999999999837, -0.3932920695321759 
1.6399999999998358, -0.3957347795862011 
1.6499999999998347, -0.3986461000348596 
1.6599999999998336, -0.4002978283696138 
1.6699999999998325, -0.39780491513459565 
1.6799999999998314, -0.3895199239125253 
1.6899999999998303, -0.3774353911228313 
1.6999999999998292, -0.36544105786584447 
1.709999999999828, -0.35599419376102054 
1.719999999999827, -0.34947640918875933 
1.729999999999826, -0.34528097660291796 
1.7399999999998248, -0.34267090364592423 
1.7499999999998237, -0.34107655907713985 
1.7599999999998226, -0.34011919792833545 
1.7699999999998215, -0.33956238685734164 
1.7799999999998204, -0.3392630715820807 
1.7899999999998193, -0.33913713070497187 
1.7999999999998182, -0.33913803681240956 
1.809999999999817, -0.3392447408224958 
1.819999999999816, -0.33945566133945243 
1.8299999999998149, -0.3397866125404154 
1.8399999999998138, -0.34027091495100054 
1.8499999999998127, -0.34095973543723024 
1.8599999999998116, -0.3419200006294005 
1.8699999999998105, -0.3432261032706122 
1.8799999999998094, -0.3449404449629571 
1.8899999999998083, -0.3470790921860902 
1.8999999999998072, -0.34956878989117174 
1.909999999999806, -0.35222316992940195 
1.919999999999805, -0.3547775156941588 
1.9299999999998039, -0.35698341183737176 
1.9399999999998028, -0.358698336885659 
1.9499999999998017, -0.35990458918280266 
1.9599999999998006, -0.3606646636814369 
1.9699999999997995, -0.3610644705975102 
1.9799999999997984, -0.36117680413681774 
1.9899999999997973, -0.3610463105838416 
1.9999999999997962, -0.3606856033326956 
2.0099999999998173, -0.36007441472717994 
2.0199999999998384, -0.3591592239769446 
2.0299999999998595, -0.35785657626530004 
2.0399999999998806, -0.35606945646775395 
2.0499999999999017, -0.3537286325566376 
2.059999999999923, -0.35085702034165667 
2.069999999999944, -0.3476183872487444 
2.079999999999965, -0.3442913681791871 
2.089999999999986, -0.3411650182130041 
2.100000000000007, -0.3384349515690453 
2.1100000000000283, -0.3361708401125676 
2.1200000000000494, -0.3343475726573972 
2.1300000000000705, -0.33289377479606885 
2.1400000000000916, -0.33172830473194703 
2.1500000000001127, -0.3307798012553359 
2.160000000000134, -0.3299943790967886 
2.170000000000155, -0.3293371314656393 
2.180000000000176, -0.32879143695558655 
2.190000000000197, -0.3283587227962726 
2.2000000000002182, -0.3280605874720253 
2.2100000000002393, -0.32794502370060796 
2.2200000000002604, -0.32809894975952036 
2.2300000000002815, -0.32867023324275757 
2.2400000000003026, -0.3299030119436596 
2.2500000000003237, -0.3321867800617392 
2.260000000000345, -0.33610034201594136 
2.270000000000366, -0.34236603535112364 
2.280000000000387, -0.35148690220427353 
2.290000000000408, -0.36278666074276594 
2.3000000000004293, -0.3733774557390176 
2.3100000000004504, -0.3792893867015573 
2.3200000000004715, -0.37915156208019724 
2.3300000000004926, -0.3753168071491192 
2.3400000000005137, -0.3708420997269176 
2.3500000000005348, -0.3672818309874863 
2.360000000000556, -0.3648909772062835 
2.370000000000577, -0.3634226097136208 
2.380000000000598, -0.36256985594249524 
2.390000000000619, -0.36209810796931724 
2.4000000000006403, -0.3618535726711952 
2.4100000000006614, -0.3617421311901724 
2.4200000000006825, -0.3617086381882816 
2.4300000000007036, -0.3617227104040685 
2.4400000000007247, -0.3617704992503255 
2.450000000000746, -0.3618508908747261 
2.460000000000767, -0.36197466536057094 
2.470000000000788, -0.3621650610260761 
2.480000000000809, -0.36245777560205444 
2.49000000000083, -0.3628981102567407 
2.5000000000008513, -0.36353320286162755 
2.5100000000008724, -0.364398194097162 
2.5200000000008935, -0.3654971118530751 
2.5300000000009146, -0.3667839345482601 
2.5400000000009357, -0.3681565132231016 
2.550000000000957, -0.36947690253112675 
2.560000000000978, -0.3706147777414195 
2.570000000000999, -0.37148733467823203 
2.58000000000102, -0.3720701453795806 
2.5900000000010412, -0.3723798001000743 
2.6000000000010624, -0.37244737049788657 
2.6100000000010835, -0.3722973154091974 
2.6200000000011046, -0.37193438542935936 
2.6300000000011257, -0.37133445110073676 
2.6400000000011468, -0.37043451520094495 
2.650000000001168, -0.36911964708630335 
2.660000000001189, -0.36721068346076835 
2.67000000000121, -0.36447014976502035 
2.680000000001231, -0.3606634922118102 
2.6900000000012523, -0.35570720340246015 
2.7000000000012734, -0.3498440183560425 
2.7100000000012945, -0.3436567621689526 
2.7200000000013156, -0.33782113915144596 
2.7300000000013367, -0.33280303369935194 
2.740000000001358, -0.3287556414646635 
2.750000000001379, -0.32560865814889317 
2.7600000000014, -0.323198886736113 
2.770000000001421, -0.321355883984933 
2.780000000001442, -0.3199383783641079 
2.7900000000014633, -0.3188427128688634 
2.8000000000014844, -0.31800023656051735 
2.8100000000015055, -0.31737238954871444 
2.8200000000015266, -0.3169473055604034 
2.8300000000015477, -0.3167396781495649 
2.840000000001569, -0.3167951598292013 
2.85000000000159, -0.3172010177586685 
2.860000000001611, -0.3181058750699869 
2.870000000001632, -0.3197527621257964 
2.8800000000016532, -0.3225298608512114 
2.8900000000016743, -0.3270363985240447 
2.9000000000016954, -0.33412941547262304 
2.9100000000017165, -0.3448245575108019 
2.9200000000017377, -0.35977119140125086 
2.9300000000017588, -0.3781243048584556 
2.94000000000178, -0.39674006368973147 
2.950000000001801, -0.4116986233663851 
2.960000000001822, -0.4212948631126518 
2.970000000001843, -0.4265402755819873 
2.9800000000018643, -0.4292485941485519 
2.9900000000018854, -0.4307118897033205 
3.0000000000019065, -0.4315851525926312 
3.0100000000019276, -0.4321531560719558 
3.0200000000019487, -0.43253523373096964 
3.03000000000197, -0.43278390519414617 
3.040000000001991, -0.4329242695683441 
3.050000000002012, -0.4329684942871018 
3.060000000002033, -0.4329213371444099 
3.070000000002054, -0.4327832488366862 
3.0800000000020753, -0.4325538668352829 
3.0900000000020964, -0.43223703747342546 
3.1000000000021175, -0.4318468496653261 
3.1100000000021386, -0.4314120041230799 
3.1200000000021597, -0.4309746094263419 
3.130000000002181, -0.43058148910224103 
3.140000000002202, -0.4302708293226898 
3.150000000002223, -0.43006024571346047 
3.160000000002244, -0.4299413721149639 
3.1700000000022652, -0.429882875435698 
3.1800000000022863, -0.4298406864995282 
3.1900000000023074, -0.4297712404416557 
3.2000000000023285, -0.42964181876841795 
3.2100000000023496, -0.42943405660766487 
3.2200000000023707, -0.42914119378191523 
3.230000000002392, -0.4287625752845091 
3.240000000002413, -0.42829852598146223 
3.250000000002434, -0.4277467469797906 
3.260000000002455, -0.4270996290612718 
3.2700000000024763, -0.4263403754130103 
3.2800000000024974, -0.42543296712736123 
3.2900000000025185, -0.4242935825166508 
3.3000000000025396, -0.42271465558299237 
3.3100000000025607, -0.42019188151797354 
3.3200000000025818, -0.4156426630703445 
3.330000000002603, -0.4073022129957763 
3.340000000002624, -0.39362956772401103 
3.350000000002645, -0.3753639436638855 
3.360000000002666, -0.3560729185583895 
3.3700000000026873, -0.3394836228658734 
3.3800000000027084, -0.3271289904127624 
3.3900000000027295, -0.31865592886254634 
3.4000000000027506, -0.31306305027156917 
3.4100000000027717, -0.30941884983257983 
3.420000000002793, -0.3070498315122519 
3.430000000002814, -0.3055145013441928 
3.440000000002835, -0.3045354651380648 
3.450000000002856, -0.3039427503148832 
3.460000000002877, -0.303635904214315 
3.4700000000028983, -0.3035610564188239 
3.4800000000029194, -0.3036983288821472 
3.4900000000029405, -0.304056375208616 
3.5000000000029616, -0.304672150923804 
3.5100000000029827, -0.3056147413550079 
3.520000000003004, -0.3069919215666716 
3.530000000003025, -0.3089563971889261 
3.540000000003046, -0.31170380282562105 
3.550000000003067, -0.31544469755624505 
3.5600000000030882, -0.32032188519696414 
3.5700000000031094, -0.32625807559249825 
3.5800000000031305, -0.33280492757501673 
3.5900000000031516, -0.3391856962251782 
3.6000000000031727, -0.3446324486762221 
3.6100000000031938, -0.34875402981755443 
3.620000000003215, -0.3515928907858676 
3.630000000003236, -0.35342054721993243 
3.640000000003257, -0.35453287050721005 
3.650000000003278, -0.3551584352013696 
3.6600000000032993, -0.3554469551400267 
3.6700000000033204, -0.35548555335452103 
3.6800000000033415, -0.35531696252607836 
3.6900000000033626, -0.35495323358844283 
3.7000000000033837, -0.3543865072548617 
3.710000000003405, -0.3536008164009612 
3.720000000003426, -0.3525883427725297 
3.730000000003447, -0.3513691034651929 
3.740000000003468, -0.3500049313803138 
3.750000000003489, -0.348594524492939 
3.7600000000035103, -0.3472466488973706 
3.7700000000035314, -0.34604697378720073 
3.7800000000035525, -0.3450385227419275 
3.7900000000035736, -0.3442218149465967 
3.8000000000035947, -0.34356729553695414 
3.810000000003616, -0.3430308136704839 
3.820000000003637, -0.3425668785957243 
3.830000000003658, -0.3421374514534288 
3.840000000003679, -0.34171570954342667 
3.8500000000037002, -0.341285773904869 
3.8600000000037213, -0.3408404395636731 
3.8700000000037424, -0.3403788583229884 
3.8800000000037635, -0.3399052376373859 
3.8900000000037847, -0.3394285095796994 
3.9000000000038058, -0.3389613236076422 
3.910000000003827, -0.33851277982879346 
3.920000000003848, -0.33805839865675497 
3.930000000003869, -0.337444875768348 
3.94000000000389, -0.3361492905816521 
3.9500000000039113, -0.3328599541546249 
3.9600000000039324, -0.3253110632750237 
3.9700000000039535, -0.31162420400060703 
3.9800000000039746, -0.29305583904738386 
3.9900000000039957, -0.27404138133031786 
4.000000000004016, -0.25840700591192867 
4.010000000003993, -0.2472045719807857 
4.02000000000397, -0.23970870192073518 
4.030000000003946, -0.23481190747329891 
4.040000000003923, -0.23161669730694948 
4.0500000000039, -0.22951871889742778 
4.0600000000038765, -0.22813944032059644 
4.070000000003853, -0.22724992512153386 
4.08000000000383, -0.22671689975079728 
4.090000000003807, -0.2264700719569816 
4.100000000003783, -0.22648465836437418 
4.11000000000376, -0.226774634580793 
4.120000000003737, -0.227394549788925 
4.130000000003713, -0.22844969779054797 
4.14000000000369, -0.2301157354795146 
4.150000000003667, -0.23266842925413894 
4.1600000000036434, -0.23651804786225222 
4.17000000000362, -0.24222012601645898 
4.180000000003597, -0.25037822017319 
4.1900000000035735, -0.26128717927106654 
4.20000000000355, -0.2742925359277726 
4.210000000003527, -0.28746315085743734 
4.220000000003504, -0.298507738079984 
4.23000000000348, -0.30629704845623384 
4.240000000003457, -0.3111579994237502 
4.250000000003434, -0.3140101557141314 
4.26000000000341, -0.3156577483344404 
4.270000000003387, -0.31661308899655793 
4.280000000003364, -0.3171629899537865 
4.2900000000033405, -0.3174609010378242 
4.300000000003317, -0.317588038844477 
4.310000000003294, -0.3175870714764118 
4.320000000003271, -0.31748026698378934 
4.330000000003247, -0.31728051388923956 
4.340000000003224, -0.3169998333529388 
4.350000000003201, -0.31665704753206025 
4.360000000003177, -0.31628357619194863 
4.370000000003154, -0.31592447569389026 
4.380000000003131, -0.31563253658006096 
4.390000000003107, -0.31545670792450414 
4.400000000003084, -0.31542916216544603 
4.410000000003061, -0.3155551983220862 
4.4200000000030375, -0.31580870399643474 
4.430000000003014, -0.316135675229647 
4.440000000002991, -0.316467154066578 
4.450000000002968, -0.31673770739033164 
4.460000000002944, -0.3169002244067155 
4.470000000002921, -0.3169297684617144 
4.480000000002898, -0.31681706784349084 
4.490000000002874, -0.31655729191725257 
4.500000000002851, -0.3161385403560232 
4.510000000002828, -0.31553050798957505 
4.520000000002804, -0.3146706217789654 
4.530000000002781, -0.313443432704537 
4.540000000002758, -0.31165018733505956 
4.5500000000027345, -0.30897513799370996 
4.560000000002711, -0.3049867030634055 
4.570000000002688, -0.29926568831383665 
4.580000000002665, -0.29173631882410567 
4.590000000002641, -0.2830070897690652 
4.600000000002618, -0.27424076483078513 
4.610000000002595, -0.26651376374152763 
4.620000000002571, -0.26033108981131947 
4.630000000002548, -0.255665850781358 
4.640000000002525, -0.25223995870339844 
4.6500000000025015, -0.2497386176321192 
4.660000000002478, -0.2479006222407018 
4.670000000002455, -0.24653579877701057 
4.6800000000024315, -0.24551595630796444 
4.690000000002408, -0.24476127624181693 
4.700000000002385, -0.244229673179393 
4.710000000002362, -0.24391114174355621 
4.720000000002338, -0.24382778761666296 
4.730000000002315, -0.244040666411953 
4.740000000002292, -0.2446658859359124 
4.750000000002268, -0.24590434540724476 
4.760000000002245, -0.24809085966739683 
4.770000000002222, -0.2517638203235714 
4.7800000000021985, -0.25772620809876867 
4.790000000002175, -0.26696154261800153 
4.800000000002152, -0.2800437568664102 
4.810000000002129, -0.29570371869793644 
4.820000000002105, -0.30977488905466855 
4.830000000002082, -0.31770316010323424 
4.840000000002059, -0.3189877672185718 
4.850000000002035, -0.3167126219989843 
4.860000000002012, -0.3137698592375758 
