t, s[1].omega / s[0].omega 
0, -1.2299925999213992 
0.009999999999999995, -1.2290925196468347 
0.019999999999999934, -1.2278760460597036 
0.029999999999999874, -1.2263444252736841 
0.04000000000000012, -1.2244994806635927 
0.050000000000000405, -1.2223437490018532 
0.06000000000000069, -1.2198806598189111 
0.07000000000000098, -1.2171147475087543 
0.08000000000000126, -1.2140518846379258 
0.09000000000000155, -1.2106995246594499 
0.10000000000000184, -1.207066942437322 
0.11000000000000212, -1.2031654612864373 
0.12000000000000241, -1.1990086553937542 
0.130000000000002, -1.1946125165345196 
0.1400000000000009, -1.1899955742666959 
0.1499999999999998, -1.185178959855429 
0.1599999999999987, -1.1801864066814551 
0.1699999999999976, -1.1750441842276478 
0.1799999999999965, -1.1697809687840257 
0.1899999999999954, -1.1644276608707995 
0.1999999999999943, -1.1590171653832797 
0.2099999999999932, -1.1535841534456324 
0.2199999999999921, -1.1481648228333556 
0.229999999999991, -1.142796665330516 
0.2399999999999899, -1.1375182348192743 
0.2499999999999888, -1.1323688915059786 
0.2599999999999877, -1.1273884795677127 
0.2699999999999866, -1.1226168828986662 
0.2799999999999855, -1.1180934017468591 
0.2899999999999844, -1.1138559056020123 
0.2999999999999833, -1.109939745715837 
0.3099999999999822, -1.1063764515162113 
0.3199999999999811, -1.1031922826664264 
0.32999999999998, -1.1004067535472164 
0.3399999999999789, -1.098031279338379 
0.3499999999999778, -1.0960681037463604 
0.35999999999997667, -1.094509652562033 
0.36999999999997557, -1.0933384149444494 
0.37999999999997447, -1.0925273919275211 
0.38999999999997337, -1.0920410803129392 
0.39999999999997227, -1.0918368932670133 
0.40999999999997117, -1.091866868919687 
0.41999999999997006, -1.0920794933203692 
0.42999999999996896, -1.0924214666655243 
0.43999999999996786, -1.0928392683861627 
0.44999999999996676, -1.0932804198216184 
0.45999999999996566, -1.0936943933400503 
0.46999999999996456, -1.0940331650428259 
0.47999999999996346, -1.0942514481082057 
0.48999999999996235, -1.0943066719552992 
0.49999999999996125, -1.0941587881452774 
0.5099999999999602, -1.0937699886896177 
0.519999999999959, -1.0931044185837393 
0.529999999999958, -1.0921279543868538 
0.5399999999999568, -1.0908081064923094 
0.5499999999999557, -1.0891140856554562 
0.5599999999999546, -1.0870170550796463 
0.5699999999999535, -1.0844905683892503 
0.5799999999999524, -1.0815111718234214 
0.5899999999999513, -1.078059127219988 
0.5999999999999502, -1.0741191928398894 
0.6099999999999491, -1.0696813844751476 
0.619999999999948, -1.0647416324573038 
0.6299999999999469, -1.0593022534859606 
0.6399999999999458, -1.0533721706361714 
0.6499999999999447, -1.0469668395162568 
0.6599999999999436, -1.040107870232635 
0.6699999999999425, -1.0328223687823532 
0.6799999999999414, -1.0251420522511077 
0.6899999999999403, -1.0171022148307736 
0.6999999999999392, -1.0087406329720892 
0.7099999999999381, -1.0000964970757746 
0.719999999999937, -0.9912094454296588 
0.7299999999999359, -0.9821187567565283 
0.7399999999999348, -0.9728627346670237 
0.7499999999999337, -0.9634782942927599 
0.7599999999999326, -0.9540007413658561 
0.7699999999999315, -0.9444637188260533 
0.7799999999999304, -0.9348992863482571 
0.7899999999999293, -0.9253380937497601 
0.7999999999999282, -0.9158096092216406 
0.8099999999999271, -0.9063423666154679 
0.819999999999926, -0.8969642014502218 
0.8299999999999249, -0.8877024518527222 
0.8399999999999238, -0.8785841074775761 
0.8499999999999227, -0.8696358959645346 
0.8599999999999216, -0.8608843022892848 
0.8699999999999205, -0.8523555212351183 
0.8799999999999194, -0.8440753470857455 
0.8899999999999183, -0.8360690075438205 
0.8999999999999172, -0.8283609509117023 
0.9099999999999161, -0.8209745968626269 
0.919999999999915, -0.8139320618250087 
0.9299999999999139, -0.8072538702356953 
0.9399999999999128, -0.8009586628050213 
0.9499999999999117, -0.795062912564987 
0.9599999999999106, -0.7895806588995135 
0.9699999999999095, -0.7845232690121483 
0.9799999999999084, -0.7798992353796942 
0.9899999999999073, -0.7757140166636775 
0.9999999999999062, -0.7719699282947295 
1.0099999999999052, -0.7686660875016611 
1.019999999999904, -0.7657984159337884 
1.029999999999903, -0.7633597012467289 
1.039999999999902, -0.7613397171345123 
1.0499999999999008, -0.7597253993619248 
1.0599999999998997, -0.7585010734660808 
1.0699999999998986, -0.7576487280532538 
1.0799999999998975, -0.7571483261183393 
1.0899999999998964, -0.7569781456565866 
1.0999999999998953, -0.7571151401014413 
1.1099999999998942, -0.7575353088632203 
1.119999999999893, -0.758214068481219 
1.129999999999892, -0.7591266156163177 
1.1399999999998909, -0.7602482742390609 
1.1499999999998898, -0.7615548208052259 
1.1599999999998887, -0.7630227828183852 
1.1699999999998876, -0.7646297077942795 
1.1799999999998865, -0.7663544010930498 
1.1899999999998854, -0.7681771322084828 
1.1999999999998843, -0.7700798097613571 
1.2099999999998832, -0.7720461255462565 
1.219999999999882, -0.7740616675021385 
1.229999999999881, -0.7761140004704986 
1.2399999999998799, -0.7781927122128929 
1.2499999999998788, -0.7802894206096681 
1.2599999999998777, -0.7823977365519755 
1.2699999999998766, -0.7845131761068999 
1.2799999999998755, -0.7866330154115434 
1.2899999999998744, -0.7887560827055826 
1.2999999999998733, -0.7908824840968548 
1.3099999999998722, -0.7930132630682083 
1.319999999999871, -0.7951499982018643 
1.32999999999987, -0.797294348789936 
1.3399999999998689, -0.79944756347683 
1.3499999999998678, -0.8016099723516846 
1.3599999999998666, -0.8037804874957192 
1.3699999999998655, -0.8059561404522947 
1.3799999999998644, -0.8081316870364708 
1.3899999999998633, -0.8102993099758035 
1.3999999999998622, -0.8124484477275069 
1.4099999999998611, -0.814565773128825 
1.41999999999986, -0.8166353380866557 
1.429999999999859, -0.8186388903106616 
1.4399999999998578, -0.8205563555499672 
1.4499999999998567, -0.8223664648487065 
1.4599999999998556, -0.8240474924937242 
1.4699999999998545, -0.8255780585127724 
1.4799999999998534, -0.8269379418117091 
1.4899999999998523, -0.8281088479717642 
1.4999999999998512, -0.829075080201136 
1.5099999999998501, -0.8298240726615362 
1.519999999999849, -0.8303467609231387 
1.529999999999848, -0.830637782311204 
1.5399999999998468, -0.830695516692428 
1.5499999999998457, -0.8305219933229262 
1.5599999999998446, -0.8301226999617147 
1.5699999999998435, -0.8295063357286 
1.5799999999998424, -0.8286845492984188 
1.5899999999998413, -0.8276716998568733 
1.5999999999998402, -0.8264846710814445 
1.6099999999998391, -0.8251427596055624 
1.619999999999838, -0.8236676501394774 
1.629999999999837, -0.8220834804964353 
1.6399999999998358, -0.8204169916971226 
1.6499999999998347, -0.8186977512941492 
1.6599999999998336, -0.8169584320706008 
1.6699999999998325, -0.8152351232315374 
1.6799999999998314, -0.8135676470330268 
1.6899999999998303, -0.8119998504487475 
1.6999999999998292, -0.8105798390164529 
1.709999999999828, -0.8093601185801159 
1.719999999999827, -0.8083976104554202 
1.729999999999826, -0.8077535068283846 
1.7399999999998248, -0.8074929361637064 
1.7499999999998237, -0.8076844132119249 
1.7599999999998226, -0.8083990549462947 
1.7699999999998215, -0.8097095524290491 
1.7799999999998204, -0.8116888991176291 
1.7899999999998193, -0.8144088883121294 
1.7999999999998182, -0.8179384060699281 
1.809999999999817, -0.8223415606127699 
1.819999999999816, -0.8276757044916736 
1.8299999999998149, -0.8339894207642399 
1.8399999999998138, -0.841320558046342 
1.8499999999998127, -0.849694410017722 
1.8599999999998116, -0.8591221409600404 
1.8699999999998105, -0.8695995582300523 
1.8799999999998094, -0.881106323480794 
1.8899999999998083, -0.8936056758781818 
1.8999999999998072, -0.9070447126181986 
1.909999999999806, -0.9213552363517631 
1.919999999999805, -0.9364551389016244 
1.9299999999998039, -0.9522502504528072 
1.9399999999998028, -0.9686365483857345 
1.9499999999998017, -0.9855025949396597 
1.9599999999998006, -1.0027320614644233 
1.9699999999997995, -1.0202062005946015 
1.9799999999997984, -1.0378061453593497 
1.9899999999997973, -1.0554149430099102 
1.9999999999997962, -1.0729192667673113 
2.0099999999998173, -1.090210785810618 
2.0199999999998384, -1.1071872080358813 
2.0299999999998595, -1.1237530377807208 
2.0399999999998806, -1.139820109449613 
2.0499999999999017, -1.155307966664526 
2.059999999999923, -1.1701441551639309 
2.069999999999944, -1.1842644870316998 
2.079999999999965, -1.1976133155776991 
2.089999999999986, -1.210143836669973 
2.100000000000007, -1.2218184066034194 
2.1100000000000283, -1.232608842338316 
2.1200000000000494, -1.2424966510571016 
2.1300000000000705, -1.2514731260270555 
2.1400000000000916, -1.2595392471723903 
2.1500000000001127, -1.2667053381793978 
2.160000000000134, -1.2729904557729332 
2.170000000000155, -1.2784215172791376 
2.180000000000176, -1.2830322045753906 
2.190000000000197, -1.2868617105807165 
2.2000000000002182, -1.2899534140459024 
2.2100000000002393, -1.292353576907591 
2.2200000000002604, -1.2941101554343806 
2.2300000000002815, -1.2952718033161965 
2.2400000000003026, -1.295887124431829 
2.2500000000003237, -1.29600420826621 
2.260000000000345, -1.2956704543610102 
2.270000000000366, -1.2949326654298525 
2.280000000000387, -1.2938373627196231 
2.290000000000408, -1.2924312524103734 
2.3000000000004293, -1.290761749317216 
2.3100000000004504, -1.2888774460968742 
2.3200000000004715, -1.2868284064472595 
2.3300000000004926, -1.2846661647464 
2.3400000000005137, -1.282443337763315 
2.3500000000005348, -1.2802128000171036 
2.360000000000556, -1.2780264417322318 
2.370000000000577, -1.275933608641273 
2.380000000000598, -1.273979400154512 
2.390000000000619, -1.2722030560967064 
2.4000000000006403, -1.270636673197629 
2.4100000000006614, -1.269304450518834 
2.4200000000006825, -1.2682225720836446 
2.4300000000007036, -1.267399714397178 
2.4400000000007247, -1.2668380457062185 
2.450000000000746, -1.2665344932592841 
2.460000000000767, -1.2664820166431612 
2.470000000000788, -1.2666706471304023 
2.480000000000809, -1.267088126889842 
2.49000000000083, -1.267720087754488 
2.5000000000008513, -1.2685498207944075 
2.5100000000008724, -1.2695577795070387 
2.5200000000008935, -1.27072101153295 
2.5300000000009146, -1.2720127171980702 
2.5400000000009357, -1.2734020906566623 
2.550000000000957, -1.274854524730254 
2.560000000000978, -1.2763321745226548 
2.570000000000999, -1.2777947994153882 
2.58000000000102, -1.2792007548729527 
2.5900000000010412, -1.280507992079016 
2.6000000000010624, -1.2816749421677862 
2.6100000000010835, -1.282661202533968 
2.6200000000011046, -1.2834279920513103 
2.6300000000011257, -1.2839383878017334 
2.6400000000011468, -1.2841573898556506 
2.650000000001168, -1.2840518792397821 
2.660000000001189, -1.283590537955227 
2.67000000000121, -1.2827437917169429 
2.680000000001231, -1.2814838199228007 
2.6900000000012523, -1.2797846571405491 
2.7000000000012734, -1.2776223895100915 
2.7100000000012945, -1.2749754306366121 
2.7200000000013156, -1.2718248469305093 
2.7300000000013367, -1.268154693475558 
2.740000000001358, -1.2639523192486886 
2.750000000001379, -1.2592086049283402 
2.7600000000014, -1.2539181067419696 
2.770000000001421, -1.2480790940564916 
2.780000000001442, -1.2416934843022112 
2.7900000000014633, -1.23476669371857 
2.8000000000014844, -1.2273074339863068 
2.8100000000015055, -1.2193274914663472 
2.8200000000015266, -1.2108415268883144 
2.8300000000015477, -1.201866929301242 
2.840000000001569, -1.1924237500728108 
2.85000000000159, -1.1825347322811675 
2.860000000001611, -1.1722254396083895 
2.870000000001632, -1.161524478167011 
2.8800000000016532, -1.1504637954506751 
2.8900000000016743, -1.1390790331427498 
2.9000000000016954, -1.1274099047116048 
2.9100000000017165, -1.1155005641138611 
2.9200000000017377, -1.1033999279621183 
2.9300000000017588, -1.0911619097911938 
2.94000000000178, -1.078845521579656 
2.950000000001801, -1.0665147950367924 
2.960000000001822, -1.0542384745643507 
2.970000000001843, -1.0420894369494562 
2.9800000000018643, -1.030143801576384 
2.9900000000018854, -1.0184797107060433 
3.0000000000019065, -1.0071757826298628 
3.0100000000019276, -0.9963092702547293 
3.0200000000019487, -0.9859539912228142 
3.03000000000197, -0.9761781288137766 
3.040000000001991, -0.9670420305306829 
3.050000000002012, -0.958596148419161 
3.060000000002033, -0.9508792679379957 
3.070000000002054, -0.9439171587645699 
3.0800000000020753, -0.9377217520002872 
3.0900000000020964, -0.9322909070479876 
3.1000000000021175, -0.9276087830813795 
3.1100000000021386, -0.9236467805957198 
3.1200000000021597, -0.9203649740028533 
3.130000000002181, -0.9177139215580694 
3.140000000002202, -0.9156367173367587 
3.150000000002223, -0.9140711427903794 
3.160000000002244, -0.9129517819544613 
3.1700000000022652, -0.9122119824171002 
3.1800000000022863, -0.911785570370723 
3.1900000000023074, -0.9116082586669333 
3.2000000000023285, -0.911618718070104 
3.2100000000023496, -0.9117593107211452 
3.2200000000023707, -0.9119765089178696 
3.230000000002392, -0.9122210404368735 
3.240000000002413, -0.9124478134609952 
3.250000000002434, -0.9126156801957309 
3.260000000002455, -0.9126870994065602 
3.2700000000024763, -0.9126277555355436 
3.2800000000024974, -0.9124061868506573 
3.2900000000025185, -0.9119934680928822 
3.3000000000025396, -0.9113629848220692 
3.3100000000025607, -0.9104903272890398 
3.3200000000025818, -0.9093533210888817 
3.330000000002603, -0.9079321998969806 
3.340000000002624, -0.906209912197293 
3.350000000002645, -0.9041725393833048 
3.360000000002666, -0.9018097878041232 
3.3700000000026873, -0.8991155037457075 
3.3800000000027084, -0.8960881500395006 
3.3900000000027295, -0.8927311782736912 
3.4000000000027506, -0.8890532334507896 
3.4100000000027717, -0.8850681394698094 
3.420000000002793, -0.8807946336176099 
3.430000000002814, -0.87625584421197 
3.440000000002835, -0.8714785340143565 
3.450000000002856, -0.8664921585635149 
3.460000000002877, -0.861327808887805 
3.4700000000028983, -0.8560171190322889 
3.4800000000029194, -0.8505912192536899 
3.4900000000029405, -0.8450798063881025 
3.5000000000029616, -0.839510386223918 
3.5100000000029827, -0.8339077220545001 
3.520000000003004, -0.8282935023401805 
3.530000000003025, -0.8226862213592742 
3.540000000003046, -0.8171012516712706 
3.550000000003067, -0.8115510769186103 
3.5600000000030882, -0.8060456478782795 
3.5700000000031094, -0.8005928231126412 
3.5800000000031305, -0.7951988571730145 
3.5900000000031516, -0.7898689031513838 
3.6000000000031727, -0.7846075016131713 
3.6100000000031938, -0.7794190338714214 
3.620000000003215, -0.7743081236139696 
3.630000000003236, -0.769279976630498 
3.640000000003257, -0.7643406534797944 
3.650000000003278, -0.759497274170959 
3.6600000000032993, -0.7547581571940634 
3.6700000000033204, -0.7501328975157575 
3.6800000000033415, -0.7456323895331408 
3.6900000000033626, -0.7412688016021365 
3.7000000000033837, -0.7370555088118076 
3.710000000003405, -0.7330069903604257 
3.720000000003426, -0.7291386973831773 
3.730000000003447, -0.7254668965302865 
3.740000000003468, -0.7220084940983426 
3.750000000003489, -0.7187808451308054 
3.7600000000035103, -0.7158015516401605 
3.7700000000035314, -0.7130882539479012 
3.7800000000035525, -0.7106584190547777 
3.7900000000035736, -0.7085291299004588 
3.8000000000035947, -0.7067168793082049 
3.810000000003616, -0.7052373723034023 
3.820000000003637, -0.7041053403228599 
3.830000000003658, -0.7033343705844618 
3.840000000003679, -0.7029367535643424 
3.8500000000037002, -0.7029233511394136 
3.8600000000037213, -0.7033034875096887 
3.8700000000037424, -0.7040848645317604 
3.8800000000037635, -0.705273502584964 
3.8900000000037847, -0.7068737075648052 
3.9000000000038058, -0.7088880640588734 
3.910000000003827, -0.7113174542084265 
3.920000000003848, -0.7141611011888597 
3.930000000003869, -0.717416635645291 
3.94000000000389, -0.721080182783921 
3.9500000000039113, -0.7251464671335085 
3.9600000000039324, -0.7296089312437704 
3.9700000000039535, -0.7344598637725442 
3.9800000000039746, -0.7396905315323098 
3.9900000000039957, -0.745291309131233 
4.000000000004016, -0.7512517988813495 
4.010000000003993, -0.7575609327035204 
4.02000000000397, -0.7642070469062218 
4.030000000003946, -0.7711779200524976 
4.040000000003923, -0.7784607637881028 
4.0500000000039, -0.7860421566484691 
4.0600000000038765, -0.7939079116889866 
4.070000000003853, -0.802042870512964 
4.08000000000383, -0.8104306191376879 
4.090000000003807, -0.8190531253649377 
4.100000000003783, -0.8278903030899407 
4.11000000000376, -0.8369195163844999 
4.120000000003737, -0.8461150451630187 
4.130000000003713, -0.8554475444810449 
4.14000000000369, -0.8648835403811005 
4.150000000003667, -0.8743850156077434 
4.1600000000036434, -0.8839091468799012 
4.17000000000362, -0.8934082596751596 
4.180000000003597, -0.9028300642932819 
4.1900000000035735, -0.912118226062554 
4.20000000000355, -0.9212133013725987 
4.210000000003527, -0.930054039657323 
4.220000000003504, -0.9385790115704077 
4.23000000000348, -0.9467284799779755 
4.240000000003457, -0.9544463898621954 
4.250000000003434, -0.9616823237315194 
4.26000000000341, -0.9683932579019966 
4.270000000003387, -0.9745449664826503 
4.280000000003364, -0.9801129540674415 
4.2900000000033405, -0.9850828500885839 
4.300000000003317, -0.9894502586614061 
4.310000000003294, -0.9932201169501288 
4.320000000003271, -0.996405662951131 
4.330000000003247, -0.9990271436597554 
4.340000000003224, -1.0011104046990804 
4.350000000003201, -1.0026854945768415 
4.360000000003177, -1.003785395578184 
4.370000000003154, -1.0044449648309663 
4.380000000003131, -1.004700138836179 
4.390000000003107, -1.0045874268540087 
4.400000000003084, -1.0041436952634202 
4.410000000003061, -1.0034062269457962 
4.4200000000030375, -1.002413026181123 
4.430000000003014, -1.0012033290663254 
4.440000000002991, -0.9998182704601372 
4.450000000002968, -0.9983016495766441 
4.460000000002944, -0.9967007268365555 
4.470000000002921, -0.9950669745160212 
4.480000000002898, -0.9934566941294807 
4.490000000002874, -0.9919314062983796 
4.500000000002851, -0.9905579167838264 
4.510000000002828, -0.9894079684295561 
4.520000000002804, -0.9885574057318481 
4.530000000002781, -0.9880848083540911 
4.540000000002758, -0.9880695920622955 
4.5500000000027345, -0.9885896278151787 
4.560000000002711, -0.9897184870709287 
4.570000000002688, -0.9915224765512191 
4.580000000002665, -0.9940576702843381 
4.590000000002641, -0.9973671724995753 
4.600000000002618, -1.0014788454895323 
4.610000000002595, -1.0064037088838946 
4.620000000002571, -1.0121351622441468 
4.630000000002548, -1.0186491074429387 
4.640000000002525, -1.0259049607743809 
4.6500000000025015, -1.0338474592977827 
4.660000000002478, -1.0424090937942974 
4.670000000002455, -1.0515129518993394 
4.6800000000024315, -1.0610757352363016 
4.690000000002408, -1.0710107242516387 
4.700000000002385, -1.0812304994084043 
4.710000000002362, -1.091649279159545 
4.720000000002338, -1.1021847937239335 
4.730000000002315, -1.1127596696577247 
4.740000000002292, -1.1233023463453746 
4.750000000002268, -1.1337475778469923 
4.760000000002245, -1.1440365913401243 
4.770000000002222, -1.1541169786227863 
4.7800000000021985, -1.1639423932991515 
4.790000000002175, -1.1734721172797589 
4.800000000002152, -1.182670549540847 
4.810000000002129, -1.1915066601152011 
4.820000000002105, -1.1999534442417588 
4.830000000002082, -1.2079874056334112 
4.840000000002059, -1.21558809333949 
4.850000000002035, -1.222737712722626 
4.860000000002012, -1.229420826658779 
4.870000000001989, -1.2356241574689042 
4.880000000001965, -1.2413364929861854 
4.890000000001942, -1.246548691747857 
4.900000000001919, -1.2512537732788542 
4.9100000000018955, -1.2554470709293712 
4.920000000001872, -1.259126418099283 
4.930000000001849, -1.2622923352557114 
