t, s[1].omega / s[0].omega 
0, -1.499996351820244 
0.009999999999999995, -1.4993769501677912 
0.019999999999999934, -1.4982516072985714 
0.029999999999999874, -1.496615040522363 
0.04000000000000012, -1.4944595809550831 
0.050000000000000405, -1.4917771491916654 
0.06000000000000069, -1.4885624130001698 
0.07000000000000098, -1.4848190504076544 
0.08000000000000126, -1.4805748797419829 
0.09000000000000155, -1.475915372843665 
0.10000000000000184, -1.471038561438118 
0.11000000000000212, -1.4663042398132178 
0.12000000000000241, -1.4622062255917272 
0.130000000000002, -1.4592045067232606 
0.1400000000000009, -1.4574848316297233 
0.1499999999999998, -1.4568527752819733 
0.1599999999999987, -1.4568687277210783 
0.1699999999999976, -1.4570767725911116 
0.1799999999999965, -1.4571335333500925 
0.1899999999999954, -1.4568009136207525 
0.1999999999999943, -1.4558680935196477 
0.2099999999999932, -1.4540508485453307 
0.2199999999999921, -1.4508657421453761 
0.229999999999991, -1.4454378963636076 
0.2399999999999899, -1.4361671166553558 
0.2499999999999888, -1.4201398580786264 
0.2599999999999877, -1.3921728622092815 
0.2699999999999866, -1.3435970883996122 
0.2799999999999855, -1.2618268925482 
0.2899999999999844, -1.133718105233444 
0.2999999999999833, -0.9558983995911824 
0.3099999999999822, -0.7466599832151554 
0.3199999999999811, -0.5427739703425052 
0.32999999999998, -0.37696358588840584 
0.3399999999999789, -0.2597266598227568 
0.3499999999999778, -0.18335590243335512 
0.35999999999997667, -0.1351132893241241 
0.36999999999997557, -0.10457292961656145 
0.37999999999997447, -0.0848732194228092 
0.38999999999997337, -0.07184634881371871 
0.39999999999997227, -0.06301373042741572 
0.40999999999997117, -0.05689385749806746 
0.41999999999997006, -0.052587808212061514 
0.42999999999996896, -0.04954174083157797 
0.43999999999996786, -0.04741197683570147 
0.44999999999996676, -0.045988233806131706 
0.45999999999996566, -0.04515028358043977 
0.46999999999996456, -0.0448447481046866 
0.47999999999996346, -0.045075283937359746 
0.48999999999996235, -0.04590342182494446 
0.49999999999996125, -0.04746033501960457 
0.5099999999999602, -0.04997293352220451 
0.519999999999959, -0.05381210344482204 
0.529999999999958, -0.059578344396668675 
0.5399999999999568, -0.06825328273626574 
0.5499999999999557, -0.08146854463847536 
0.5599999999999546, -0.10197838072468282 
0.5699999999999535, -0.13445095465678664 
0.5799999999999524, -0.18660256102797773 
0.5899999999999513, -0.2700886919115132 
0.5999999999999502, -0.3987238193043848 
0.6099999999999491, -0.5797079518459868 
0.619999999999948, -0.7995310976048674 
0.6299999999999469, -1.0215645121991725 
0.6399999999999458, -1.2065586078619546 
0.6499999999999447, -1.3364414609454986 
0.6599999999999436, -1.4168700671732026 
0.6699999999999425, -1.4631552438931916 
0.6799999999999414, -1.48893661684726 
0.6899999999999403, -1.5031551211635086 
0.6999999999999392, -1.5109610652629053 
0.7099999999999381, -1.5151699450307003 
0.719999999999937, -1.5172964841784602 
0.7299999999999359, -1.5181574705416945 
0.7399999999999348, -1.5182044817416926 
0.7499999999999337, -1.5177150814091833 
0.7599999999999326, -1.5169196716649538 
0.7699999999999315, -1.5160957657625833 
0.7799999999999304, -1.515611296786874 
0.7899999999999293, -1.5158614103664692 
0.7999999999999282, -1.5170925391292995 
0.8099999999999271, -1.5192497712403412 
0.819999999999926, -1.5220122841535333 
0.8299999999999249, -1.5249833369212704 
0.8399999999999238, -1.5278532225508994 
0.8499999999999227, -1.5304411694637479 
0.8599999999999216, -1.5326577545034832 
0.8699999999999205, -1.534457201433509 
0.8799999999999194, -1.535809887794459 
0.8899999999999183, -1.5366921859498244 
0.8999999999999172, -1.5370829917856261 
0.9099999999999161, -1.5369612839455375 
0.919999999999915, -1.536303717562829 
0.9299999999999139, -1.5350824679639425 
0.9399999999999128, -1.5332632973309162 
0.9499999999999117, -1.5308037522521016 
0.9599999999999106, -1.5276517422920588 
0.9699999999999095, -1.523745381412677 
0.9799999999999084, -1.5190164434091047 
0.9899999999999073, -1.513403621553006 
0.9999999999999062, -1.5068889400779477 
1.0099999999999052, -1.4995758028478168 
1.019999999999904, -1.4918101859184663 
1.029999999999903, -1.4842782939583514 
1.039999999999902, -1.477917878145203 
1.0499999999999008, -1.4735280133838613 
1.0599999999998997, -1.4713014956776942 
1.0699999999998986, -1.4707454515359635 
1.0799999999998975, -1.4710651824247232 
1.0899999999998964, -1.4715821677483176 
1.0999999999998953, -1.4718767919385445 
1.1099999999998942, -1.47171519581199 
1.119999999999893, -1.4709171603730917 
1.129999999999892, -1.4692310761107878 
1.1399999999998909, -1.4661997179316093 
1.1499999999998898, -1.4609599646295606 
1.1599999999998887, -1.4518875733820176 
1.1699999999998876, -1.4359632945287364 
1.1799999999998865, -1.407769882950141 
1.1899999999998854, -1.3584194801001441 
1.1999999999998843, -1.2759499613719176 
1.2099999999998832, -1.149782484549847 
1.219999999999882, -0.9769574480834997 
1.229999999999881, -0.7595134265355047 
1.2399999999998799, -0.4999762260046375 
1.2499999999998788, -0.22468604712888438 
1.2599999999998777, 0.004264572053664385 
1.2699999999998766, 0.15045188199288853 
1.2799999999998755, 0.2308545100835164 
1.2899999999998744, 0.273486441682665 
1.2999999999998733, 0.29662853235913816 
1.3099999999998722, 0.3097187743472971 
1.319999999999871, 0.31741352292869385 
1.32999999999987, 0.322057932529865 
1.3399999999998689, 0.32488261324606293 
1.3499999999998678, 0.3265618098190308 
1.3599999999998666, 0.32747871482049007 
1.3699999999998655, 0.327856364167629 
1.3799999999998644, 0.3278252203141548 
1.3899999999998633, 0.3274604752529855 
1.3999999999998622, 0.3268060805156755 
1.4099999999998611, 0.32589712644639707 
1.41999999999986, 0.3247939115263637 
1.429999999999859, 0.32365070260730505 
1.4399999999998578, 0.3228623305211221 
1.4499999999998567, 0.3233552634424694 
1.4599999999998556, 0.3270530567150079 
1.4699999999998545, 0.3372265014700836 
1.4799999999998534, 0.35759143550289113 
1.4899999999998523, 0.3888601567748888 
1.4999999999998512, 0.4254627552139946 
1.5099999999998501, 0.45873477449685324 
1.519999999999849, 0.48364793216797386 
1.529999999999848, 0.5001917097515542 
1.5399999999998468, 0.5105156394212154 
1.5499999999998457, 0.5167482497602855 
1.5599999999998446, 0.5203793879876834 
1.5699999999998435, 0.5223260093822432 
1.5799999999998424, 0.5231208773310658 
1.5899999999998413, 0.5230629847715529 
1.5999999999998402, 0.5223165808673842 
1.6099999999998391, 0.5209762747881109 
1.619999999999838, 0.5191135949859882 
1.629999999999837, 0.5168120070039508 
1.6399999999998358, 0.5141892059535669 
1.6499999999998347, 0.5114010481084583 
1.6599999999998336, 0.5086243429955376 
1.6699999999998325, 0.5060252341170332 
1.6799999999998314, 0.5037282450384729 
1.6899999999998303, 0.5017997971817953 
1.6999999999998292, 0.5002499233747669 
1.709999999999828, 0.49904602286707583 
1.719999999999827, 0.4981294648663963 
1.729999999999826, 0.4974286767901348 
1.7399999999998248, 0.4968665545199078 
1.7499999999998237, 0.49636264361912863 
1.7599999999998226, 0.49583111068412283 
1.7699999999998215, 0.49517471269144686 
1.7799999999998204, 0.49427331367682326 
1.7899999999998193, 0.4929628716662116 
1.7999999999998182, 0.49099608998570027 
1.809999999999817, 0.487966057327083 
1.819999999999816, 0.4831518413464791 
1.8299999999998149, 0.4751927385541525 
1.8399999999998138, 0.4613784101468416 
1.8499999999998127, 0.4361126501440125 
1.8599999999998116, 0.38802141702750376 
1.8699999999998105, 0.2976552389738623 
1.8799999999998094, 0.14991488147971083 
1.8899999999998083, -0.025502131003328807 
1.8999999999998072, -0.16133007304729888 
1.909999999999806, -0.23348278818011767 
1.919999999999805, -0.2621877566287171 
1.9299999999998039, -0.2706673106277342 
1.9399999999998028, -0.2717285020469439 
1.9499999999998017, -0.27070854861476207 
1.9599999999998006, -0.2694613841209815 
1.9699999999997995, -0.2684952150248679 
1.9799999999997984, -0.2678658294220964 
1.9899999999997973, -0.26750544217246575 
1.9999999999997962, -0.267331234899739 
2.0099999999998173, -0.26727516843197513 
2.0199999999998384, -0.2672881168710613 
2.0299999999998595, -0.2673370244652936 
2.0399999999998806, -0.26740124205589855 
2.0499999999999017, -0.2674698297834161 
2.059999999999923, -0.26754017668759283 
2.069999999999944, -0.26761784425253593 
2.079999999999965, -0.2677173842419748 
2.089999999999986, -0.26786377332056394 
2.100000000000007, -0.2680940083585898 
2.1100000000000283, -0.26845837298697933 
2.1200000000000494, -0.26902098741854763 
2.1300000000000705, -0.2698594686218453 
2.1400000000000916, -0.2710636705992321 
2.1500000000001127, -0.2727332458902539 
2.160000000000134, -0.27497296054464987 
2.170000000000155, -0.27788345371632855 
2.180000000000176, -0.2815442206512074 
2.190000000000197, -0.2859865840702332 
2.2000000000002182, -0.2911593646248083 
2.2100000000002393, -0.29689936784084336 
2.2200000000002604, -0.3029275632928608 
2.2300000000002815, -0.30888830378106913 
2.2400000000003026, -0.3144260561863466 
2.2500000000003237, -0.31926602368925794 
2.260000000000345, -0.32325972144793513 
2.270000000000366, -0.3263812525584471 
2.280000000000387, -0.3286898347482161 
2.290000000000408, -0.3302844215551419 
2.3000000000004293, -0.3312677383713575 
2.3100000000004504, -0.3317242858489031 
2.3200000000004715, -0.33170921736563863 
2.3300000000004926, -0.3312430403328716 
2.3400000000005137, -0.3303080239763043 
2.3500000000005348, -0.32884388832291833 
2.360000000000556, -0.32674216099034536 
2.370000000000577, -0.323840906386074 
2.380000000000598, -0.31992516799605386 
2.390000000000619, -0.3147437120138947 
2.4000000000006403, -0.3080571379562862 
2.4100000000006614, -0.2997280095057242 
2.4200000000006825, -0.28983828796501254 
2.4300000000007036, -0.2787749072290899 
2.4400000000007247, -0.2672022061025867 
2.450000000000746, -0.25589592878964484 
2.460000000000767, -0.24552244593484354 
2.470000000000788, -0.23649109416038105 
2.480000000000809, -0.22893636525088878 
2.49000000000083, -0.22279084706563484 
2.5000000000008513, -0.21787956063610758 
2.5100000000008724, -0.21399263014009076 
2.5200000000008935, -0.21092677010253696 
2.5300000000009146, -0.20850309200709288 
2.5400000000009357, -0.20657161664368096 
2.550000000000957, -0.20501002002034305 
2.560000000000978, -0.20372064275369817 
2.570000000000999, -0.2026273672228449 
2.58000000000102, -0.20167273869022567 
2.5900000000010412, -0.20081531327816446 
2.6000000000010624, -0.2000272380033286 
2.6100000000010835, -0.19929219281726304 
2.6200000000011046, -0.1986038940876106 
2.6300000000011257, -0.19796533707284378 
2.6400000000011468, -0.19738884323893516 
2.650000000001168, -0.19689671631911465 
2.660000000001189, -0.19652164247818402 
2.67000000000121, -0.19630415680158486 
2.680000000001231, -0.19627958525535916 
2.6900000000012523, -0.19643382103315396 
2.7000000000012734, -0.196573715023703 
2.7100000000012945, -0.1959767522486673 
2.7200000000013156, -0.1925167224545577 
2.7300000000013367, -0.18075727026872015 
2.740000000001358, -0.14896541986410114 
2.750000000001379, -0.07887939538423507 
2.7600000000014, 0.03912814104232805 
2.770000000001421, 0.17802824341101578 
2.780000000001442, 0.2910113167963439 
2.7900000000014633, 0.361442648335168 
2.8000000000014844, 0.4004504888007301 
2.8100000000015055, 0.42163555500909905 
2.8200000000015266, 0.4333870310040149 
2.8300000000015477, 0.4400891191651582 
2.840000000001569, 0.4439767653800414 
2.85000000000159, 0.44621869534809877 
2.860000000001611, 0.4474545657613382 
2.870000000001632, 0.44805521130427617 
2.8800000000016532, 0.4482512253850573 
2.8900000000016743, 0.4481984843299339 
2.9000000000016954, 0.4480125242522484 
2.9100000000017165, 0.4477870232702968 
2.9200000000017377, 0.4476039846583053 
2.9300000000017588, 0.4475394213107244 
2.94000000000178, 0.4476661358806431 
2.950000000001801, 0.44805365797425195 
2.960000000001822, 0.44876434836690104 
2.970000000001843, 0.44984442929422763 
2.9800000000018643, 0.45130992676137976 
2.9900000000018854, 0.4531306771053491 
3.0000000000019065, 0.45521961871011574 
3.0100000000019276, 0.4574360825522143 
3.0200000000019487, 0.4596068240420564 
3.03000000000197, 0.4615581004036908 
3.040000000001991, 0.4631440576700051 
3.050000000002012, 0.46425839465074903 
3.060000000002033, 0.4648256800304261 
3.070000000002054, 0.464776909576538 
3.0800000000020753, 0.4640151430340737 
3.0900000000020964, 0.4623725925206926 
3.1000000000021175, 0.4595547233603823 
3.1100000000021386, 0.45506440469994386 
3.1200000000021597, 0.4481085837240509 
3.130000000002181, 0.43753490297698855 
3.140000000002202, 0.421968935854352 
3.150000000002223, 0.400501092657815 
3.160000000002244, 0.37409009587000547 
3.1700000000022652, 0.3465529946993097 
3.1800000000022863, 0.32297724359306806 
3.1900000000023074, 0.30635965999820086 
3.2000000000023285, 0.2964166742485653 
3.2100000000023496, 0.2911663364587327 
3.2200000000023707, 0.28863990644367876 
3.230000000002392, 0.2875007124814204 
3.240000000002413, 0.2869872037015868 
3.250000000002434, 0.28670115893957254 
3.260000000002455, 0.2864395170081359 
3.2700000000024763, 0.28609299791930387 
3.2800000000024974, 0.2855901197042209 
3.2900000000025185, 0.2848653467230107 
3.3000000000025396, 0.2838372613771305 
3.3100000000025607, 0.2823873327082649 
3.3200000000025818, 0.2803308440012244 
3.330000000002603, 0.2773684296332318 
3.340000000002624, 0.27299730697080155 
3.350000000002645, 0.2663395438716739 
3.360000000002666, 0.2557962303784769 
3.3700000000026873, 0.23833276948216472 
3.3800000000027084, 0.20801399493857364 
3.3900000000027295, 0.1533119363380935 
3.4000000000027506, 0.05417473848594901 
3.4100000000027717, -0.11205432249065625 
3.420000000002793, -0.3420912508034372 
3.430000000002814, -0.5847006007164537 
3.440000000002835, -0.7869022956476566 
3.450000000002856, -0.9336591590941226 
3.460000000002877, -1.0325380054881705 
3.4700000000028983, -1.0959127776126532 
3.4800000000029194, -1.1351035780161312 
3.4900000000029405, -1.158820079251178 
3.5000000000029616, -1.1730261280580754 
3.5100000000029827, -1.1814897436541472 
3.520000000003004, -1.1864786939122287 
3.530000000003025, -1.1893216107351194 
3.540000000003046, -1.1907825227872022 
3.550000000003067, -1.1912880202534775 
3.5600000000030882, -1.191058316228298 
3.5700000000031094, -1.1901821356646067 
3.5800000000031305, -1.1886647739659775 
3.5900000000031516, -1.1864766402119244 
3.6000000000031727, -1.1836391858415247 
3.6100000000031938, -1.1804051320406248 
3.620000000003215, -1.1776007757948885 
3.630000000003236, -1.177132341309538 
3.640000000003257, -1.1824027557367505 
3.650000000003278, -1.1979610613733973 
3.6600000000032993, -1.227645367857787 
3.6700000000033204, -1.271670609156311 
3.6800000000033415, -1.3251105866588977 
3.6900000000033626, -1.3799790969551253 
3.7000000000033837, -1.4293278365114495 
3.710000000003405, -1.4696368850681756 
3.720000000003426, -1.5004637384551354 
3.730000000003447, -1.522999139277547 
3.740000000003468, -1.5389250577753264 
3.750000000003489, -1.5498488099112562 
3.7600000000035103, -1.5571076956901786 
3.7700000000035314, -1.56173957273099 
3.7800000000035525, -1.564513672394855 
3.7900000000035736, -1.5659800141199427 
3.8000000000035947, -1.5665226028073587 
3.810000000003616, -1.566410912199496 
3.820000000003637, -1.5658469264034862 
3.830000000003658, -1.5650034626286726 
3.840000000003679, -1.5640445724585683 
3.8500000000037002, -1.5631183456270574 
3.8600000000037213, -1.5623287491142737 
3.8700000000037424, -1.561717971808687 
3.8800000000037635, -1.5612859271583561 
3.8900000000037847, -1.5610296384574904 
3.9000000000038058, -1.5609571692764335 
3.910000000003827, -1.561059328355752 
3.920000000003848, -1.561272326994346 
3.930000000003869, -1.5614726544660362 
3.94000000000389, -1.561503483346479 
3.9500000000039113, -1.5611983497815558 
3.9600000000039324, -1.560378342127389 
3.9700000000039535, -1.5588244233586779 
3.9800000000039746, -1.556236053985636 
3.9900000000039957, -1.5521838069694684 
4.000000000004016, -1.5460597014527278 
4.010000000003993, -1.537029126454472 
4.02000000000397, -1.5239925315518401 
4.030000000003946, -1.5055772883090341 
4.040000000003923, -1.4802131294053258 
4.0500000000039, -1.446413791725025 
4.0600000000038765, -1.4034648203514084 
4.070000000003853, -1.3526174770256352 
4.08000000000383, -1.2982564132105479 
4.090000000003807, -1.2475427463251154 
4.100000000003783, -1.207524359554873 
4.11000000000376, -1.1815768981291475 
4.120000000003737, -1.1684122675442017 
4.130000000003713, -1.1640454620895215 
4.14000000000369, -1.1643590345676518 
4.150000000003667, -1.1664613944619566 
4.1600000000036434, -1.1687937845485827 
4.17000000000362, -1.1707000810675483 
4.180000000003597, -1.1719867101019437 
4.1900000000035735, -1.172639071558714 
4.20000000000355, -1.1726736331899794 
4.210000000003527, -1.1720649253889885 
4.220000000003504, -1.1706994116790435 
4.23000000000348, -1.168324166829628 
4.240000000003457, -1.1644641924662467 
4.250000000003434, -1.1582773877155905 
4.26000000000341, -1.1483028270984033 
4.270000000003387, -1.1320431905289101 
4.280000000003364, -1.1053318042863212 
4.2900000000033405, -1.0615403460280004 
4.300000000003317, -0.9910204500537451 
4.310000000003294, -0.8818960589556113 
4.320000000003271, -0.7245702574713008 
4.330000000003247, -0.5232922284074116 
4.340000000003224, -0.30982320440573796 
4.350000000003201, -0.13089929208511672 
4.360000000003177, -0.00907568078004929 
4.370000000003154, 0.06390464186992124 
4.380000000003131, 0.10611376286064472 
4.390000000003107, 0.13076595413923375 
4.400000000003084, 0.14556376469107887 
4.410000000003061, 0.15471598630409217 
4.4200000000030375, 0.16051763758141127 
4.430000000003014, 0.16425019165134866 
4.440000000002991, 0.16665192655522212 
4.450000000002968, 0.168160964926108 
4.460000000002944, 0.1690428502064428 
4.470000000002921, 0.1694591086284346 
4.480000000002898, 0.1695048888357967 
4.490000000002874, 0.1692299003545818 
4.500000000002851, 0.16865025103617512 
4.510000000002828, 0.16775604825036936 
4.520000000002804, 0.16651977787312308 
4.530000000002781, 0.16491456561721768 
4.540000000002758, 0.1629636621768039 
4.5500000000027345, 0.16087279923966985 
4.560000000002711, 0.1593614370523244 
4.570000000002688, 0.16040024576517956 
4.580000000002665, 0.16847971799087869 
4.590000000002641, 0.1914307786517217 
4.600000000002618, 0.23681296781800482 
4.610000000002595, 0.3011293281697136 
4.620000000002571, 0.3662033399502333 
4.630000000002548, 0.4159439114015392 
4.640000000002525, 0.44786788462412114 
4.6500000000025015, 0.46681728382216764 
4.660000000002478, 0.4778262143000675 
4.670000000002455, 0.4842102339310577 
4.6800000000024315, 0.48787491787841547 
4.690000000002408, 0.4898776738662343 
4.700000000002385, 0.49080871910283325 
4.710000000002362, 0.4910072432040089 
4.720000000002338, 0.49067980939349837 
4.730000000002315, 0.48996606551464555 
4.740000000002292, 0.4889755437323385 
4.750000000002268, 0.48780691470345044 
4.760000000002245, 0.4865552537121327 
4.770000000002222, 0.48531108535710854 
4.7800000000021985, 0.48415498418362973 
4.790000000002175, 0.4831514502323489 
4.800000000002152, 0.48234470112237804 
4.810000000002129, 0.48175723860710706 
4.820000000002105, 0.4813905496287912 
4.830000000002082, 0.48122677658833574 
4.840000000002059, 0.4812305638594043 
4.850000000002035, 0.48135096788846 
4.860000000002012, 0.4815236793778881 
4.870000000001989, 0.4816735147583831 
4.880000000001965, 0.48171626609552054 
4.890000000001942, 0.4815579226928424 
4.900000000001919, 0.4810882913877855 
4.9100000000018955, 0.4801649059100474 
4.920000000001872, 0.4785807337377019 
4.930000000001849, 0.47600341521840617 
