t, s[1].omega / s[0].omega 
0, -0.6499977105375729 
0.009999999999999995, -0.6497678719981212 
0.019999999999999934, -0.649530277967114 
0.029999999999999874, -0.6492700866737994 
0.04000000000000012, -0.648970813059361 
0.050000000000000405, -0.6486214851036904 
0.06000000000000069, -0.6482205911256393 
0.07000000000000098, -0.6477767343942674 
0.08000000000000126, -0.6473082022416141 
0.09000000000000155, -0.6468438515070857 
0.10000000000000184, -0.6464266740484037 
0.11000000000000212, -0.6461203531131658 
0.12000000000000241, -0.6460184142534746 
0.130000000000002, -0.6462549530277247 
0.1400000000000009, -0.6470150340996595 
0.1499999999999998, -0.6485413581162021 
0.1599999999999987, -0.6511310915159407 
0.1699999999999976, -0.6551119507653724 
0.1799999999999965, -0.6607799852397431 
0.1899999999999954, -0.6682796689544651 
0.1999999999999943, -0.6774310448813591 
0.2099999999999932, -0.6875852124102261 
0.2199999999999921, -0.6976801044597989 
0.229999999999991, -0.7066002984404756 
0.2399999999999899, -0.7136376167383691 
0.2499999999999888, -0.7186777892037535 
0.2599999999999877, -0.7220271176690802 
0.2699999999999866, -0.724126556347969 
0.2799999999999855, -0.72536700373336 
0.2899999999999844, -0.7260303177689311 
0.2999999999999833, -0.7262961277279905 
0.3099999999999822, -0.7262654903610654 
0.3199999999999811, -0.7259801590040385 
0.32999999999998, -0.7254316493928877 
0.3399999999999789, -0.7245591337664116 
0.3499999999999778, -0.7232356828110293 
0.35999999999997667, -0.7212430938965181 
0.36999999999997557, -0.7182417233838392 
0.37999999999997447, -0.7137616397962117 
0.38999999999997337, -0.7072783723279789 
0.39999999999997227, -0.6984520895517692 
0.40999999999997117, -0.6874930551432996 
0.41999999999997006, -0.6753568853961621 
0.42999999999996896, -0.6634491023080795 
0.43999999999996786, -0.6530056402398645 
0.44999999999996676, -0.64467432199369 
0.45999999999996566, -0.6385179524473077 
0.46999999999996456, -0.634246071988923 
0.47999999999996346, -0.6314421517979569 
0.48999999999996235, -0.629700396418384 
0.49999999999996125, -0.6286837858121787 
0.5099999999999602, -0.62813656791379 
0.519999999999959, -0.6278759917576854 
0.529999999999958, -0.6277769894250678 
0.5399999999999568, -0.6277564024104393 
0.5499999999999557, -0.6277596083046094 
0.5599999999999546, -0.6277506012796439 
0.5699999999999535, -0.6277057709191799 
0.5799999999999524, -0.6276111771236382 
0.5899999999999513, -0.6274624959422732 
0.5999999999999502, -0.6272657727166748 
0.6099999999999491, -0.6270362770594079 
0.619999999999948, -0.6267934998827471 
0.6299999999999469, -0.6265531630368728 
0.6399999999999458, -0.6263200772367427 
0.6499999999999447, -0.6260859912366081 
0.6599999999999436, -0.6258337160437377 
0.6699999999999425, -0.6255449892296499 
0.6799999999999414, -0.6252076893742283 
0.6899999999999403, -0.6248194562816018 
0.6999999999999392, -0.6243879729736536 
0.7099999999999381, -0.6239303170346047 
0.719999999999937, -0.6234738412204283 
0.7299999999999359, -0.6230600326445794 
0.7399999999999348, -0.6227519238613158 
0.7499999999999337, -0.6226451549759753 
0.7599999999999326, -0.6228823361568796 
0.7699999999999315, -0.6236693722381619 
0.7799999999999304, -0.6252901439278691 
0.7899999999999293, -0.6281111510558264 
0.7999999999999282, -0.6325587196394303 
0.8099999999999271, -0.6390386302552167 
0.819999999999926, -0.6477637861711462 
0.8299999999999249, -0.658498574394909 
0.8399999999999238, -0.6703615458998701 
0.8499999999999227, -0.6819587021489589 
0.8599999999999216, -0.6919418440900641 
0.8699999999999205, -0.6995928401358394 
0.8799999999999194, -0.7049372486926423 
0.8899999999999183, -0.7084304175208257 
0.8999999999999172, -0.7106061904490166 
0.9099999999999161, -0.7118982661198452 
0.919999999999915, -0.7126047589130812 
0.9299999999999139, -0.7129110177684552 
0.9399999999999128, -0.7129205861601681 
0.9499999999999117, -0.7126772407141237 
0.9599999999999106, -0.7121752557686483 
0.9699999999999095, -0.7113585606574678 
0.9799999999999084, -0.7101097736275865 
0.9899999999999073, -0.7082318516299897 
0.9999999999999062, -0.7054330049041958 
1.0099999999999052, -0.7013440338005423 
1.019999999999904, -0.6956179143620346 
1.029999999999903, -0.6881380233109913 
1.039999999999902, -0.6792384098710428 
1.0499999999999008, -0.6697146157422865 
1.0599999999998997, -0.6605323176013537 
1.0699999999998986, -0.6524543594413077 
1.0799999999998975, -0.6458602945241287 
1.0899999999998964, -0.6407906144067346 
1.0999999999998953, -0.6370828738038197 
1.1099999999998942, -0.6344922183487467 
1.119999999999893, -0.6327650819326285 
1.129999999999892, -0.6316747480449204 
1.1399999999998909, -0.6310342938967181 
1.1499999999998898, -0.6306978977606823 
1.1599999999998887, -0.6305566081750904 
1.1699999999998876, -0.6305318323976474 
1.1799999999998865, -0.6305684559232583 
1.1899999999998854, -0.6306288423400374 
1.1999999999998843, -0.6306885054669757 
1.2099999999998832, -0.6307337265094752 
1.219999999999882, -0.6307606157133482 
1.229999999999881, -0.6307741504727803 
1.2399999999998799, -0.630785216857091 
1.2499999999998788, -0.6308046359218762 
1.2599999999998777, -0.6308356310471143 
1.2699999999998766, -0.6308684786741885 
1.2799999999998755, -0.6308809700842735 
1.2899999999998744, -0.6308452101586685 
1.2999999999998733, -0.6307371520512456 
1.3099999999998722, -0.6305436108349354 
1.319999999999871, -0.630264001333794 
1.32999999999987, -0.6299081988971732 
1.3399999999998689, -0.629494023486578 
1.3499999999998678, -0.6290472634736877 
1.3599999999998666, -0.6286057690294575 
1.3699999999998655, -0.6282284039722807 
1.3799999999998644, -0.6280095758523376 
1.3899999999998633, -0.6280999386657113 
1.3999999999998622, -0.6287326832409198 
1.4099999999998611, -0.6302511261625158 
1.41999999999986, -0.633124619676148 
1.429999999999859, -0.637923118055945 
1.4399999999998578, -0.6451982401812797 
1.4499999999998567, -0.6552171133345176 
1.4599999999998556, -0.6675880891177959 
1.4699999999998545, -0.6810494574623058 
1.4799999999998534, -0.6938127626021136 
1.4899999999998523, -0.7043970272149531 
1.4999999999998512, -0.7122347538981182 
1.5099999999998501, -0.7175767395733371 
1.519999999999849, -0.7210236848386319 
1.529999999999848, -0.7231646557220232 
1.5399999999998468, -0.7244422667019276 
1.5499999999998457, -0.7251495154226084 
1.5599999999998446, -0.7254655908487776 
1.5699999999998435, -0.7254899105177484 
1.5799999999998424, -0.7252640730594038 
1.5899999999998413, -0.724781606445636 
1.5999999999998402, -0.7239871241838984 
1.6099999999998391, -0.7227665672869936 
1.619999999999838, -0.7209325083946607 
1.629999999999837, -0.7182169013135946 
1.6399999999998358, -0.7142999771268128 
1.6499999999998347, -0.7089148838036049 
1.6599999999998336, -0.7020304943748503 
1.6699999999998325, -0.6940060190498926 
1.6799999999998314, -0.6855482004780946 
1.6899999999998303, -0.677451533877457 
1.6999999999998292, -0.6703202569784869 
1.709999999999828, -0.6644535722362699 
1.719999999999827, -0.6598894737551858 
1.729999999999826, -0.6565066211874784 
1.7399999999998248, -0.6541127445613059 
1.7499999999998237, -0.6525004538066613 
1.7599999999998226, -0.6514767308891511 
1.7699999999998215, -0.6508762607192499 
1.7799999999998204, -0.6505656036751566 
1.7899999999998193, -0.6504421214893269 
1.7999999999998182, -0.650429980877391 
1.809999999999817, -0.6504749443831901 
1.819999999999816, -0.6505393465077373 
1.8299999999998149, -0.6505982935921205 
1.8399999999998138, -0.6506375546828818 
1.8499999999998127, -0.6506527227156036 
1.8599999999998116, -0.6506481769132101 
1.8699999999998105, -0.6506339267858157 
1.8799999999998094, -0.6506195557635372 
1.8899999999998083, -0.6506070508766632 
1.8999999999998072, -0.6505863399371432 
1.909999999999806, -0.6505367111810123 
1.919999999999805, -0.6504338658945846 
1.9299999999998039, -0.6502586366294407 
1.9399999999998028, -0.6500026802233422 
1.9499999999998017, -0.6496694193591106 
1.9599999999998006, -0.6492721719842326 
1.9699999999997995, -0.6488327591007537 
1.9799999999997984, -0.6483830059585742 
1.9899999999997973, -0.6479702404816863 
1.9999999999997962, -0.647667145659547 
2.0099999999998173, -0.6475859278701609 
2.0199999999998384, -0.6478960389960284 
2.0299999999998595, -0.6488429220702204 
2.0399999999998806, -0.6507615867755157 
2.0499999999999017, -0.6540720211384674 
2.059999999999923, -0.6592326109985611 
2.069999999999944, -0.6666171956778574 
2.079999999999965, -0.6762933424887488 
2.089999999999986, -0.6877603262070745 
2.100000000000007, -0.6998600358694359 
2.1100000000000283, -0.7111082009482197 
2.1200000000000494, -0.7203397720991147 
2.1300000000000705, -0.7271411669670348 
2.1400000000000916, -0.7317547863954191 
2.1500000000001127, -0.7347051434906084 
2.160000000000134, -0.7365051140984147 
2.170000000000155, -0.7375411479619093 
2.180000000000176, -0.7380680778595593 
2.190000000000197, -0.7382386154907807 
2.2000000000002182, -0.7381319626564862 
2.2100000000002393, -0.7377714046309796 
2.2200000000002604, -0.7371298298205049 
2.2300000000002815, -0.7361236274991491 
2.2400000000003026, -0.7345953436612249 
2.2500000000003237, -0.7322881960411566 
2.260000000000345, -0.7288270444241269 
2.270000000000366, -0.7237465651293415 
2.280000000000387, -0.7166343752064914 
2.290000000000408, -0.7074156349295995 
2.3000000000004293, -0.6966251573538036 
2.3100000000004504, -0.6853618107683906 
2.3200000000004715, -0.674850533686733 
2.3300000000004926, -0.6659619344714525 
2.3400000000005137, -0.6590349282024814 
2.3500000000005348, -0.6539878206702336 
2.360000000000556, -0.650518649234691 
2.370000000000577, -0.6482626943699112 
2.380000000000598, -0.6468799387863448 
2.390000000000619, -0.6460908173438605 
2.4000000000006403, -0.6456828385730367 
2.4100000000006614, -0.6455033603357032 
2.4200000000006825, -0.6454472061258067 
2.4300000000007036, -0.6454437745451163 
2.4400000000007247, -0.6454460247555528 
2.450000000000746, -0.6454224595140122 
2.460000000000767, -0.6453525097733274 
2.470000000000788, -0.645225110455365 
2.480000000000809, -0.6450393218492086 
2.49000000000083, -0.6448046677920589 
2.5000000000008513, -0.644538504416766 
2.5100000000008724, -0.6442595018595029 
2.5200000000008935, -0.6439796282713841 
2.5300000000009146, -0.6436990356696917 
2.5400000000009357, -0.6434068788443476 
2.550000000000957, -0.6430873921888562 
2.560000000000978, -0.6427274992133654 
2.570000000000999, -0.6423221494580419 
2.58000000000102, -0.6418761732879374 
2.5900000000010412, -0.641404186563338 
2.6000000000010624, -0.6409309752823181 
2.6100000000010835, -0.6404940736001667 
2.6200000000011046, -0.6401491613635056 
2.6300000000011257, -0.639978118604919 
2.6400000000011468, -0.6400989967929697 
2.650000000001168, -0.6406764654186999 
2.660000000001189, -0.6419301264976546 
2.67000000000121, -0.644135937080775 
2.680000000001231, -0.6476119310622641 
2.6900000000012523, -0.6526729275608518 
2.7000000000012734, -0.6595334640425035 
2.7100000000012945, -0.6681494416628816 
2.7200000000013156, -0.6780462366394883 
2.7300000000013367, -0.6882815428410843 
2.740000000001358, -0.6977036399178032 
2.750000000001379, -0.7054220618231597 
2.7600000000014, -0.7111228005681425 
2.770000000001421, -0.7150009682305356 
2.780000000001442, -0.7174795135002416 
2.7900000000014633, -0.7189781185044793 
2.8000000000014844, -0.7198167362858888 
2.8100000000015055, -0.7202071263870922 
2.8200000000015266, -0.72027445143263 
2.8300000000015477, -0.7200792086794843 
2.840000000001569, -0.7196300059029167 
2.85000000000159, -0.7188853896106686 
2.860000000001611, -0.7177443581065182 
2.870000000001632, -0.7160254819105865 
2.8800000000016532, -0.713438386724067 
2.8900000000016743, -0.7095658337800071 
2.9000000000016954, -0.7039059885386997 
2.9100000000017165, -0.6960518816196641 
2.9200000000017377, -0.6860202360751299 
2.9300000000017588, -0.6745182684994347 
2.94000000000178, -0.6628064955162257 
2.950000000001801, -0.6521597058143265 
2.960000000001822, -0.6433797035890468 
2.970000000001843, -0.636688227742363 
2.9800000000018643, -0.6319029868397135 
2.9900000000018854, -0.6286621634707817 
3.0000000000019065, -0.6265777126553542 
3.0100000000019276, -0.6253095633071668 
3.0200000000019487, -0.6245892224143723 
3.03000000000197, -0.6242182642908577 
3.040000000001991, -0.6240567928065129 
3.050000000002012, -0.6240094781054562 
3.060000000002033, -0.6240127010059997 
3.070000000002054, -0.6240243294554016 
3.0800000000020753, -0.6240166933091017 
3.0900000000020964, -0.6239728083582117 
3.1000000000021175, -0.6238853479884722 
3.1100000000021386, -0.623756956715935 
3.1200000000021597, -0.623599543505197 
3.130000000002181, -0.623430328557311 
3.140000000002202, -0.6232645556239933 
3.150000000002223, -0.6231078422577847 
3.160000000002244, -0.6229524631266188 
3.1700000000022652, -0.6227799870425875 
3.1800000000022863, -0.6225688517166298 
3.1900000000023074, -0.6223025535201799 
3.2000000000023285, -0.6219745001530452 
3.2100000000023496, -0.6215887281619958 
3.2200000000023707, -0.621158644833086 
3.230000000002392, -0.6207066752960642 
3.240000000002413, -0.6202667895019578 
3.250000000002434, -0.6198908676904723 
3.260000000002455, -0.6196593743540052 
3.2700000000024763, -0.6196965575208936 
3.2800000000024974, -0.620189719867773 
3.2900000000025185, -0.6214101604421379 
3.3000000000025396, -0.6237287699086076 
3.3100000000025607, -0.6276097838983776 
3.3200000000025818, -0.6335505207557806 
3.330000000002603, -0.6419212662502327 
3.340000000002624, -0.6526851253196408 
3.350000000002645, -0.665107201719721 
3.360000000002666, -0.6777575271280142 
3.3700000000026873, -0.6890405834314464 
3.3800000000027084, -0.6979309772812281 
3.3900000000027295, -0.7042658789432078 
3.4000000000027506, -0.7084674768930947 
3.4100000000027717, -0.7111219418431067 
3.420000000002793, -0.7127328563936057 
3.430000000002814, -0.7136562080813319 
3.440000000002835, -0.7141186550816934 
3.450000000002856, -0.7142526268665123 
3.460000000002877, -0.7141238083620454 
3.4700000000028983, -0.7137463409398868 
3.4800000000029194, -0.7130865827656616 
3.4900000000029405, -0.7120568472604483 
3.5000000000029616, -0.7105013700987509 
3.5100000000029827, -0.7081818772948265 
3.520000000003004, -0.7047835920967177 
3.530000000003025, -0.6999810467201263 
3.540000000003046, -0.6935965542576751 
3.550000000003067, -0.6858016122564975 
3.5600000000030882, -0.6771907226597413 
3.5700000000031094, -0.6685976336494016 
3.5800000000031305, -0.6607728215214688 
3.5900000000031516, -0.6541689443804009 
3.6000000000031727, -0.6489252323924922 
3.6100000000031938, -0.6449656114561995 
3.620000000003215, -0.6421070052811234 
3.630000000003236, -0.6401340411335573 
3.640000000003257, -0.6388396434298371 
3.650000000003278, -0.6380433908924266 
3.6600000000032993, -0.6375976406779367 
3.6700000000033204, -0.6373872419294812 
3.6800000000033415, -0.6373259302652639 
3.6900000000033626, -0.6373512514329728 
3.7000000000033837, -0.6374193552283899 
3.710000000003405, -0.6375006812481531 
3.720000000003426, -0.6375771469316646 
3.730000000003447, -0.6376407785675485 
3.740000000003468, -0.6376927813008014 
3.750000000003489, -0.6377412701178261 
3.7600000000035103, -0.6377962310394005 
3.7700000000035314, -0.6378622770171718 
3.7800000000035525, -0.6379323167659156 
3.7900000000035736, -0.6379861138919514 
3.8000000000035947, -0.6379954979305766 
3.810000000003616, -0.6379337727801146 
3.820000000003637, -0.6377840244645102 
3.830000000003658, -0.6375423750351823 
3.840000000003679, -0.6372164549773639 
3.8500000000037002, -0.6368224114245318 
3.8600000000037213, -0.636383817292309 
3.8700000000037424, -0.6359344129448974 
3.8800000000037635, -0.6355255707196349 
3.8900000000037847, -0.6352391361670391 
3.9000000000038058, -0.6352062487951406 
3.910000000003827, -0.635631937578593 
3.920000000003848, -0.6368224849574935 
3.930000000003869, -0.6392057919301213 
3.94000000000389, -0.6433215114224261 
3.9500000000039113, -0.6497372432711261 
3.9600000000039324, -0.6588352545384064 
3.9700000000039535, -0.6704666351448265 
3.9800000000039746, -0.6836557479026099 
3.9900000000039957, -0.6967353032054879 
4.000000000004016, -0.7080567140020622 
4.010000000003993, -0.71673859662135 
4.02000000000397, -0.7228015184125619 
4.030000000003946, -0.7267723174695728 
4.040000000003923, -0.7292625646180017 
4.0500000000039, -0.7307648614726128 
4.0600000000038765, -0.7316170362839951 
4.070000000003853, -0.7320306841310293 
4.08000000000383, -0.7321274021507563 
4.090000000003807, -0.7319647473480178 
4.100000000003783, -0.7315495389332718 
4.11000000000376, -0.730839750874259 
4.120000000003737, -0.72973632355583 
4.130000000003713, -0.7280672835780548 
4.14000000000369, -0.7255726443318423 
4.150000000003667, -0.7219137856643185 
4.1600000000036434, -0.716750442399008 
4.17000000000362, -0.7099168533329234 
4.180000000003597, -0.7016332475881534 
4.1900000000035735, -0.6925649801107323 
4.20000000000355, -0.6836066690868858 
4.210000000003527, -0.6755385087116598 
4.220000000003504, -0.6688128963025685 
4.23000000000348, -0.663550339242964 
4.240000000003457, -0.6596477591806009 
4.250000000003434, -0.6568932643090338 
4.26000000000341, -0.655044974620921 
4.270000000003387, -0.6538743018709435 
4.280000000003364, -0.6531856544816863 
4.2900000000033405, -0.6528225323336171 
4.300000000003317, -0.6526660844884632 
4.310000000003294, -0.6526297528604781 
4.320000000003271, -0.6526524320841947 
4.330000000003247, -0.6526919131119437 
4.340000000003224, -0.6527198385544348 
4.350000000003201, -0.6527188005720007 
4.360000000003177, -0.6526813837280404 
4.370000000003154, -0.6526098508535537 
4.380000000003131, -0.6525143278322133 
4.390000000003107, -0.6524078898076159 
4.400000000003084, -0.6522993292737024 
4.410000000003061, -0.6521870249499562 
4.4200000000030375, -0.6520577129963699 
4.430000000003014, -0.6518912809116904 
4.440000000002991, -0.6516688622088384 
4.450000000002968, -0.6513796789699974 
4.460000000002944, -0.651023837296709 
4.470000000002921, -0.6506117759524603 
4.480000000002898, -0.6501631606967888 
4.490000000002874, -0.6497077866320757 
4.500000000002851, -0.649289816852354 
4.510000000002828, -0.6489756972568729 
4.520000000002804, -0.6488654938959046 
4.530000000002781, -0.6491067385304983 
4.540000000002758, -0.6499086323484216 
4.5500000000027345, -0.651552143478787 
4.560000000002711, -0.6543873680417202 
4.570000000002688, -0.6588025682353134 
4.580000000002665, -0.6651408333574403 
4.590000000002641, -0.6735415485848232 
4.600000000002618, -0.6837253692008465 
4.610000000002595, -0.6948495265786999 
4.620000000002571, -0.7056505885658899 
4.630000000002548, -0.7149310673173955 
4.640000000002525, -0.7220537204805798 
4.6500000000025015, -0.7270388673467221 
4.660000000002478, -0.7302960657214439 
4.670000000002455, -0.7323138918450511 
4.6800000000024315, -0.7334946347949448 
4.690000000002408, -0.7341169536396519 
4.700000000002385, -0.7343539019505481 
4.710000000002362, -0.7343002264344967 
4.720000000002338, -0.7339919377237124 
4.730000000002315, -0.7334145088889209 
4.740000000002292, -0.7324994865726906 
4.750000000002268, -0.7311093623191486 
4.760000000002245, -0.7290117504329051 
4.770000000002222, -0.7258517728893106 
4.7800000000021985, -0.7211540270353236 
4.790000000002175, -0.7144212383192756 
4.800000000002152, -0.7053955537951888 
4.810000000002129, -0.6944046507801399 
4.820000000002105, -0.6824770312467148 
4.830000000002082, -0.6709805606095101 
4.840000000002059, -0.661034622758247 
4.850000000002035, -0.6531762786567088 
4.860000000002012, -0.6474098027434093 
4.870000000001989, -0.6434328373588328 
4.880000000001965, -0.6408406325158055 
4.890000000001942, -0.6392456774805093 
4.900000000001919, -0.6383278590322289 
4.9100000000018955, -0.6378447323560239 
4.920000000001872, -0.6376233204072357 
