t, s[1].omega / s[0].omega 
0, -0.9799747357000237 
0.009999999999999995, -0.9773070204369046 
0.019999999999999934, -0.9744397932467009 
0.029999999999999874, -0.9715028730301182 
0.04000000000000012, -0.9686327416744553 
0.050000000000000405, -0.9659675326716641 
0.06000000000000069, -0.963638679421426 
0.07000000000000098, -0.961753119806328 
0.08000000000000126, -0.9603682239748206 
0.09000000000000155, -0.9594719707946024 
0.10000000000000184, -0.9589838954825105 
0.11000000000000212, -0.9587804804599844 
0.12000000000000241, -0.9587306370629104 
0.130000000000002, -0.9587215524042376 
0.1400000000000009, -0.9586662863640095 
0.1499999999999998, -0.9584978951411767 
0.1599999999999987, -0.9581597852980567 
0.1699999999999976, -0.9576000923968252 
0.1799999999999965, -0.9567740123244125 
0.1899999999999954, -0.9556534452982486 
0.1999999999999943, -0.9542380882375495 
0.2099999999999932, -0.9525596744970821 
0.2199999999999921, -0.95067568092545 
0.229999999999991, -0.9486573492423995 
0.2399999999999899, -0.9465802723698504 
0.2499999999999888, -0.9445213472662427 
0.2599999999999877, -0.9425596160467531 
0.2699999999999866, -0.9407758043620895 
0.2799999999999855, -0.9392464578289559 
0.2899999999999844, -0.938031769781858 
0.2999999999999833, -0.9371604646007097 
0.3099999999999822, -0.9366190049612273 
0.3199999999999811, -0.9363525354365491 
0.32999999999998, -0.9362788717266459 
0.3399999999999789, -0.9363083601830283 
0.3499999999999778, -0.9363595880521973 
0.35999999999997667, -0.936365957179838 
0.36999999999997557, -0.9362751620566486 
0.37999999999997447, -0.9360468486612197 
0.38999999999997337, -0.9356524958074379 
0.39999999999997227, -0.9350779680863717 
0.40999999999997117, -0.9343257752752633 
0.41999999999997006, -0.933413545143354 
0.42999999999996896, -0.9323684836788562 
0.43999999999996786, -0.9312214260651388 
0.44999999999996676, -0.9300042803655865 
0.45999999999996566, -0.9287514915273383 
0.46999999999996456, -0.9275032419252318 
0.47999999999996346, -0.9263074317639738 
0.48999999999996235, -0.9252182831262361 
0.49999999999996125, -0.9242906614521006 
0.5099999999999602, -0.9235708046564511 
0.519999999999959, -0.9230859718682008 
0.529999999999958, -0.9228367928838133 
0.5399999999999568, -0.9227958344341343 
0.5499999999999557, -0.9229135701396662 
0.5599999999999546, -0.923129365833028 
0.5699999999999535, -0.9233827760162502 
0.5799999999999524, -0.9236213614891223 
0.5899999999999513, -0.9238042579169268 
0.5999999999999502, -0.9239028965317001 
0.6099999999999491, -0.9239001876359104 
0.619999999999948, -0.9237883403497541 
0.6299999999999469, -0.9235653849140715 
0.6399999999999458, -0.9232317723192052 
0.6499999999999447, -0.9227892195529754 
0.6599999999999436, -0.9222426283568685 
0.6699999999999425, -0.9216036634056485 
0.6799999999999414, -0.920893902105027 
0.6899999999999403, -0.9201465997580429 
0.6999999999999392, -0.9194070124733086 
0.7099999999999381, -0.9187306749808265 
0.719999999999937, -0.9181782010562966 
0.7299999999999359, -0.917805983207648 
0.7399999999999348, -0.9176548276536302 
0.7499999999999337, -0.9177408593489066 
0.7599999999999326, -0.9180525756997178 
0.7699999999999315, -0.9185549519701988 
0.7799999999999304, -0.9191983744505103 
0.7899999999999293, -0.919928697146809 
0.7999999999999282, -0.9206951004447163 
0.8099999999999271, -0.921453962647694 
0.819999999999926, -0.9221686788550194 
0.8299999999999249, -0.9228067706279355 
0.8399999999999238, -0.923336796882673 
0.8499999999999227, -0.9237280900060314 
0.8599999999999216, -0.9239548976668264 
0.8699999999999205, -0.9240030220915274 
0.8799999999999194, -0.9238745452298358 
0.8899999999999183, -0.9235879037056609 
0.8999999999999172, -0.9231749136157624 
0.9099999999999161, -0.9226786593495035 
0.919999999999915, -0.92215453742023 
0.9299999999999139, -0.9216730647661644 
0.9399999999999128, -0.9213198862207512 
0.9499999999999117, -0.9211879224224617 
0.9599999999999106, -0.9213605289122583 
0.9699999999999095, -0.9218915632276001 
0.9799999999999084, -0.9227923676425318 
0.9899999999999073, -0.9240319093001915 
0.9999999999999062, -0.925547850534709 
1.0099999999999052, -0.9272608706264032 
1.019999999999904, -0.9290852655897144 
1.029999999999903, -0.9309331473314348 
1.039999999999902, -0.9327142744501193 
1.0499999999999008, -0.9343369655349509 
1.0599999999998997, -0.9357157384823044 
1.0699999999998986, -0.9367861851043171 
1.0799999999998975, -0.9375194049671653 
1.0899999999998964, -0.9379256385968974 
1.0999999999998953, -0.9380445001905745 
1.1099999999998942, -0.9379295146040272 
1.119999999999893, -0.9376370539835648 
1.129999999999892, -0.937224849314509 
1.1399999999998909, -0.9367598006605808 
1.1499999999998898, -0.9363313283436927 
1.1599999999998887, -0.9360630651983506 
1.1699999999998876, -0.936112013110395 
1.1799999999998865, -0.9366455713026449 
1.1899999999998854, -0.9377989891534589 
1.1999999999998843, -0.939632869535858 
1.2099999999998832, -0.9421139781469984 
1.219999999999882, -0.9451256203187706 
1.229999999999881, -0.9484938957597955 
1.2399999999998799, -0.9520126618270345 
1.2499999999998788, -0.9554617950163994 
1.2599999999998777, -0.9586261070588862 
1.2699999999998766, -0.9613238286398461 
1.2799999999998755, -0.9634407015573313 
1.2899999999998744, -0.9649503614565009 
1.2999999999998733, -0.9659046284966651 
1.3099999999998722, -0.9663995606187376 
1.319999999999871, -0.9665392131734487 
1.32999999999987, -0.9664140125907247 
1.3399999999998689, -0.966097053642029 
1.3499999999998678, -0.9656544534719783 
1.3599999999998666, -0.9651658141687 
1.3699999999998655, -0.9647508564439781 
1.3799999999998644, -0.9645926598417942 
1.3899999999998633, -0.964937902178509 
1.3999999999998622, -0.966053315404309 
1.4099999999998611, -0.9681418041110248 
1.41999999999986, -0.9712599129979921 
1.429999999999859, -0.975286140167954 
1.4399999999998578, -0.979950567605697 
1.4499999999998567, -0.9848958085733834 
1.4599999999998556, -0.9897388518816553 
1.4699999999998545, -0.9941277163933201 
1.4799999999998534, -0.9977975215842134 
1.4899999999998523, -1.0006156243864122 
1.4999999999998512, -1.002590556518134 
1.5099999999998501, -1.0038347615438181 
1.519999999999849, -1.00450397269394 
1.529999999999848, -1.0047469323119786 
1.5399999999998468, -1.004681695193989 
1.5499999999998457, -1.0043954904871186 
1.5599999999998446, -1.0039597539567167 
1.5699999999998435, -1.0034554057679688 
1.5799999999998424, -1.0030053438316342 
1.5899999999998413, -1.0028043820191814 
1.5999999999998402, -1.0031223859243639 
1.6099999999998391, -1.0042520002564348 
1.619999999999838, -1.0064043510853984 
1.629999999999837, -1.0096106431455536 
1.6399999999998358, -1.0136968320370832 
1.6499999999998347, -1.0183384661634522 
1.6599999999998336, -1.023146520605469 
1.6699999999998325, -1.0277406298265483 
1.6799999999998314, -1.0318025396089248 
1.6899999999998303, -1.0351181424059457 
1.6999999999998292, -1.0376034370405256 
1.709999999999828, -1.0392979926685089 
1.719999999999827, -1.040323432361124 
1.729999999999826, -1.0408290690771347 
1.7399999999998248, -1.0409513721937658 
1.7499999999998237, -1.0407979942308168 
1.7599999999998226, -1.0404524990280297 
1.7699999999998215, -1.0399926889402902 
1.7799999999998204, -1.0395171609709215 
1.7899999999998193, -1.0391719661769567 
1.7999999999998182, -1.039159095974761 
1.809999999999817, -1.0397029666422655 
1.819999999999816, -1.040973358521728 
1.8299999999998149, -1.0430087333586153 
1.8399999999998138, -1.045696729921136 
1.8499999999998127, -1.048819866501424 
1.8599999999998116, -1.0521234604117087 
1.8699999999998105, -1.0553651712967418 
1.8799999999998094, -1.0583387818765204 
1.8899999999998083, -1.0608858447938214 
1.8999999999998072, -1.0629068164147786 
1.909999999999806, -1.0643698368863117 
1.919999999999805, -1.0653069382074594 
1.9299999999998039, -1.065793839763902 
1.9399999999998028, -1.065922749125157 
1.9499999999998017, -1.0657820885185743 
1.9599999999998006, -1.0654505360873614 
1.9699999999997995, -1.065004655644938 
1.9799999999997984, -1.0645345735051674 
1.9899999999997973, -1.064157743500419 
1.9999999999997962, -1.0640159300277654 
2.0099999999998173, -1.0642442960483245 
2.0199999999998384, -1.0649230620903523 
2.0299999999998595, -1.0660448477808213 
2.0399999999998806, -1.067521788579326 
2.0499999999999017, -1.069222125296254 
2.059999999999923, -1.0710081337852018 
2.069999999999944, -1.0727582999636116 
2.079999999999965, -1.074373772297853 
2.089999999999986, -1.0757769378045907 
2.100000000000007, -1.076909834074037 
2.1100000000000283, -1.0777361606196787 
2.1200000000000494, -1.078245209892629 
2.1300000000000705, -1.0784526660198632 
2.1400000000000916, -1.0783954141862788 
2.1500000000001127, -1.0781232602263493 
2.160000000000134, -1.077693492629757 
2.170000000000155, -1.0771716891522858 
2.180000000000176, -1.0766364514232598 
2.190000000000197, -1.0761803658452065 
2.2000000000002182, -1.075898667458842 
2.2100000000002393, -1.0758653445971953 
2.2200000000002604, -1.0761096698659158 
2.2300000000002815, -1.076608985242418 
2.2400000000003026, -1.0773005429960822 
2.2500000000003237, -1.0781022305165013 
2.260000000000345, -1.078931344597947 
2.270000000000366, -1.0797164428084112 
2.280000000000387, -1.0804019148582933 
2.290000000000408, -1.0809472915344636 
2.3000000000004293, -1.081324228791491 
2.3100000000004504, -1.0815138927348824 
2.3200000000004715, -1.0815064056099455 
2.3300000000004926, -1.0813022777652952 
2.3400000000005137, -1.0809142521582111 
2.3500000000005348, -1.0803682130384753 
2.360000000000556, -1.0797034601821784 
2.370000000000577, -1.0789731867432943 
2.380000000000598, -1.0782439663143648 
2.390000000000619, -1.077590616096027 
2.4000000000006403, -1.0770839910679277 
2.4100000000006614, -1.0767747623959771 
2.4200000000006825, -1.0766805140456757 
2.4300000000007036, -1.076781720732312 
2.4400000000007247, -1.0770274865952107 
2.450000000000746, -1.0773485570888095 
2.460000000000767, -1.0776725333083446 
2.470000000000788, -1.07793544021632 
2.480000000000809, -1.0780870195821335 
2.49000000000083, -1.0780914343847263 
2.5000000000008513, -1.0779262315399085 
2.5100000000008724, -1.0775808193289371 
2.5200000000008935, -1.0770545425817377 
2.5300000000009146, -1.076354930415272 
2.5400000000009357, -1.0754973137498136 
2.550000000000957, -1.0745063803118333 
2.560000000000978, -1.073418976568767 
2.570000000000999, -1.0722865516331006 
2.58000000000102, -1.0711750166781284 
2.5900000000010412, -1.070159640341861 
2.6000000000010624, -1.0693138114217398 
2.6100000000010835, -1.068693021188446 
2.6200000000011046, -1.0683184176472709 
2.6300000000011257, -1.0681673091712345 
2.6400000000011468, -1.068177775404482 
2.650000000001168, -1.0682665884177927 
2.660000000001189, -1.068349637815278 
2.67000000000121, -1.0683539864804814 
2.680000000001231, -1.0682200005964564 
2.6900000000012523, -1.067899431727648 
2.7000000000012734, -1.0673553715109259 
2.7100000000012945, -1.0665654850282842 
2.7200000000013156, -1.065525611932483 
2.7300000000013367, -1.064250217747961 
2.740000000001358, -1.0627695246219648 
2.750000000001379, -1.0611265476821123 
2.7600000000014, -1.0593769795882333 
2.770000000001421, -1.0575916521330768 
2.780000000001442, -1.0558582298310981 
2.7900000000014633, -1.0542774010400449 
2.8000000000014844, -1.0529493113729265 
2.8100000000015055, -1.051949518769719 
2.8200000000015266, -1.0513021213393978 
2.8300000000015477, -1.0509665152968861 
2.840000000001569, -1.050850244382038 
2.85000000000159, -1.0508405829502139 
2.860000000001611, -1.050833036171259 
2.870000000001632, -1.0507423385956374 
2.8800000000016532, -1.0504983197609166 
2.8900000000016743, -1.050037343957036 
2.9000000000016954, -1.049298581041219 
2.9100000000017165, -1.048229257457433 
2.9200000000017377, -1.0467969578540326 
2.9300000000017588, -1.0450016198895957 
2.94000000000178, -1.0428795367036996 
2.950000000001801, -1.0404984061370777 
2.960000000001822, -1.0379496905230956 
2.970000000001843, -1.035344455127754 
2.9800000000018643, -1.0328123719637676 
2.9900000000018854, -1.0304971222024073 
3.0000000000019065, -1.0285395272889992 
3.0100000000019276, -1.0270452659254727 
3.0200000000019487, -1.0260481848786194 
3.03000000000197, -1.025493561155138 
3.040000000001991, -1.025258313013218 
3.050000000002012, -1.025196098004223 
3.060000000002033, -1.025176438447431 
3.070000000002054, -1.025098882094778 
3.0800000000020753, -1.024885904561785 
3.0900000000020964, -1.024468203283425 
3.1000000000021175, -1.0237736963304256 
3.1100000000021386, -1.0227268079620186 
3.1200000000021597, -1.021260468680328 
3.130000000002181, -1.0193370707575324 
3.140000000002202, -1.0169673478191548 
3.150000000002223, -1.0142156935776232 
3.160000000002244, -1.0111907483824658 
3.1700000000022652, -1.0080309437679886 
3.1800000000022863, -1.0048940513886637 
3.1900000000023074, -1.0019499557112739 
3.2000000000023285, -0.9993676917032366 
3.2100000000023496, -0.9972885233171654 
3.2200000000023707, -0.9957883915582502 
3.230000000002392, -0.9948496059760817 
3.240000000002413, -0.9943655122529617 
3.250000000002434, -0.994180313227972 
3.260000000002455, -0.9941382385720339 
3.2700000000024763, -0.9941135543328252 
3.2800000000024974, -0.9940139718745786 
3.2900000000025185, -0.9937679774741586 
3.3000000000025396, -0.9933095009100905 
3.3100000000025607, -0.9925688372691102 
3.3200000000025818, -0.991474704535182 
3.330000000002603, -0.9899685966002059 
3.340000000002624, -0.9880260935279074 
3.350000000002645, -0.9856729651634865 
3.360000000002666, -0.982985499903123 
3.3700000000026873, -0.9800765066822436 
3.3800000000027084, -0.977078488188339 
3.3900000000027295, -0.974132922061702 
3.4000000000027506, -0.9713844917729662 
3.4100000000027717, -0.9689723114460786 
3.420000000002793, -0.9670113429251355 
3.430000000002814, -0.9655656576134962 
3.440000000002835, -0.964626569122994 
3.450000000002856, -0.9641126040489573 
3.460000000002877, -0.9638959498754099 
3.4700000000028983, -0.9638402699066122 
3.4800000000029194, -0.9638284619331655 
3.4900000000029405, -0.9637708216487603 
3.5000000000029616, -0.9635986308342692 
3.5100000000029827, -0.9632535015016337 
3.520000000003004, -0.9626807432816209 
3.530000000003025, -0.9618311111766401 
3.540000000003046, -0.9606708548773142 
3.550000000003067, -0.9591945075433477 
3.5600000000030882, -0.9574314112902756 
3.5700000000031094, -0.9554407739983318 
3.5800000000031305, -0.9532992336964108 
3.5900000000031516, -0.9510898421050505 
3.6000000000031727, -0.9488975268444513 
3.6100000000031938, -0.9468091323111354 
3.620000000003215, -0.9449125497728076 
3.630000000003236, -0.9432902264461782 
3.640000000003257, -0.9420058378524911 
3.650000000003278, -0.941087893346358 
3.6600000000032993, -0.9405185814794139 
3.6700000000033204, -0.940236031049877 
3.6800000000033415, -0.9401507483330246 
3.6900000000033626, -0.9401674974146804 
3.7000000000033837, -0.9402015370188621 
3.710000000003405, -0.9401844325244001 
3.720000000003426, -0.9400623539021314 
3.730000000003447, -0.9397928673314159 
3.740000000003468, -0.9393446723618174 
3.750000000003489, -0.9387008877530467 
3.7600000000035103, -0.9378626525406695 
3.7700000000035314, -0.9368487363485547 
3.7800000000035525, -0.935690092504563 
3.7900000000035736, -0.9344229057753572 
3.8000000000035947, -0.933084704844067 
3.810000000003616, -0.9317149434652447 
3.820000000003637, -0.9303579387364641 
3.830000000003658, -0.9290648864931785 
3.840000000003679, -0.9278924211903649 
3.8500000000037002, -0.926896661373385 
3.8600000000037213, -0.92612350003702 
3.8700000000037424, -0.925597868519812 
3.8800000000037635, -0.925316107205664 
3.8900000000037847, -0.9252452782794134 
3.9000000000038058, -0.9253304664779127 
3.910000000003827, -0.9255069626795628 
3.920000000003848, -0.9257119435203528 
3.930000000003869, -0.925891857029996 
3.94000000000389, -0.926005332205573 
3.9500000000039113, -0.9260236200845513 
3.9600000000039324, -0.9259300829180666 
3.9700000000039535, -0.9257186124431657 
3.9800000000039746, -0.925390450152632 
3.9900000000039957, -0.9249503568095021 
4.000000000004016, -0.9244044459472182 
4.010000000003993, -0.9237611328270386 
4.02000000000397, -0.9230343386260875 
4.030000000003946, -0.9222468877353162 
4.040000000003923, -0.9214326810506461 
4.0500000000039, -0.9206370715724368 
4.0600000000038765, -0.9199146809437598 
4.070000000003853, -0.9193235609546843 
4.08000000000383, -0.9189156911929741 
4.090000000003807, -0.9187262227285679 
4.100000000003783, -0.9187655508137293 
4.11000000000376, -0.9190174728511458 
4.120000000003737, -0.9194439347038476 
4.130000000003713, -0.9199941340971816 
4.14000000000369, -0.9206144231970621 
4.150000000003667, -0.9212558727824115 
4.1600000000036434, -0.9218779441309077 
4.17000000000362, -0.9224483421773935 
4.180000000003597, -0.9229402155764795 
4.1900000000035735, -0.9233287517702552 
4.20000000000355, -0.9235898447581959 
4.210000000003527, -0.9237026772004364 
4.220000000003504, -0.9236552063208565 
4.23000000000348, -0.9234489582621601 
4.240000000003457, -0.9231003131351514 
4.250000000003434, -0.9226389848507625 
4.26000000000341, -0.9221067038655312 
4.270000000003387, -0.9215579629626915 
4.280000000003364, -0.9210614377861303 
4.2900000000033405, -0.9206979925970206 
4.300000000003317, -0.9205513914759533 
4.310000000003294, -0.9206920937505274 
4.320000000003271, -0.9211604775981124 
4.330000000003247, -0.9219579226665078 
4.340000000003224, -0.9230496011982966 
4.350000000003201, -0.9243757518782691 
4.360000000003177, -0.9258646465558451 
4.370000000003154, -0.9274416912667014 
4.380000000003131, -0.9290326417793537 
4.390000000003107, -0.9305626024282038 
4.400000000003084, -0.9319553435045668 
4.410000000003061, -0.933138072599009 
4.4200000000030375, -0.9340530935793303 
4.430000000003014, -0.9346708253899315 
4.440000000002991, -0.934995125724255 
4.450000000002968, -0.9350571668504196 
4.460000000002944, -0.934903205764809 
4.470000000002921, -0.9345850493099006 
4.480000000002898, -0.934158534433343 
4.490000000002874, -0.9336902033654912 
4.500000000002851, -0.9332684299314223 
4.510000000002828, -0.9330117293449283 
4.520000000002804, -0.9330643995081012 
4.530000000002781, -0.9335727079841358 
4.540000000002758, -0.9346469431180638 
4.5500000000027345, -0.9363279513134388 
4.560000000002711, -0.9385761237337589 
4.570000000002688, -0.9412844304051363 
4.580000000002665, -0.944301895440454 
4.590000000002641, -0.9474533887938366 
4.600000000002618, -0.9505522734334614 
4.610000000002595, -0.9534130914749268 
4.620000000002571, -0.9558733035076313 
4.630000000002548, -0.9578228327763844 
4.640000000002525, -0.9592256839586929 
4.6500000000025015, -0.9601169870458206 
4.660000000002478, -0.9605765691988903 
4.670000000002455, -0.9606968393628478 
4.6800000000024315, -0.9605616283881261 
4.690000000002408, -0.9602411812303802 
4.700000000002385, -0.9598008469279522 
4.710000000002362, -0.9593197275407377 
4.720000000002338, -0.9589149018955672 
4.730000000002315, -0.9587615851935645 
4.740000000002292, -0.9590911564611702 
4.750000000002268, -0.9601495206880062 
4.760000000002245, -0.9621211105071925 
4.770000000002222, -0.965056616170539 
4.7800000000021985, -0.9688467638974085 
4.790000000002175, -0.9732491594290045 
4.800000000002152, -0.9779409584137996 
4.810000000002129, -0.9825711848856942 
4.820000000002105, -0.9868088825149431 
4.830000000002082, -0.9903936797027357 
4.840000000002059, -0.9931815021884305 
4.850000000002035, -0.9951609278949789 
4.860000000002012, -0.9964254614895065 
4.870000000001989, -0.9971184832979043 
4.880000000001965, -0.9973831405681455 
4.890000000001942, -0.997336080581596 
4.900000000001919, -0.9970645842738886 
4.9100000000018955, -0.9966394835863571 
4.920000000001872, -0.9961386993916859 
4.930000000001849, -0.9956784353720229 
