t, s[1].omega / s[0].omega 
0, -0.9998250278235112 
0.009999999999999995, -0.9829680117121977 
0.019999999999999934, -0.9694425315083967 
0.029999999999999874, -0.96095401816371 
0.04000000000000012, -0.9571024924264062 
0.050000000000000405, -0.9562822299724146 
0.06000000000000069, -0.9568811512258055 
0.07000000000000098, -0.9578560351319961 
0.08000000000000126, -0.9587165523700254 
0.09000000000000155, -0.9593035677859622 
0.10000000000000184, -0.9595998809983743 
0.11000000000000212, -0.9596234346574002 
0.12000000000000241, -0.9593770602763229 
0.130000000000002, -0.958822495338729 
0.1400000000000009, -0.957857458389684 
0.1499999999999998, -0.9562841041035381 
0.1599999999999987, -0.9537660381774014 
0.1699999999999976, -0.9497889035286118 
0.1799999999999965, -0.9436780167345425 
0.1899999999999954, -0.9347740055651552 
0.1999999999999943, -0.9228371206643715 
0.2099999999999932, -0.908519550456055 
0.2199999999999921, -0.8934558063145955 
0.229999999999991, -0.8796848786456206 
0.2399999999999899, -0.8687685242099683 
0.2499999999999888, -0.8612699438731186 
0.2599999999999877, -0.8568396252489545 
0.2699999999999866, -0.854652801357401 
0.2799999999999855, -0.8538397537113521 
0.2899999999999844, -0.8537247919722677 
0.2999999999999833, -0.853877550172688 
0.3099999999999822, -0.8540625235905596 
0.3199999999999811, -0.8541641923449939 
0.32999999999998, -0.854125447954368 
0.3399999999999789, -0.8539067622726494 
0.3499999999999778, -0.8534611155219523 
0.35999999999997667, -0.8527189081311219 
0.36999999999997557, -0.8515815244263155 
0.37999999999997447, -0.8499283007960061 
0.38999999999997337, -0.8476448790343685 
0.39999999999997227, -0.8446731332714579 
0.40999999999997117, -0.8410611548139857 
0.41999999999997006, -0.8369764378471217 
0.42999999999996896, -0.8326660789864778 
0.43999999999996786, -0.8283907018403509 
0.44999999999996676, -0.8243731691574183 
0.45999999999996566, -0.8207784511074442 
0.46999999999996456, -0.8177143149981244 
0.47999999999996346, -0.815236980294341 
0.48999999999996235, -0.8133543024604689 
0.49999999999996125, -0.8120281055106251 
0.5099999999999602, -0.8111807628972916 
0.519999999999959, -0.8107086728171902 
0.529999999999958, -0.8105000347179192 
0.5399999999999568, -0.8104509591348252 
0.5499999999999557, -0.8104750219655488 
0.5599999999999546, -0.8105053813281231 
0.5699999999999535, -0.8104921074897039 
0.5799999999999524, -0.8103985540371648 
0.5899999999999513, -0.8101996422265335 
0.5999999999999502, -0.8098826933562057 
0.6099999999999491, -0.8094488341492754 
0.619999999999948, -0.8089116832259228 
0.6299999999999469, -0.8082917927488831 
0.6399999999999458, -0.807609248356087 
0.6499999999999447, -0.806878949427259 
0.6599999999999436, -0.8061110775345547 
0.6699999999999425, -0.8053154596266406 
0.6799999999999414, -0.8045066588206866 
0.6899999999999403, -0.8037075235635932 
0.6999999999999392, -0.8029506357154881 
0.7099999999999381, -0.8022777799067791 
0.719999999999937, -0.8017372577743291 
0.7299999999999359, -0.8013787673013759 
0.7399999999999348, -0.801246382064884 
0.7499999999999337, -0.8013714512708369 
0.7599999999999326, -0.8017678525900356 
0.7699999999999315, -0.8024312420975755 
0.7799999999999304, -0.8033421572597726 
0.7899999999999293, -0.8044711237925094 
0.7999999999999282, -0.8057831062233427 
0.8099999999999271, -0.8072388852227727 
0.819999999999926, -0.8087921615262937 
0.8299999999999249, -0.8103835169755735 
0.8399999999999238, -0.8119357065111288 
0.8499999999999227, -0.8133571792473532 
0.8599999999999216, -0.8145580213046626 
0.8699999999999205, -0.8154729705491637 
0.8799999999999194, -0.8160775357434398 
0.8899999999999183, -0.8163869688493046 
0.8999999999999172, -0.8164414278577299 
0.9099999999999161, -0.8162891651484108 
0.919999999999915, -0.815976902112663 
0.9299999999999139, -0.8155500778355902 
0.9399999999999128, -0.8150623438036989 
0.9499999999999117, -0.8145935478189479 
0.9599999999999106, -0.8142752180341816 
0.9699999999999095, -0.8143192600310643 
0.9799999999999084, -0.8150383521305449 
0.9899999999999073, -0.8168386258954582 
0.9999999999999062, -0.8201643839056739 
1.0099999999999052, -0.825387256004821 
1.019999999999904, -0.8326555866023476 
1.029999999999903, -0.8417461118782873 
1.039999999999902, -0.8519879403565811 
1.0499999999999008, -0.86234845208784 
1.0599999999998997, -0.8717247877986558 
1.0699999999998986, -0.8793258522806193 
1.0799999999998975, -0.8848945948460768 
1.0899999999998964, -0.8886344450737853 
1.0999999999998953, -0.8909639911289045 
1.1099999999998942, -0.8923038542298182 
1.119999999999893, -0.8929783137571944 
1.129999999999892, -0.8932019530704218 
1.1399999999998909, -0.8931001124587521 
1.1499999999998898, -0.892733378906453 
1.1599999999998887, -0.8921171241547527 
1.1699999999998876, -0.8912385874387734 
1.1799999999998865, -0.8900813884560914 
1.1899999999998854, -0.8886755397822566 
1.1999999999998843, -0.8871983723327646 
1.2099999999998832, -0.8861412864460588 
1.219999999999882, -0.8864892797992547 
1.229999999999881, -0.8897085673098337 
1.2399999999998799, -0.8972255421551203 
1.2499999999998788, -0.9093729302916105 
1.2599999999998777, -0.9245956228596477 
1.2699999999998766, -0.9400091117521356 
1.2799999999998755, -0.9530575479815558 
1.2899999999998744, -0.9626557153642276 
1.2999999999998733, -0.969033104076326 
1.3099999999998722, -0.9729817202618947 
1.319999999999871, -0.9752961919063731 
1.32999999999987, -0.9765667679828838 
1.3399999999998689, -0.9771722115961324 
1.3499999999998678, -0.9773319692564366 
1.3599999999998666, -0.9771556817082294 
1.3699999999998655, -0.9766745361358249 
1.3799999999998644, -0.9758557902541929 
1.3899999999998633, -0.9746072215496586 
1.3999999999998622, -0.972784625191361 
1.4099999999998611, -0.9702308122126235 
1.41999999999986, -0.9668993587568513 
1.429999999999859, -0.9631193405052209 
1.4399999999998578, -0.959939763564863 
1.4499999999998567, -0.9591770300452882 
1.4599999999998556, -0.9626145638501743 
1.4699999999998545, -0.9705586077200328 
1.4799999999998534, -0.9812203497378643 
1.4899999999998523, -0.9918804705939822 
1.4999999999998512, -1.0005922901143687 
1.5099999999998501, -1.0067807253830514 
1.519999999999849, -1.0107759013981625 
1.529999999999848, -1.0131811981822803 
1.5399999999998468, -1.0145295817524287 
1.5499999999998457, -1.0151915626588095 
1.5599999999998446, -1.0153911072513093 
1.5699999999998435, -1.0152429903276472 
1.5799999999998424, -1.014780660884047 
1.5899999999998413, -1.0139692730099799 
1.5999999999998402, -1.0127082899639286 
1.6099999999998391, -1.0108369729743019 
1.619999999999838, -1.0081754383881056 
1.629999999999837, -1.0046667734944166 
1.6399999999998358, -1.0006940397258386 
1.6499999999998347, -0.9974979219014577 
1.6599999999998336, -0.9972077688737657 
1.6699999999998325, -1.0017945721351467 
1.6799999999998314, -1.0113162283297965 
1.6899999999998303, -1.0234010300657117 
1.6999999999998292, -1.0349109012918232 
1.709999999999828, -1.0439016793626865 
1.719999999999827, -1.0500322271916342 
1.729999999999826, -1.0538470902220485 
1.7399999999998248, -1.05606304605845 
1.7499999999998237, -1.057251099130768 
1.7599999999998226, -1.0577841831052317 
1.7699999999998215, -1.0578767141426475 
1.7799999999998204, -1.0576320860317712 
1.7899999999998193, -1.0570753154410615 
1.7999999999998182, -1.056173098807277 
1.809999999999817, -1.054856089765003 
1.819999999999816, -1.0530756837998856 
1.8299999999998149, -1.0509542902821214 
1.8399999999998138, -1.0490874464331403 
1.8499999999998127, -1.0489044990144294 
1.8599999999998116, -1.0525980342083903 
1.8699999999998105, -1.0619634491510106 
1.8799999999998094, -1.0765843531654369 
1.8899999999998083, -1.0934076529824028 
1.8999999999998072, -1.108697899035272 
1.909999999999806, -1.120284217164215 
1.919999999999805, -1.127976285661416 
1.9299999999998039, -1.132633764623506 
1.9399999999998028, -1.1352639520994825 
1.9499999999998017, -1.136636483444937 
1.9599999999998006, -1.137241245005041 
1.9699999999997995, -1.137359138077112 
1.9799999999997984, -1.1371382709119993 
1.9899999999997973, -1.1366522371741303 
1.9999999999997962, -1.1359515819921617 
2.0099999999998173, -1.1351325986150633 
2.0199999999998384, -1.1344449196181787 
2.0299999999998595, -1.1344120105000044 
2.0399999999998806, -1.1358248237628037 
2.0499999999999017, -1.1394243787776621 
2.059999999999923, -1.145377473429829 
2.069999999999944, -1.1530370716932432 
2.079999999999965, -1.1612555553127049 
2.089999999999986, -1.1689216477708195 
2.100000000000007, -1.1753054668604355 
2.1100000000000283, -1.1801265377862635 
2.1200000000000494, -1.1834543174256382 
2.1300000000000705, -1.185551209513496 
2.1400000000000916, -1.186730272330163 
2.1500000000001127, -1.187266352900275 
2.160000000000134, -1.1873642747473698 
2.170000000000155, -1.187165734074395 
2.180000000000176, -1.1867757431976316 
2.190000000000197, -1.186297604115506 
2.2000000000002182, -1.1858664997240402 
2.2100000000002393, -1.1856600601710545 
2.2200000000002604, -1.1858582843420646 
2.2300000000002815, -1.1865616399347476 
2.2400000000003026, -1.187735040422162 
2.2500000000003237, -1.1892316215374867 
2.260000000000345, -1.1908659535702872 
2.270000000000366, -1.1924735195000127 
2.280000000000387, -1.1939332237295768 
2.290000000000408, -1.1951654471267772 
2.3000000000004293, -1.196122445363709 
2.3100000000004504, -1.1967802262659157 
2.3200000000004715, -1.1971343590011547 
2.3300000000004926, -1.19719810372554 
2.3400000000005137, -1.197000213639912 
2.3500000000005348, -1.196581893941694 
2.360000000000556, -1.1959950892952516 
2.370000000000577, -1.195303748078014 
2.380000000000598, -1.1945853256295809 
2.390000000000619, -1.1939258338758971 
2.4000000000006403, -1.193404779456443 
2.4100000000006614, -1.1930758750368402 
2.4200000000006825, -1.1929535034797427 
2.4300000000007036, -1.1930091333555242 
2.4400000000007247, -1.193178091333034 
2.450000000000746, -1.1933761446175297 
2.460000000000767, -1.1935188061729143 
2.470000000000788, -1.1935330500888162 
2.480000000000809, -1.193359094660525 
2.49000000000083, -1.1929482777348606 
2.5000000000008513, -1.1922629386663095 
2.5100000000008724, -1.1912791885909055 
2.5200000000008935, -1.189990050735139 
2.5300000000009146, -1.188407352267912 
2.5400000000009357, -1.1865638366512878 
2.550000000000957, -1.184518255610653 
2.560000000000978, -1.1823640133522997 
2.570000000000999, -1.1802369763770213 
2.58000000000102, -1.1783108886680038 
2.5900000000010412, -1.1767635346215388 
2.6000000000010624, -1.1757099338586623 
2.6100000000010835, -1.1751404356683044 
2.6200000000011046, -1.1749233549589961 
2.6300000000011257, -1.1748751772591746 
2.6400000000011468, -1.1748321542069995 
2.650000000001168, -1.1746730090504198 
2.660000000001189, -1.1742997744900632 
2.67000000000121, -1.1736043420188578 
2.680000000001231, -1.1724378696944944 
2.6900000000012523, -1.1705921183683796 
2.7000000000012734, -1.167805027726464 
2.7100000000012945, -1.1638072685210017 
2.7200000000013156, -1.1584171937572636 
2.7300000000013367, -1.1516657835500275 
2.740000000001358, -1.1439088182878074 
2.750000000001379, -1.1358696221286784 
2.7600000000014, -1.1285357697174419 
2.770000000001421, -1.1228456777296034 
2.780000000001442, -1.1192650128343014 
2.7900000000014633, -1.117583473554935 
2.8000000000014844, -1.1171457123205215 
2.8100000000015055, -1.1172756470886216 
2.8200000000015266, -1.1175229616786353 
2.8300000000015477, -1.1176646581651446 
2.840000000001569, -1.11760593240555 
2.85000000000159, -1.1172890655516423 
2.860000000001611, -1.116631674992383 
2.870000000001632, -1.1154777617561247 
2.8800000000016532, -1.1135427738228738 
2.8900000000016743, -1.1103473125250405 
2.9000000000016954, -1.1051684473749754 
2.9100000000017165, -1.0971084017335049 
2.9200000000017377, -1.085454636875586 
2.9300000000017588, -1.070402924614652 
2.94000000000178, -1.053719340294757 
2.950000000001801, -1.0384244945894212 
2.960000000001822, -1.0272261168673023 
2.970000000001843, -1.0209948633590225 
2.9800000000018643, -1.0187257089530521 
2.9900000000018854, -1.0186952175237054 
3.0000000000019065, -1.0195027543279167 
3.0100000000019276, -1.0203794020189452 
3.0200000000019487, -1.0210269435808594 
3.03000000000197, -1.0213790504101425 
3.040000000001991, -1.0214440165301462 
3.050000000002012, -1.021227485457273 
3.060000000002033, -1.0206953652511457 
3.070000000002054, -1.0197459578268537 
3.0800000000020753, -1.0181730043773676 
3.0900000000020964, -1.0156112545570068 
3.1000000000021175, -1.0114738728627812 
3.1100000000021386, -1.0049365946887192 
3.1200000000021597, -0.995105058946885 
3.130000000002181, -0.9815330544968432 
3.140000000002202, -0.9649934469494907 
3.150000000002223, -0.9478034154900656 
3.160000000002244, -0.9329449827055234 
3.1700000000022652, -0.9224572158184572 
3.1800000000022863, -0.916571549832514 
3.1900000000023074, -0.9141677705790776 
3.2000000000023285, -0.9137731480141935 
3.2100000000023496, -0.9142375541989491 
3.2200000000023707, -0.9148950660221582 
3.230000000002392, -0.915445203923175 
3.240000000002413, -0.9157866043771883 
3.250000000002434, -0.915898433844254 
3.260000000002455, -0.9157747148806561 
3.2700000000024763, -0.9153901008035541 
3.2800000000024974, -0.9146776205303355 
3.2900000000025185, -0.9135068753207373 
3.3000000000025396, -0.9116598375492713 
3.3100000000025607, -0.9088143168774867 
3.3200000000025818, -0.9045658733555813 
3.330000000002603, -0.8985352678004986 
3.340000000002624, -0.8905769260822461 
3.350000000002645, -0.880993528231522 
3.360000000002666, -0.870571871657547 
3.3700000000026873, -0.8603576520323986 
3.3800000000027084, -0.8513100254619699 
3.3900000000027295, -0.8440457140714066 
3.4000000000027506, -0.8387608413910416 
3.4100000000027717, -0.8352968017075046 
3.420000000002793, -0.8332795465617904 
3.430000000002814, -0.8322681336112 
3.440000000002835, -0.8318657941739295 
3.450000000002856, -0.8317733494117732 
3.460000000002877, -0.8317928315133429 
3.4700000000028983, -0.831803830241036 
3.4800000000029194, -0.8317331883006001 
3.4900000000029405, -0.8315293226710774 
3.5000000000029616, -0.8311448190737908 
3.5100000000029827, -0.83052804878743 
3.520000000003004, -0.8296248211773756 
3.530000000003025, -0.8283909027174815 
3.540000000003046, -0.826811952389891 
3.550000000003067, -0.824919812173029 
3.5600000000030882, -0.8227919798721153 
3.5700000000031094, -0.8205320771929797 
3.5800000000031305, -0.8182441440528632 
3.5900000000031516, -0.8160158979735497 
3.6000000000031727, -0.8139154763465593 
3.6100000000031938, -0.8119962252601594 
3.620000000003215, -0.810302103502791 
3.630000000003236, -0.8088693934490442 
3.640000000003257, -0.807724133066561 
3.650000000003278, -0.806877174374385 
3.6600000000032993, -0.8063198948127421 
3.6700000000033204, -0.8060233474256796 
3.6800000000033415, -0.8059420501735459 
3.6900000000033626, -0.8060213398356737 
3.7000000000033837, -0.8062056121292311 
3.710000000003405, -0.8064448726193646 
3.720000000003426, -0.8066985098954655 
3.730000000003447, -0.806936698020898 
3.740000000003468, -0.8071402094727335 
3.750000000003489, -0.8072987329124771 
3.7600000000035103, -0.8074072485190913 
3.7700000000035314, -0.8074608731410027 
3.7800000000035525, -0.8074504982133408 
3.7900000000035736, -0.8073622830976068 
3.8000000000035947, -0.8071819557011576 
3.810000000003616, -0.8069013598462578 
3.820000000003637, -0.8065233191213471 
3.830000000003658, -0.806063092986447 
3.840000000003679, -0.8055479123108018 
3.8500000000037002, -0.8050171068855301 
3.8600000000037213, -0.804523852425484 
3.8700000000037424, -0.8041372724510945 
3.8800000000037635, -0.8039420735003613 
3.8900000000037847, -0.8040329991525859 
3.9000000000038058, -0.8045035529136811 
3.910000000003827, -0.8054317717577358 
3.920000000003848, -0.8068679066575284 
3.930000000003869, -0.8088275926529482 
3.94000000000389, -0.8112900849175955 
3.9500000000039113, -0.8141974664145926 
3.9600000000039324, -0.8174504523697452 
3.9700000000039535, -0.8209009803983387 
3.9800000000039746, -0.8243502943864252 
3.9900000000039957, -0.8275677943451836 
4.000000000004016, -0.8303385798454684 
4.010000000003993, -0.8325220458386416 
4.02000000000397, -0.8340839959446642 
4.030000000003946, -0.8350814406214955 
4.040000000003923, -0.8356173600572664 
4.0500000000039, -0.8357977601005768 
4.0600000000038765, -0.835708247443131 
4.070000000003853, -0.8354091119540114 
4.08000000000383, -0.8349421837874423 
4.090000000003807, -0.8343460504784541 
4.100000000003783, -0.8336816820126837 
4.11000000000376, -0.8330743502749833 
4.120000000003737, -0.8327765097992152 
4.130000000003713, -0.8332438274018994 
4.14000000000369, -0.8351865572197577 
4.150000000003667, -0.839517525335381 
4.1600000000036434, -0.847103073883104 
4.17000000000362, -0.8582999039012937 
4.180000000003597, -0.8724686730607214 
4.1900000000035735, -0.8878807835849308 
4.20000000000355, -0.90232808363769 
4.210000000003527, -0.914119937604297 
4.220000000003504, -0.9226713315771613 
4.23000000000348, -0.9283260685126701 
4.240000000003457, -0.9318155265027102 
4.250000000003434, -0.9338452351209238 
4.26000000000341, -0.9349367965057549 
4.270000000003387, -0.9354251952690105 
4.280000000003364, -0.9355047189538901 
4.2900000000033405, -0.935272999186933 
4.300000000003317, -0.9347604750557632 
4.310000000003294, -0.9339478268265331 
4.320000000003271, -0.9327802032649348 
4.330000000003247, -0.9311944019695193 
4.340000000003224, -0.9291878789807656 
4.350000000003201, -0.9269689725393162 
4.360000000003177, -0.925197801174656 
4.370000000003154, -0.9251850366906431 
4.380000000003131, -0.928677092570257 
4.390000000003107, -0.9368911661420487 
4.400000000003084, -0.9492763738515079 
4.410000000003061, -0.963376666302733 
4.4200000000030375, -0.976301341500428 
4.430000000003014, -0.9863282298076882 
4.440000000002991, -0.993220398313962 
4.450000000002968, -0.9975775823503289 
4.460000000002944, -1.000168024788848 
4.470000000002921, -1.0016130622282053 
4.480000000002898, -1.0023282534705305 
4.490000000002874, -1.0025610023893288 
4.500000000002851, -1.0024398929135099 
4.510000000002828, -1.0020092721949712 
4.520000000002804, -1.0012469928010321 
4.530000000002781, -1.0000716954475972 
4.540000000002758, -0.998353698910142 
4.5500000000027345, -0.9959604626945475 
4.560000000002711, -0.9928950425776268 
4.570000000002688, -0.9895890176743333 
4.580000000002665, -0.9872757329710433 
4.590000000002641, -0.9880032812075417 
4.600000000002618, -0.9936538649570176 
4.610000000002595, -1.0042647025375493 
4.620000000002571, -1.0174533900882574 
4.630000000002548, -1.0299903407754791 
4.640000000002525, -1.0398128335981098 
4.6500000000025015, -1.0465330012219949 
4.660000000002478, -1.0507273368784673 
4.670000000002455, -1.0531745238284373 
4.6800000000024315, -1.054501536322736 
4.690000000002408, -1.055120933506816 
4.700000000002385, -1.0552728404652698 
4.710000000002362, -1.0550777816620613 
4.720000000002338, -1.0545739313065174 
4.730000000002315, -1.0537402175316097 
4.740000000002292, -1.0525192277640598 
4.750000000002268, -1.0508693533016777 
4.760000000002245, -1.0488997711552863 
4.770000000002222, -1.047145320105517 
4.7800000000021985, -1.046913610014615 
4.790000000002175, -1.0502818731614334 
4.800000000002152, -1.059103693131377 
4.810000000002129, -1.0732694136483685 
4.820000000002105, -1.0900460823674547 
4.830000000002082, -1.1057228907178105 
4.840000000002059, -1.1178917730461095 
4.850000000002035, -1.1261253802409055 
4.860000000002012, -1.1311825135405942 
4.870000000001989, -1.1340735154670407 
4.880000000001965, -1.1356072310336414 
4.890000000001942, -1.1363118353458244 
4.900000000001919, -1.136495703244536 
4.9100000000018955, -1.1363245684956835 
4.920000000001872, -1.1358822283457721 
4.930000000001849, -1.1352219302956494 
