t, s[1].omega / s[0].omega 
0, -0.5399977480006577 
0.009999999999999995, -0.5398070333064315 
0.019999999999999934, -0.5396720782993681 
0.029999999999999874, -0.5395603828050256 
0.04000000000000012, -0.5394316807256205 
0.050000000000000405, -0.5392513574416711 
0.06000000000000069, -0.5389988820165199 
0.07000000000000098, -0.5386691771623761 
0.08000000000000126, -0.5382697407004609 
0.09000000000000155, -0.5378180791574539 
0.10000000000000184, -0.5373429444806388 
0.11000000000000212, -0.5368916430626227 
0.12000000000000241, -0.5365459043663245 
0.130000000000002, -0.5364505011022573 
0.1400000000000009, -0.5368612929336298 
0.1499999999999998, -0.5382206256777893 
0.1599999999999987, -0.5412612826459772 
0.1699999999999976, -0.5471055747975988 
0.1799999999999965, -0.5572234316085445 
0.1899999999999954, -0.5729331437538296 
0.1999999999999943, -0.5941554820229201 
0.2099999999999932, -0.6181384748490368 
0.2199999999999921, -0.6403002192894058 
0.229999999999991, -0.6573613411113804 
0.2399999999999899, -0.6689933185029522 
0.2499999999999888, -0.6765373653687689 
0.2599999999999877, -0.6814054875656835 
0.2699999999999866, -0.6845649837503374 
0.2799999999999855, -0.6866102297518095 
0.2899999999999844, -0.687907589777828 
0.2999999999999833, -0.6886867241573166 
0.3099999999999822, -0.6890892419283599 
0.3199999999999811, -0.6891947517938823 
0.32999999999998, -0.6890342670501192 
0.3399999999999789, -0.6885951816042971 
0.3499999999999778, -0.6878205844057134 
0.35999999999997667, -0.6866074883033441 
0.36999999999997557, -0.6848138328141583 
0.37999999999997447, -0.682290431985803 
0.38999999999997337, -0.6789494338720174 
0.39999999999997227, -0.6748483593307458 
0.40999999999997117, -0.6702247201375904 
0.41999999999997006, -0.6654306106069182 
0.42999999999996896, -0.6608069568681139 
0.43999999999996786, -0.6565905821674266 
0.44999999999996676, -0.6528970585598619 
0.45999999999996566, -0.6497532827427505 
0.46999999999996456, -0.6471389200143577 
0.47999999999996346, -0.6450157600939533 
0.48999999999996235, -0.6433424049712212 
0.49999999999996125, -0.6420789422413434 
0.5099999999999602, -0.6411867967583249 
0.519999999999959, -0.6406273971670745 
0.529999999999958, -0.6403616154754148 
0.5399999999999568, -0.6403506363204757 
0.5499999999999557, -0.6405580543409315 
0.5599999999999546, -0.6409525813478443 
0.5699999999999535, -0.6415106817652809 
0.5799999999999524, -0.6422184989002295 
0.5899999999999513, -0.6430722620807975 
0.5999999999999502, -0.6440758586124499 
0.6099999999999491, -0.6452338591423473 
0.619999999999948, -0.6465390803360042 
0.6299999999999469, -0.647956917218118 
0.6399999999999458, -0.6494140387678218 
0.6499999999999447, -0.650802805903992 
0.6599999999999436, -0.6520071592804567 
0.6699999999999425, -0.652938774986599 
0.6799999999999414, -0.6535601059733589 
0.6899999999999403, -0.6538812087069736 
0.6999999999999392, -0.6539388913563344 
0.7099999999999381, -0.6537750995472553 
0.719999999999937, -0.6534242020528461 
0.7299999999999359, -0.65291002656202 
0.7399999999999348, -0.6522507963237859 
0.7499999999999337, -0.6514722293536616 
0.7599999999999326, -0.6506331665669615 
0.7699999999999315, -0.6498725853133138 
0.7799999999999304, -0.6494889063099915 
0.7899999999999293, -0.6500522036835548 
0.7999999999999282, -0.6525018849735242 
0.8099999999999271, -0.6580632494990557 
0.819999999999926, -0.6676879728142133 
0.8299999999999249, -0.6809897354905968 
0.8399999999999238, -0.6957065453097675 
0.8499999999999227, -0.709013932464259 
0.8599999999999216, -0.7194686563169581 
0.8699999999999205, -0.7271761488703888 
0.8799999999999194, -0.7327527452299947 
0.8899999999999183, -0.7367282213463894 
0.8999999999999172, -0.7394929672872304 
0.9099999999999161, -0.7413524476712391 
0.919999999999915, -0.7425470123627622 
0.9299999999999139, -0.7432545440768671 
0.9399999999999128, -0.7435944375664627 
0.9499999999999117, -0.7436338160366452 
0.9599999999999106, -0.7433918623551116 
0.9699999999999095, -0.7428391647328337 
0.9799999999999084, -0.7418913310641829 
0.9899999999999073, -0.7404002030966025 
0.9999999999999062, -0.738154419901836 
1.0099999999999052, -0.7349133580922801 
1.019999999999904, -0.7304995287817002 
1.029999999999903, -0.7249328582657345 
1.039999999999902, -0.7185127833147293 
1.0499999999999008, -0.7117487016994744 
1.0599999999998997, -0.7051729464020418 
1.0699999999998986, -0.6991812176545966 
1.0799999999998975, -0.69398608297801 
1.0899999999998964, -0.6896542781095277 
1.0999999999998953, -0.6861645736477253 
1.1099999999998942, -0.6834512121495442 
1.119999999999893, -0.681427660407551 
1.129999999999892, -0.6799975338010861 
1.1399999999998909, -0.6790602397040996 
1.1499999999998898, -0.6785157692173465 
1.1599999999998887, -0.6782698587465867 
1.1699999999998876, -0.6782388054929831 
1.1799999999998865, -0.6783528098573214 
1.1899999999998854, -0.6785573818279306 
1.1999999999998843, -0.6788132617479171 
1.2099999999998832, -0.6790957075436187 
1.219999999999882, -0.6793935090424912 
1.229999999999881, -0.6797069137584371 
1.2399999999998799, -0.6800427758529717 
1.2499999999998788, -0.6804060563156661 
1.2599999999998777, -0.6807896586948647 
1.2699999999998766, -0.6811676780848469 
1.2799999999998755, -0.6814974366664937 
1.2899999999998744, -0.6817312796330791 
1.2999999999998733, -0.6818320898397248 
1.3099999999998722, -0.6817833792382431 
1.319999999999871, -0.6815897019840762 
1.32999999999987, -0.6812709610203881 
1.3399999999998689, -0.6808573789709924 
1.3499999999998678, -0.6803899708859495 
1.3599999999998666, -0.6799285848129524 
1.3699999999998655, -0.6795684047981032 
1.3799999999998644, -0.6794656121768559 
1.3899999999998633, -0.6798719967888147 
1.3999999999998622, -0.6811751985056558 
1.4099999999998611, -0.683934627398126 
1.41999999999986, -0.6888911514895601 
1.429999999999859, -0.6969086688845354 
1.4399999999998578, -0.7087796282928026 
1.4499999999998567, -0.7248256760402704 
1.4599999999998556, -0.7443472024583705 
1.4699999999998545, -0.7653075683059324 
1.4799999999998534, -0.784860390739558 
1.4899999999998523, -0.8006848317671725 
1.4999999999998512, -0.8119885294520314 
1.5099999999998501, -0.819330968419542 
1.519999999999849, -0.8237995635767797 
1.529999999999848, -0.8263921468144823 
1.5399999999998468, -0.8278137657019513 
1.5499999999998457, -0.8285003929748719 
1.5599999999998446, -0.828697287592119 
1.5699999999998435, -0.8285227741670085 
1.5799999999998424, -0.8280040925620332 
1.5899999999998413, -0.8270876359244583 
1.5999999999998402, -0.8256256088613296 
1.6099999999998391, -0.8233369953802162 
1.619999999999838, -0.819738281543206 
1.629999999999837, -0.8140469154900642 
1.6399999999998358, -0.8051000711342852 
1.6499999999998347, -0.7914439282573754 
1.6599999999998336, -0.7719194680038189 
1.6699999999998325, -0.7469357739927073 
1.6799999999998314, -0.7195269345007808 
1.6899999999998303, -0.6943420159617375 
1.6999999999998292, -0.674877897946595 
1.709999999999828, -0.6619321138458734 
1.719999999999827, -0.6543396359735791 
1.729999999999826, -0.6503713074064807 
1.7399999999998248, -0.648555726206886 
1.7499999999998237, -0.6478904894071207 
1.7599999999998226, -0.6477728321810768 
1.7699999999998215, -0.6478690454311988 
1.7799999999998204, -0.6480048041578755 
1.7899999999998193, -0.6480913181619222 
1.7999999999998182, -0.6480806109957575 
1.809999999999817, -0.6479402960156877 
1.819999999999816, -0.6476409677603221 
1.8299999999998149, -0.6471529295741986 
1.8399999999998138, -0.646451398502844 
1.8499999999998127, -0.6455287335281186 
1.8599999999998116, -0.6444077010285076 
1.8699999999998105, -0.6431451348591457 
1.8799999999998094, -0.6418189012627047 
1.8899999999998083, -0.6405039556411003 
1.8999999999998072, -0.6392523851482885 
1.909999999999806, -0.6380875467292438 
1.919999999999805, -0.6370110848135647 
1.9299999999998039, -0.6360153541603594 
1.9399999999998028, -0.6350945759096461 
1.9499999999998017, -0.6342518515912555 
1.9599999999998006, -0.6335024007225787 
1.9699999999997995, -0.63287466433728 
1.9799999999997984, -0.6324105662410189 
1.9899999999997973, -0.6321653670369225 
1.9999999999997962, -0.6322070384806391 
2.0099999999998173, -0.6326151327510093 
2.0199999999998384, -0.6334794600284863 
2.0299999999998595, -0.6348990477901053 
2.0399999999998806, -0.6369813289657629 
2.0499999999999017, -0.6398398539019395 
2.059999999999923, -0.6435857777036745 
2.069999999999944, -0.6483043334406601 
2.079999999999965, -0.6540053333672086 
2.089999999999986, -0.660545323882748 
2.100000000000007, -0.6675520392531274 
2.1100000000000283, -0.6744314951763607 
2.1200000000000494, -0.6805308409689593 
2.1300000000000705, -0.6853922683261333 
2.1400000000000916, -0.6888995812221379 
2.1500000000001127, -0.6912160996989101 
2.160000000000134, -0.6926184201005499 
2.170000000000155, -0.6933664221186172 
2.180000000000176, -0.6936497729283075 
2.190000000000197, -0.6935826331856813 
2.2000000000002182, -0.6932131712931489 
2.2100000000002393, -0.6925296808506642 
2.2200000000002604, -0.6914552992729865 
2.2300000000002815, -0.6898255824032633 
2.2400000000003026, -0.6873403747781552 
2.2500000000003237, -0.6834773498952653 
2.260000000000345, -0.6773615476939261 
2.270000000000366, -0.6676465793446938 
2.280000000000387, -0.6526617748999175 
2.290000000000408, -0.6313231811829704 
2.3000000000004293, -0.6047763703377596 
2.3100000000004504, -0.5769465906114027 
2.3200000000004715, -0.5523664356227299 
2.3300000000004926, -0.5335050770604793 
2.3400000000005137, -0.520397660633421 
2.3500000000005348, -0.5118525348326691 
2.360000000000556, -0.5065074648982788 
2.370000000000577, -0.503265855147555 
2.380000000000598, -0.5013588445388597 
2.390000000000619, -0.500280814582321 
2.4000000000006403, -0.49970958825137785 
2.4100000000006614, -0.4994432699727014 
2.4200000000006825, -0.49935666858627725 
2.4300000000007036, -0.49937303644264797 
2.4400000000007247, -0.49944658923622665 
2.450000000000746, -0.4995524932469578 
2.460000000000767, -0.4996820184222052 
2.470000000000788, -0.49984084113710814 
2.480000000000809, -0.5000480448187806 
2.49000000000083, -0.5003328636468415 
2.5000000000008513, -0.5007267832416316 
2.5100000000008724, -0.5012508215227897 
2.5200000000008935, -0.5019009978064796 
2.5300000000009146, -0.5026381597543101 
2.5400000000009357, -0.5033899372123107 
2.550000000000957, -0.5040687179669134 
2.560000000000978, -0.5045984859347261 
2.570000000000999, -0.5049345551262748 
2.58000000000102, -0.5050656280658403 
2.5900000000010412, -0.5050017433347115 
2.6000000000010624, -0.5047587162652333 
2.6100000000010835, -0.5043461060621732 
2.6200000000011046, -0.5037594995832937 
2.6300000000011257, -0.5029743418419159 
2.6400000000011468, -0.5019369779005115 
2.650000000001168, -0.5005458947022843 
2.660000000001189, -0.4986084309977136 
2.67000000000121, -0.49574084012017544 
2.680000000001231, -0.49115788200326804 
2.6900000000012523, -0.48334498714479135 
2.7000000000012734, -0.46996986499941473 
2.7100000000012945, -0.4491170973691089 
2.7200000000013156, -0.42211370548445404 
2.7300000000013367, -0.39426314198697654 
2.740000000001358, -0.37087941666076285 
2.750000000001379, -0.35388871058547966 
2.7600000000014, -0.34250300513450266 
2.770000000001421, -0.335138565578916 
2.780000000001442, -0.33042244302992396 
2.7900000000014633, -0.3274014695062896 
2.8000000000014844, -0.32546749661707014 
2.8100000000015055, -0.32424489286971825 
2.8200000000015266, -0.3235050287080209 
2.8300000000015477, -0.32311149558729874 
2.840000000001569, -0.3229875109483424 
2.85000000000159, -0.32309773857094215 
2.860000000001611, -0.32343949679870343 
2.870000000001632, -0.3240404895615345 
2.8800000000016532, -0.3249614441656638 
2.8900000000016743, -0.32630232602792525 
2.9000000000016954, -0.32820970373356123 
2.9100000000017165, -0.3308790515462034 
2.9200000000017377, -0.33453703458393474 
2.9300000000017588, -0.3393756013424033 
2.94000000000178, -0.3454097431128052 
2.950000000001801, -0.3522943737747968 
2.960000000001822, -0.35927718722230567 
2.970000000001843, -0.36547556781974644 
2.9800000000018643, -0.3703174418393985 
2.9900000000018854, -0.37372404919453606 
3.0000000000019065, -0.37594254666612004 
3.0100000000019276, -0.37729948343128633 
3.0200000000019487, -0.3780645746633084 
3.03000000000197, -0.3784192141270125 
3.040000000001991, -0.3784688749049565 
3.050000000002012, -0.37826245603871467 
3.060000000002033, -0.3778071482183986 
3.070000000002054, -0.37707950978612037 
3.0800000000020753, -0.37603836450017336 
3.0900000000020964, -0.3746466426016001 
3.1000000000021175, -0.3729047195512556 
3.1100000000021386, -0.370883062593298 
3.1200000000021597, -0.36872667170942386 
3.130000000002181, -0.36661481330130463 
3.140000000002202, -0.3646991090808417 
3.150000000002223, -0.3630630638582376 
3.160000000002244, -0.3617204101509316 
3.1700000000022652, -0.36063736225656384 
3.1800000000022863, -0.3597583919333368 
3.1900000000023074, -0.35902567306295374 
3.2000000000023285, -0.35839068215767306 
3.2100000000023496, -0.35781934070107924 
3.2200000000023707, -0.3572929321132639 
3.230000000002392, -0.35680743381683516 
3.240000000002413, -0.3563738108799955 
3.250000000002434, -0.3560214451437612 
3.260000000002455, -0.3558068472459619 
3.2700000000024763, -0.355830451617499 
3.2800000000024974, -0.35626510423950203 
3.2900000000025185, -0.35739790582899167 
3.3000000000025396, -0.3596714738898882 
3.3100000000025607, -0.3636488355656806 
3.3200000000025818, -0.36965984859605017 
3.330000000002603, -0.37670372423303067 
3.340000000002624, -0.3809087321362741 
3.350000000002645, -0.3766588334201134 
3.360000000002666, -0.3626544757030377 
3.3700000000026873, -0.3445573000831288 
3.3800000000027084, -0.32871507439027203 
3.3900000000027295, -0.31744803459781534 
3.4000000000027506, -0.3102133897778637 
3.4100000000027717, -0.30576488576938227 
3.420000000002793, -0.3030706164333403 
3.430000000002814, -0.3014493288457373 
3.440000000002835, -0.30048631924725344 
3.450000000002856, -0.29993694450877106 
3.460000000002877, -0.2996596636712239 
3.4700000000028983, -0.2995757527181892 
3.4800000000029194, -0.29964679662863924 
3.4900000000029405, -0.2998632824901878 
3.5000000000029616, -0.30024022808888795 
3.5100000000029827, -0.30081736939166076 
3.520000000003004, -0.30166197565384606 
3.530000000003025, -0.3028719128721619 
3.540000000003046, -0.30457475539868006 
3.550000000003067, -0.3069145941630806 
3.5600000000030882, -0.31001214367031316 
3.5700000000031094, -0.313884759819803 
3.5800000000031305, -0.3183446039833149 
3.5900000000031516, -0.3229620103422862 
3.6000000000031727, -0.3271958056079066 
3.6100000000031938, -0.33063681154065677 
3.620000000003215, -0.3331527688238161 
3.630000000003236, -0.33483735374574486 
3.640000000003257, -0.3358735733301896 
3.650000000003278, -0.3364340109752274 
3.6600000000032993, -0.33664248987870304 
3.6700000000033204, -0.3365708343990599 
3.6800000000033415, -0.3362464553858132 
3.6900000000033626, -0.335660605557593 
3.7000000000033837, -0.3347770645714879 
3.710000000003405, -0.3335466486246576 
3.720000000003426, -0.33193447998023723 
3.730000000003447, -0.32995941474688883 
3.740000000003468, -0.3277255568067625 
3.750000000003489, -0.3254127581245426 
3.7600000000035103, -0.3232180909447607 
3.7700000000035314, -0.32128779617058517 
3.7800000000035525, -0.31968583711892745 
3.7900000000035736, -0.318404721742089 
3.8000000000035947, -0.31739448611023197 
3.810000000003616, -0.3165893346976652 
3.820000000003637, -0.3159254462301404 
3.830000000003658, -0.31535067703148195 
3.840000000003679, -0.31482819679355306 
3.8500000000037002, -0.31433619627727427 
3.8600000000037213, -0.3138660143411024 
3.8700000000037424, -0.3134208424962921 
3.8800000000037635, -0.31301655763215175 
3.8900000000037847, -0.3126855809908091 
3.9000000000038058, -0.3124836892195145 
3.910000000003827, -0.3124962160003259 
3.920000000003848, -0.3128268286531931 
3.930000000003869, -0.31350957083518294 
3.94000000000389, -0.3141821498308669 
3.9500000000039113, -0.3132653459133165 
3.9600000000039324, -0.3069668316864287 
3.9700000000039535, -0.29069094432921533 
3.9800000000039746, -0.2649329459671915 
3.9900000000039957, -0.23737895475394347 
4.000000000004016, -0.21520129222154702 
4.010000000003993, -0.20007165812116753 
4.02000000000397, -0.19046713202032922 
4.030000000003946, -0.18447216167496172 
4.040000000003923, -0.1806980683446928 
4.0500000000039, -0.1782858339719461 
4.0600000000038765, -0.17673174220254756 
4.070000000003853, -0.17574679032508894 
4.08000000000383, -0.1751706599434195 
4.090000000003807, -0.1749244482710876 
4.100000000003783, -0.17498776652181042 
4.11000000000376, -0.17539220081891052 
4.120000000003737, -0.17622849686990233 
4.130000000003713, -0.17766927853780975 
4.14000000000369, -0.1800133796109926 
4.150000000003667, -0.18376086331258887 
4.1600000000036434, -0.18972050699760476 
4.17000000000362, -0.1990989589183491 
4.180000000003597, -0.21333822043971756 
4.1900000000035735, -0.23315173369094686 
4.20000000000355, -0.2565833553312488 
4.210000000003527, -0.27847121343897435 
4.220000000003504, -0.29420296442547195 
4.23000000000348, -0.30329760494536373 
4.240000000003457, -0.30793738796824033 
4.250000000003434, -0.3102419862944103 
4.26000000000341, -0.3114384349456089 
4.270000000003387, -0.3121054900501286 
4.280000000003364, -0.31249810261170136 
4.2900000000033405, -0.312729265337123 
4.300000000003317, -0.31285135410231824 
4.310000000003294, -0.3128902735647011 
4.320000000003271, -0.3128604938644221 
4.330000000003247, -0.31277324237683873 
4.340000000003224, -0.31264282287082373 
4.350000000003201, -0.3124924179257512 
4.360000000003177, -0.31235831667260106 
4.370000000003154, -0.312290134000028 
4.380000000003131, -0.3123451787285786 
4.390000000003107, -0.312577393187056 
4.400000000003084, -0.3130229623830806 
4.410000000003061, -0.3136849448355728 
4.4200000000030375, -0.3145210520099371 
4.430000000003014, -0.3154431853062773 
4.440000000002991, -0.3163369771337218 
4.450000000002968, -0.31709626285136383 
4.460000000002944, -0.31765189254201603 
4.470000000002921, -0.3179778420799778 
4.480000000002898, -0.31807690618167295 
4.490000000002874, -0.3179596679153288 
4.500000000002851, -0.31762634983993066 
4.510000000002828, -0.31705246686115107 
4.520000000002804, -0.3161743600352063 
4.530000000002781, -0.31487042871425697 
4.540000000002758, -0.3129384528722288 
4.5500000000027345, -0.310084096657406 
4.560000000002711, -0.30596670187354597 
4.570000000002688, -0.3003707227429191 
4.580000000002665, -0.2934822783901372 
4.590000000002641, -0.2860133827929931 
4.600000000002618, -0.27890746754456824 
4.610000000002595, -0.27285282276097195 
4.620000000002571, -0.2680755012461632 
4.630000000002548, -0.2644660252073147 
4.640000000002525, -0.2617848721105094 
4.6500000000025015, -0.2597912892520553 
4.660000000002478, -0.25829163741366357 
4.670000000002455, -0.257146232968274 
4.6800000000024315, -0.2562621499681459 
4.690000000002408, -0.25558421199655273 
4.700000000002385, -0.25508861843978986 
4.710000000002362, -0.25478096540028894 
4.720000000002338, -0.25470009346093947 
4.730000000002315, -0.25493012043561036 
4.740000000002292, -0.2556250299234043 
4.750000000002268, -0.2570531247239874 
4.760000000002245, -0.2596702875070248 
4.770000000002222, -0.2642194079957688 
4.7800000000021985, -0.2717832642550365 
4.790000000002175, -0.28347567777226546 
4.800000000002152, -0.2990313983541241 
4.810000000002129, -0.3142068821839635 
4.820000000002105, -0.3211853027068537 
4.830000000002082, -0.31638791308380454 
4.840000000002059, -0.30491556873171277 
4.850000000002035, -0.29353596811280186 
4.860000000002012, -0.2851257247655938 
4.870000000001989, -0.2796548396525006 
4.880000000001965, -0.27627767531308034 
4.890000000001942, -0.27423303270755134 
