t, s[1].omega / s[0].omega 
0, -1.1000203038289045 
0.009999999999999995, -1.1018149820914547 
0.019999999999999934, -1.1031277816520368 
0.029999999999999874, -1.1039731144105835 
0.04000000000000012, -1.1044044125460393 
0.050000000000000405, -1.104495655147325 
0.06000000000000069, -1.1043246148753805 
0.07000000000000098, -1.1039659386803056 
0.08000000000000126, -1.103495672937864 
0.09000000000000155, -1.1030022922814706 
0.10000000000000184, -1.1025935852818376 
0.11000000000000212, -1.1023863558210028 
0.12000000000000241, -1.102475247156173 
0.130000000000002, -1.1028979294916768 
0.1400000000000009, -1.103622993953091 
0.1499999999999998, -1.104567599245294 
0.1599999999999987, -1.1056280581913103 
0.1699999999999976, -1.1067048398301598 
0.1799999999999965, -1.1077155396039873 
0.1899999999999954, -1.1085979048814267 
0.1999999999999943, -1.1093073660495723 
0.2099999999999932, -1.1098133008965287 
0.2199999999999921, -1.1100969820617923 
0.229999999999991, -1.110152008081853 
0.2399999999999899, -1.1099857631641221 
0.2499999999999888, -1.1096198573296305 
0.2599999999999877, -1.1090892916595931 
0.2699999999999866, -1.1084420129030004 
0.2799999999999855, -1.1077395919401627 
0.2899999999999844, -1.1070562107328228 
0.2999999999999833, -1.106471042545396 
0.3099999999999822, -1.1060527519475438 
0.3199999999999811, -1.1058422345777719 
0.32999999999998, -1.105842306508351 
0.3399999999999789, -1.1060181515302738 
0.3499999999999778, -1.106307132183096 
0.35999999999997667, -1.1066341361373764 
0.36999999999997557, -1.1069265845942637 
0.37999999999997447, -1.1071237679188117 
0.38999999999997337, -1.1071797459298884 
0.39999999999997227, -1.107062855602616 
0.40999999999997117, -1.1067545450660958 
0.41999999999997006, -1.1062480828503154 
0.42999999999996896, -1.1055469754222549 
0.43999999999996786, -1.1046638183317472 
0.44999999999996676, -1.1036207678579815 
0.45999999999996566, -1.1024519292077828 
0.46999999999996456, -1.1012065627559688 
0.47999999999996346, -1.0999508552698298 
0.48999999999996235, -1.0987653526493657 
0.49999999999996125, -1.0977355602111234 
0.5099999999999602, -1.0969349980697296 
0.519999999999959, -1.096403602366188 
0.529999999999958, -1.096130556302508 
0.5399999999999568, -1.0960541378447908 
0.5499999999999557, -1.0960817655719757 
0.5599999999999546, -1.0961166922503176 
0.5699999999999535, -1.0960743681792784 
0.5799999999999524, -1.0958842384815772 
0.5899999999999513, -1.0954846050541676 
0.5999999999999502, -1.0948198606334612 
0.6099999999999491, -1.0938445287618281 
0.619999999999948, -1.0925322315987371 
0.6299999999999469, -1.0908835635538348 
0.6399999999999458, -1.0889281322083257 
0.6499999999999447, -1.0867218480523042 
0.6599999999999436, -1.084344619227178 
0.6699999999999425, -1.0819015918130126 
0.6799999999999414, -1.0795251138484991 
0.6899999999999403, -1.077368976546176 
0.6999999999999392, -1.0755848411119842 
0.7099999999999381, -1.07427891340179 
0.719999999999937, -1.0734677540138335 
0.7299999999999359, -1.0730674192599048 
0.7399999999999348, -1.0729301501937138 
0.7499999999999337, -1.0729006496533775 
0.7599999999999326, -1.0728521396991735 
0.7699999999999315, -1.0726896546103784 
0.7799999999999304, -1.0723336819599916 
0.7899999999999293, -1.0717009851013675 
0.7999999999999282, -1.0706933079929526 
0.8099999999999271, -1.0692004764712155 
0.819999999999926, -1.067121121119985 
0.8299999999999249, -1.064396292415725 
0.8399999999999238, -1.061040869055021 
0.8499999999999227, -1.057157148316316 
0.8599999999999216, -1.0529288397933345 
0.8699999999999205, -1.0486057910543014 
0.8799999999999194, -1.0444843198607732 
0.8899999999999183, -1.040872314713054 
0.8999999999999172, -1.0380252039034543 
0.9099999999999161, -1.0360649949749512 
0.919999999999915, -1.0349330551927627 
0.9299999999999139, -1.0344233445430508 
0.9399999999999128, -1.0342775956784969 
0.9499999999999117, -1.034272462832966 
0.9599999999999106, -1.0342526471007107 
0.9699999999999095, -1.0341176042781048 
0.9799999999999084, -1.0337905188730807 
0.9899999999999073, -1.033188725483762 
0.9999999999999062, -1.0322026076340751 
1.0099999999999052, -1.0306873467858544 
1.019999999999904, -1.0284754084529013 
1.029999999999903, -1.0254173234002766 
1.039999999999902, -1.0214444023928824 
1.0499999999999008, -1.0166250227721083 
1.0599999999998997, -1.0111821622965758 
1.0699999999998986, -1.0054657447292024 
1.0799999999998975, -0.999898446902356 
1.0899999999998964, -0.9949089808251879 
1.0999999999998953, -0.9908512813137055 
1.1099999999998942, -0.9879173605603422 
1.119999999999893, -0.9860836871126353 
1.129999999999892, -0.9851369771128271 
1.1399999999998909, -0.9847734366127494 
1.1499999999998898, -0.9847069697095654 
1.1599999999998887, -0.9847273313217249 
1.1699999999998876, -0.9847013968174287 
1.1799999999998865, -0.9845448357662463 
1.1899999999998854, -0.9841895621874833 
1.1999999999998843, -0.9835580224378833 
1.2099999999998832, -0.9825474241678094 
1.219999999999882, -0.9810276531546865 
1.229999999999881, -0.9788598525377911 
1.2399999999998799, -0.9759390746577141 
1.2499999999998788, -0.9722481132968899 
1.2599999999998777, -0.9678923386062241 
1.2699999999998766, -0.963092346620463 
1.2799999999998755, -0.958142206679834 
1.2899999999998744, -0.9533601049624231 
1.2999999999998733, -0.9490465026140201 
1.3099999999998722, -0.9454454333851162 
1.319999999999871, -0.9427033852006346 
1.32999999999987, -0.9408370352181578 
1.3399999999998689, -0.9397336207235301 
1.3499999999998678, -0.9391943419024731 
1.3599999999998666, -0.9390000044999043 
1.3699999999998655, -0.9389633280612859 
1.3799999999998644, -0.9389485445051593 
1.3899999999998633, -0.9388637078709605 
1.3999999999998622, -0.9386415017644067 
1.4099999999998611, -0.9382209470764042 
1.41999999999986, -0.9375364873328849 
1.429999999999859, -0.9365180616333115 
1.4399999999998578, -0.9351039967438404 
1.4499999999998567, -0.9332633604269936 
1.4599999999998556, -0.9310160716208259 
1.4699999999998545, -0.9284366881047473 
1.4799999999998534, -0.9256388179607367 
1.4899999999998523, -0.9227518915115451 
1.4999999999998512, -0.9199042556366714 
1.5099999999998501, -0.9172163892871806 
1.519999999999849, -0.9147984421460345 
1.529999999999848, -0.9127445030603905 
1.5399999999998468, -0.9111204061002731 
1.5499999999998457, -0.9099486957682675 
1.5599999999998446, -0.9091997094458593 
1.5699999999998435, -0.9087969630074421 
1.5799999999998424, -0.9086366746556986 
1.5899999999998413, -0.9086117653533478 
1.5999999999998402, -0.9086289938901884 
1.6099999999998391, -0.9086146173865647 
1.619999999999838, -0.908511684810073 
1.629999999999837, -0.9082752036865843 
1.6399999999998358, -0.9078702032441411 
1.6499999999998347, -0.907274359468644 
1.6599999999998336, -0.9064828446525673 
1.6699999999998325, -0.9055104677273238 
1.6799999999998314, -0.9043877437653608 
1.6899999999998303, -0.9031527378772575 
1.6999999999998292, -0.9018441080734831 
1.709999999999828, -0.9004990878130072 
1.719999999999827, -0.8991557976413096 
1.729999999999826, -0.8978566429854207 
1.7399999999998248, -0.8966496649885809 
1.7499999999998237, -0.895586084329327 
1.7599999999998226, -0.8947138454468586 
1.7699999999998215, -0.8940686074074856 
1.7799999999998204, -0.8936651040855097 
1.7899999999998193, -0.8934923676780138 
1.7999999999998182, -0.893515238302139 
1.809999999999817, -0.8936819051376208 
1.819999999999816, -0.8939343679711754 
1.8299999999998149, -0.8942177879643542 
1.8399999999998138, -0.8944863265161066 
1.8499999999998127, -0.8947055034092397 
1.8599999999998116, -0.8948522171958591 
1.8699999999998105, -0.8949130830127816 
1.8799999999998094, -0.8948811897447234 
1.8899999999998083, -0.8947521237238382 
1.8999999999998072, -0.8945214212388504 
1.909999999999806, -0.8941853512958801 
1.919999999999805, -0.89374460622337 
1.9299999999998039, -0.8932084399904173 
1.9399999999998028, -0.892597239754347 
1.9499999999998017, -0.8919434975469047 
1.9599999999998006, -0.8912920234486951 
1.9699999999997995, -0.890699130228527 
1.9799999999997984, -0.8902289948989294 
1.9899999999997973, -0.8899455871839159 
1.9999999999997962, -0.8899011078238281 
2.0099999999998173, -0.8901250124776284 
2.0199999999998384, -0.8906184238091003 
2.0299999999998595, -0.8913560645581999 
2.0399999999998806, -0.8922939949509215 
2.0499999999999017, -0.8933791918556825 
2.059999999999923, -0.8945571217564285 
2.069999999999944, -0.8957750591726021 
2.079999999999965, -0.8969810536681175 
2.089999999999986, -0.8981207592104997 
2.100000000000007, -0.8991362729145136 
2.1100000000000283, -0.8999710024606736 
2.1200000000000494, -0.9005805965235867 
2.1300000000000705, -0.9009440272305348 
2.1400000000000916, -0.9010673025103622 
2.1500000000001127, -0.9009780335945081 
2.160000000000134, -0.9007162921117194 
2.170000000000155, -0.900328829937712 
2.180000000000176, -0.8998702599484508 
2.190000000000197, -0.8994104913721064 
2.2000000000002182, -0.899044262805105 
2.2100000000002393, -0.898895639326807 
2.2200000000002604, -0.8991093225655851 
2.2300000000002815, -0.8998253741927768 
2.2400000000003026, -0.9011448319284756 
2.2500000000003237, -0.9031022584519045 
2.260000000000345, -0.9056574810394176 
2.270000000000366, -0.9087051555458949 
2.280000000000387, -0.9120908155219762 
2.290000000000408, -0.9156241026688899 
2.3000000000004293, -0.9190902488696479 
2.3100000000004504, -0.9222697886898725 
2.3200000000004715, -0.9249738757773253 
2.3300000000004926, -0.9270856834569461 
2.3400000000005137, -0.9285827102589284 
2.3500000000005348, -0.9295233301559842 
2.360000000000556, -0.9300083307872766 
2.370000000000577, -0.9301429434951569 
2.380000000000598, -0.9300157388277303 
2.390000000000619, -0.9296957391809719 
2.4000000000006403, -0.9292429973345774 
2.4100000000006614, -0.9287294305375715 
2.4200000000006825, -0.9282685514732867 
2.4300000000007036, -0.9280489104223453 
2.4400000000007247, -0.9283544821472939 
2.450000000000746, -0.9295435744317032 
2.460000000000767, -0.9319661975174724 
2.470000000000788, -0.9358393809994421 
2.480000000000809, -0.9411406891793395 
2.49000000000083, -0.9475746252741937 
2.5000000000008513, -0.9546205681511344 
2.5100000000008724, -0.9616386802980139 
2.5200000000008935, -0.9680100158792238 
2.5300000000009146, -0.9732815165845814 
2.5400000000009357, -0.977260510051055 
2.550000000000957, -0.9800072249868945 
2.560000000000978, -0.9817380089499002 
2.570000000000999, -0.9827098537869835 
2.58000000000102, -0.9831447508290999 
2.5900000000010412, -0.9832037026276692 
2.6000000000010624, -0.9829921010877338 
2.6100000000010835, -0.982579008417461 
2.6200000000011046, -0.9820242244283506 
2.6300000000011257, -0.9814160498936447 
2.6400000000011468, -0.9809236629939277 
2.650000000001168, -0.9808544995097016 
2.660000000001189, -0.9816761205778747 
2.67000000000121, -0.9839382766400521 
2.680000000001231, -0.9880712801795465 
2.6900000000012523, -0.9941499338374685 
2.7000000000012734, -1.0017804816522173 
2.7100000000012945, -1.0101887183175466 
2.7200000000013156, -1.0184512596081494 
2.7300000000013367, -1.0257574232382898 
2.740000000001358, -1.03160580858882 
2.750000000001379, -1.0358687486441684 
2.7600000000014, -1.0387136357268818 
2.770000000001421, -1.0404486945400673 
2.780000000001442, -1.041387506100392 
2.7900000000014633, -1.041779248945709 
2.8000000000014844, -1.0417954991071585 
2.8100000000015055, -1.0415461619572608 
2.8200000000015266, -1.0411066435464447 
2.8300000000015477, -1.0405524536417177 
2.840000000001569, -1.0400042746424665 
2.85000000000159, -1.0396796361101555 
2.860000000001611, -1.03992213545374 
2.870000000001632, -1.0411527972774213 
2.8800000000016532, -1.0437158867350471 
2.8900000000016743, -1.0476948124450796 
2.9000000000016954, -1.0528378303170784 
2.9100000000017165, -1.058644255155767 
2.9200000000017377, -1.0645284765742322 
2.9300000000017588, -1.0699626332008605 
2.94000000000178, -1.074565729703274 
2.950000000001801, -1.078145864894687 
2.960000000001822, -1.0806964526909508 
2.970000000001843, -1.0823463451756947 
2.9800000000018643, -1.0832855040549663 
2.9900000000018854, -1.0837010257416688 
3.0000000000019065, -1.0837439828220703 
3.0100000000019276, -1.083525605066847 
3.0200000000019487, -1.0831324392050918 
3.03000000000197, -1.0826525197210328 
3.040000000001991, -1.0822062346962986 
3.050000000002012, -1.081968076857523 
3.060000000002033, -1.0821535831782136 
3.070000000002054, -1.0829544953011971 
3.0800000000020753, -1.0844516749509359 
3.0900000000020964, -1.0865731159631258 
3.1000000000021175, -1.08912885153744 
3.1100000000021386, -1.0918847717376148 
3.1200000000021597, -1.0946215229141245 
3.130000000002181, -1.0971601792541554 
3.140000000002202, -1.0993667725394531 
3.150000000002223, -1.101152355615371 
3.160000000002244, -1.1024753177749491 
3.1700000000022652, -1.1033418053113564 
3.1800000000022863, -1.1037975111420775 
3.1900000000023074, -1.1039111514104005 
3.2000000000023285, -1.1037578516700337 
3.2100000000023496, -1.1034109707651731 
3.2200000000023707, -1.1029450503356526 
3.230000000002392, -1.1024458901454839 
3.240000000002413, -1.1020178672005092 
3.250000000002434, -1.1017757012345262 
3.260000000002455, -1.1018156893040272 
3.2700000000024763, -1.1021812451109805 
3.2800000000024974, -1.1028483980073163 
3.2900000000025185, -1.1037404460272344 
3.3000000000025396, -1.1047571121035031 
3.3100000000025607, -1.1057998096274064 
3.3200000000025818, -1.1067856319461966 
3.330000000002603, -1.1076513689488459 
3.340000000002624, -1.1083516013188168 
3.350000000002645, -1.1088549903865883 
3.360000000002666, -1.10914185648814 
3.3700000000026873, -1.1092042221162093 
3.3800000000027084, -1.1090472549104866 
3.3900000000027295, -1.108690078597622 
3.4000000000027506, -1.108165298796704 
3.4100000000027717, -1.1075185974712067 
3.420000000002793, -1.1068093367347882 
3.430000000002814, -1.1061098896565993 
3.440000000002835, -1.105498973422576 
3.450000000002856, -1.1050470778488843 
3.460000000002877, -1.1047991653521745 
3.4700000000028983, -1.1047632010364508 
3.4800000000029194, -1.1049090253101064 
3.4900000000029405, -1.1051769081051135 
3.5000000000029616, -1.1054924388958454 
3.5100000000029827, -1.1057819995559062 
3.520000000003004, -1.1059829965525814 
3.530000000003025, -1.1060474233962272 
3.540000000003046, -1.1059416204801678 
3.550000000003067, -1.1056452173639548 
3.5600000000030882, -1.1051499927054238 
3.5700000000031094, -1.1044583579273106 
3.5800000000031305, -1.103582017642309 
3.5900000000031516, -1.1025420765047333 
3.6000000000031727, -1.1013711466918379 
3.6100000000031938, -1.1001165640071977 
3.620000000003215, -1.0988425665386494 
3.630000000003236, -1.0976285378604005 
3.640000000003257, -1.0965606382904158 
3.650000000003278, -1.0957157116995586 
3.6600000000032993, -1.095139706462071 
3.6700000000033204, -1.094828965845016 
3.6800000000033415, -1.0947272990112593 
3.6900000000033626, -1.0947440555621084 
3.7000000000033837, -1.0947812902574874 
3.710000000003405, -1.0947521602818981 
3.720000000003426, -1.0945843019157908 
3.730000000003447, -1.0942148874271242 
3.740000000003468, -1.0935870314396876 
3.750000000003489, -1.0926528699515368 
3.7600000000035103, -1.091382291943543 
3.7700000000035314, -1.0897715621672044 
3.7800000000035525, -1.08784641111092 
3.7900000000035736, -1.0856596847649722 
3.8000000000035947, -1.0832885110287298 
3.810000000003616, -1.0808348738351294 
3.820000000003637, -1.0784277742375656 
3.830000000003658, -1.0762192025680717 
3.840000000003679, -1.0743636320414796 
3.8500000000037002, -1.072977064609438 
3.8600000000037213, -1.0720910380080628 
3.8700000000037424, -1.0716351032038298 
3.8800000000037635, -1.0714672959709919 
3.8900000000037847, -1.0714302351917524 
3.9000000000038058, -1.071391839042535 
3.910000000003827, -1.0712531246698984 
3.920000000003848, -1.0709337026821804 
3.930000000003869, -1.070352252863926 
3.94000000000389, -1.0694135909096256 
3.9500000000039113, -1.068009247354675 
3.9600000000039324, -1.0660354378199892 
3.9700000000039535, -1.0634252417350958 
3.9800000000039746, -1.0601812034498443 
3.9900000000039957, -1.0563918366669076 
4.000000000004016, -1.052227766202887 
4.010000000003993, -1.0479270474737714 
4.02000000000397, -1.0437767144351118 
4.030000000003946, -1.0400822688586826 
4.040000000003923, -1.037110060356266 
4.0500000000039, -1.0350080940390285 
4.0600000000038765, -1.033749590091933 
4.070000000003853, -1.0331507681776255 
4.08000000000383, -1.032958028324055 
4.090000000003807, -1.0329399613398076 
4.100000000003783, -1.0329303587765977 
4.11000000000376, -1.032821438318597 
4.120000000003737, -1.0325346357726057 
4.130000000003713, -1.0319904549135372 
4.14000000000369, -1.0310860025389943 
4.150000000003667, -1.0296844868652075 
4.1600000000036434, -1.0276237860189146 
4.17000000000362, -1.024752018481013 
4.180000000003597, -1.02098660421954 
4.1900000000035735, -1.016371846619619 
4.20000000000355, -1.0111022650448258 
4.210000000003527, -1.0055011285773598 
4.220000000003504, -0.9999708874732087 
4.23000000000348, -0.9949317216286723 
4.240000000003457, -0.9907475091643139 
4.250000000003434, -0.9876414476532673 
4.26000000000341, -0.9856334439715193 
4.270000000003387, -0.984547152476883 
4.280000000003364, -0.984094949434154 
4.2900000000033405, -0.9839868926678902 
4.300000000003317, -0.9839997617614233 
4.310000000003294, -0.9839883803953746 
4.320000000003271, -0.9838617342685317 
4.330000000003247, -0.9835507860311349 
4.340000000003224, -0.9829816393325567 
4.350000000003201, -0.9820581670292944 
4.360000000003177, -0.9806574148158298 
4.370000000003154, -0.9786441300368655 
4.380000000003131, -0.9759087557497359 
4.390000000003107, -0.9724191603225378 
4.400000000003084, -0.968258515548371 
4.410000000003061, -0.9636242509268683 
4.4200000000030375, -0.9587912609156046 
4.430000000003014, -0.9540646195683389 
4.440000000002991, -0.9497393152848357 
4.450000000002968, -0.9460644734881921 
4.460000000002944, -0.9432045206429758 
4.470000000002921, -0.9412041584840427 
4.480000000002898, -0.9399794702420514 
4.490000000002874, -0.9393507842092796 
4.500000000002851, -0.9391040580736865 
4.510000000002828, -0.9390469150399172 
4.520000000002804, -0.9390351281962447 
4.530000000002781, -0.9389699840084725 
4.540000000002758, -0.938780972663363 
4.5500000000027345, -0.9384072138855979 
4.560000000002711, -0.9377851572623589 
4.570000000002688, -0.9368465707012561 
4.580000000002665, -0.9355289987480676 
4.590000000002641, -0.9337964256199942 
4.600000000002618, -0.931659898456991 
4.610000000002595, -0.929184054583186 
4.620000000002571, -0.9264743782956198 
4.630000000002548, -0.9236548971698302 
4.640000000002525, -0.9208505030021268 
4.6500000000025015, -0.9181793387305058 
4.660000000002478, -0.9157505939150606 
4.670000000002455, -0.9136600715736571 
4.6800000000024315, -0.9119793774759744 
4.690000000002408, -0.9107409766175218 
4.700000000002385, -0.9099271638738669 
4.710000000002362, -0.9094718121957118 
4.720000000002338, -0.9092769438103258 
4.730000000002315, -0.9092362896631043 
4.740000000002292, -0.909254242257146 
4.750000000002268, -0.9092538689828696 
4.760000000002245, -0.9091756641311781 
4.770000000002222, -0.9089729241456338 
4.7800000000021985, -0.9086091572348666 
4.790000000002175, -0.9080598780726776 
4.800000000002152, -0.9073171660135575 
4.810000000002129, -0.906392379387643 
4.820000000002105, -0.9053132027710697 
4.830000000002082, -0.904115993731115 
4.840000000002059, -0.9028385024227494 
4.850000000002035, -0.9015171588059113 
4.860000000002012, -0.9001889448770173 
4.870000000001989, -0.8988948646495173 
4.880000000001965, -0.897681790031643 
4.890000000001942, -0.896600705931383 
4.900000000001919, -0.8957008912621303 
4.9100000000018955, -0.8950211748551189 
4.920000000001872, -0.8945809496796404 
4.930000000001849, -0.8943744259754786 
