t, s[1].omega / s[0].omega 
0, -0.749997672188712 
0.009999999999999995, -0.7497432155504262 
0.019999999999999934, -0.7494433716855824 
0.029999999999999874, -0.7490926950322041 
0.04000000000000012, -0.7486872567762374 
0.050000000000000405, -0.7482289066277218 
0.06000000000000069, -0.7477275593139578 
0.07000000000000098, -0.7472018646261154 
0.08000000000000126, -0.7466796751454657 
0.09000000000000155, -0.7461992376755084 
0.10000000000000184, -0.7458108512565317 
0.11000000000000212, -0.7455777703080174 
0.12000000000000241, -0.7455748518962466 
0.130000000000002, -0.7458839996463186 
0.1400000000000009, -0.7465866374050509 
0.1499999999999998, -0.7477545361381928 
0.1599999999999987, -0.7494403858733331 
0.1699999999999976, -0.7516682203636446 
0.1799999999999965, -0.7544220949359499 
0.1899999999999954, -0.7576314272505904 
0.1999999999999943, -0.761155635036884 
0.2099999999999932, -0.7647794990435762 
0.2199999999999921, -0.7682372299668064 
0.229999999999991, -0.7712727550330672 
0.2399999999999899, -0.773712335955844 
0.2499999999999888, -0.7755039684774901 
0.2599999999999877, -0.7767007256627083 
0.2699999999999866, -0.7774097925709933 
0.2799999999999855, -0.7777441499067758 
0.2899999999999844, -0.7777953825217951 
0.2999999999999833, -0.7776254204785027 
0.3099999999999822, -0.7772682842998839 
0.3199999999999811, -0.7767354104263609 
0.32999999999998, -0.7760225482727038 
0.3399999999999789, -0.7751198806098287 
0.3499999999999778, -0.774029919297251 
0.35999999999997667, -0.7727993927723051 
0.36999999999997557, -0.7715682806951375 
0.37999999999997447, -0.7706235234740781 
0.38999999999997337, -0.7704108491091137 
0.39999999999997227, -0.7714275596724233 
0.40999999999997117, -0.7739687078571016 
0.41999999999997006, -0.7778767900112029 
0.42999999999996896, -0.7825553907121462 
0.43999999999996786, -0.7872727907845329 
0.44999999999996676, -0.7914709110482373 
0.45999999999996566, -0.7948739613274266 
0.46999999999996456, -0.7974395694813708 
0.47999999999996346, -0.7992612200542907 
0.48999999999996235, -0.8004830042576744 
0.49999999999996125, -0.8012458519983487 
0.5099999999999602, -0.8016625513153197 
0.519999999999959, -0.8018106209722845 
0.529999999999958, -0.80173265007526 
0.5399999999999568, -0.8014373159465636 
0.5499999999999557, -0.8008974243690471 
0.5599999999999546, -0.8000434135909421 
0.5699999999999535, -0.798753045442261 
0.5799999999999524, -0.7968427467442535 
0.5899999999999513, -0.7940753147970356 
0.5999999999999502, -0.7902089440651935 
0.6099999999999491, -0.7851052812005282 
0.619999999999948, -0.7788644316534994 
0.6299999999999469, -0.7718874725031816 
0.6399999999999458, -0.7647833775725006 
0.6499999999999447, -0.7581666757457783 
0.6599999999999436, -0.7524828688708678 
0.6699999999999425, -0.7479445135276522 
0.6799999999999414, -0.7445604386356054 
0.6899999999999403, -0.742203177600274 
0.6999999999999392, -0.7406763194522046 
0.7099999999999381, -0.7397668634345784 
0.719999999999937, -0.7392796101885666 
0.7299999999999359, -0.7390548389571874 
0.7399999999999348, -0.7389725568596351 
0.7499999999999337, -0.7389479185946113 
0.7599999999999326, -0.7389225674743751 
0.7699999999999315, -0.7388556839207758 
0.7799999999999304, -0.7387171771621039 
0.7899999999999293, -0.7384843064274669 
0.7999999999999282, -0.7381419846756242 
0.8099999999999271, -0.7376856080434282 
0.819999999999926, -0.7371235621914382 
0.8299999999999249, -0.7364760686796356 
0.8399999999999238, -0.7357693383012814 
0.8499999999999227, -0.7350278666927952 
0.8599999999999216, -0.7342693820359887 
0.8699999999999205, -0.7335047750748795 
0.8799999999999194, -0.7327418163153732 
0.8899999999999183, -0.7319898077373419 
0.8999999999999172, -0.7312630895411444 
0.9099999999999161, -0.7305828986629045 
0.919999999999915, -0.7299779205675787 
0.9299999999999139, -0.7294837813457111 
0.9399999999999128, -0.7291413670327798 
0.9499999999999117, -0.7289938455411503 
0.9599999999999106, -0.7290827087471428 
0.9699999999999095, -0.7294437026490783 
0.9799999999999084, -0.730103676512291 
0.9899999999999073, -0.73107887572611 
0.9999999999999062, -0.732374167930303 
1.0099999999999052, -0.7339816090126442 
1.019999999999904, -0.7358762642858493 
1.029999999999903, -0.7380080931879193 
1.039999999999902, -0.7402918676150902 
1.0499999999999008, -0.7426023701305071 
1.0599999999998997, -0.7447856625404861 
1.0699999999998986, -0.7466912858408011 
1.0799999999998975, -0.7482130382123355 
1.0899999999998964, -0.7493134201446549 
1.0999999999998953, -0.7500174290528332 
1.1099999999998942, -0.750385238835053 
1.119999999999893, -0.750483748244337 
1.129999999999892, -0.7503689330316705 
1.1399999999998909, -0.750079608131057 
1.1499999999998898, -0.7496385831148922 
1.1599999999998887, -0.7490582111651503 
1.1699999999998876, -0.7483502114827526 
1.1799999999998865, -0.7475424388800767 
1.1899999999998854, -0.7467070771336948 
1.1999999999998843, -0.7460034569594057 
1.2099999999998832, -0.7457292439878984 
1.219999999999882, -0.7463492090325534 
1.229999999999881, -0.7484345189837612 
1.2399999999998799, -0.7524401050090236 
1.2499999999998788, -0.7583611144133694 
1.2599999999998777, -0.7655342314130994 
1.2699999999998766, -0.7728735576018919 
1.2799999999998755, -0.7794061445895785 
1.2899999999998744, -0.7846298896854538 
1.2999999999998733, -0.7884934869879017 
1.3099999999998722, -0.7911926453245849 
1.319999999999871, -0.7929926835713685 
1.32999999999987, -0.7941352896058993 
1.3399999999998689, -0.7948066451142661 
1.3499999999998678, -0.7951354296125793 
1.3599999999998666, -0.79520067986807 
1.3699999999998655, -0.7950396678828198 
1.3799999999998644, -0.7946516451187566 
1.3899999999998633, -0.7939958298810925 
1.3999999999998622, -0.7929833058091995 
1.4099999999998611, -0.791464696184961 
1.41999999999986, -0.7892213606489584 
1.429999999999859, -0.7859794823857496 
1.4399999999998578, -0.781477643820703 
1.4499999999998567, -0.7756035983604023 
1.4599999999998556, -0.7685470776127823 
1.4699999999998545, -0.760840317972814 
1.4799999999998534, -0.7532071630933727 
1.4899999999998523, -0.7463120568565981 
1.4999999999998512, -0.7405794021030666 
1.5099999999998501, -0.7361563269702777 
1.519999999999849, -0.7329744987608453 
1.529999999999848, -0.7308404619885922 
1.5399999999998468, -0.7295135293808812 
1.5499999999998457, -0.7287589536251378 
1.5599999999998446, -0.7283772429212914 
1.5699999999998435, -0.7282146470408601 
1.5799999999998424, -0.7281610051456673 
1.5899999999998413, -0.7281409855771954 
1.5999999999998402, -0.7281035382273502 
1.6099999999998391, -0.728012710950375 
1.619999999999838, -0.7278415557066633 
1.629999999999837, -0.7275698731776459 
1.6399999999998358, -0.7271855841657229 
1.6499999999998347, -0.7266880333087438 
1.6599999999998336, -0.7260899564287252 
1.6699999999998325, -0.7254149975112438 
1.6799999999998314, -0.7246907243473484 
1.6899999999998303, -0.7239408839880891 
1.6999999999998292, -0.7231813391501307 
1.709999999999828, -0.7224211729972068 
1.719999999999827, -0.7216670574738157 
1.729999999999826, -0.7209279439591989 
1.7399999999998248, -0.7202183187474511 
1.7499999999998237, -0.7195598347319025 
1.7599999999998226, -0.7189817797942287 
1.7699999999998215, -0.7185206144343712 
1.7799999999998204, -0.7182184295634289 
1.7899999999998193, -0.7181201773118805 
1.7999999999998182, -0.7182699531488322 
1.809999999999817, -0.7187071082720176 
1.819999999999816, -0.7194630855827003 
1.8299999999998149, -0.7205593416023659 
1.8399999999998138, -0.7220056709154999 
1.8499999999998127, -0.723797168901034 
1.8599999999998116, -0.7259076877165798 
1.8699999999998105, -0.7282789947191141 
1.8799999999998094, -0.7308090188038346 
1.8899999999998083, -0.7333489018683587 
1.8999999999998072, -0.7357213007779984 
1.909999999999806, -0.7377621639651182 
1.919999999999805, -0.739366654332932 
1.9299999999998039, -0.7405099873606531 
1.9399999999998028, -0.7412327092276595 
1.9499999999998017, -0.7416069196731185 
1.9599999999998006, -0.7417059949487823 
1.9699999999997995, -0.7415878842950454 
1.9799999999997984, -0.7412901651457394 
1.9899999999997973, -0.740831662968297 
1.9999999999997962, -0.740217334741667 
2.0099999999998173, -0.7394461835957747 
2.0199999999998384, -0.7385246756648336 
2.0299999999998595, -0.7374899426758018 
2.0399999999998806, -0.7364461610783851 
2.0499999999999017, -0.7356089993044123 
2.059999999999923, -0.7353304357661006 
2.069999999999944, -0.7360450892651866 
2.079999999999965, -0.7380859387655863 
2.089999999999986, -0.741435981419842 
2.100000000000007, -0.7456467589478077 
2.1100000000000283, -0.7500634521281568 
2.1200000000000494, -0.7541429028604064 
2.1300000000000705, -0.7575875996968757 
2.1400000000000916, -0.7603061949131296 
2.1500000000001127, -0.7623343240741027 
2.160000000000134, -0.763770820136316 
2.170000000000155, -0.7647324024939887 
2.180000000000176, -0.765325499639422 
2.190000000000197, -0.7656327191966434 
2.2000000000002182, -0.7657086561273883 
2.2100000000002393, -0.7655794795400045 
2.2200000000002604, -0.7652423495026089 
2.2300000000002815, -0.7646625643340956 
2.2400000000003026, -0.76376822345972 
2.2500000000003237, -0.7624451335979914 
2.260000000000345, -0.7605399513042862 
2.270000000000366, -0.7578858778044536 
2.280000000000387, -0.754363669117821 
2.290000000000408, -0.7499864585627928 
2.3000000000004293, -0.7449559579491992 
2.3100000000004504, -0.7396319316700153 
2.3200000000004715, -0.7344217840502987 
2.3300000000004926, -0.7296648839050752 
2.3400000000005137, -0.7255742284224478 
2.3500000000005348, -0.7222380001482125 
2.360000000000556, -0.7196500543143702 
2.370000000000577, -0.7177434828646 
2.380000000000598, -0.7164174602803456 
2.390000000000619, -0.7155570849359167 
2.4000000000006403, -0.7150480012768003 
2.4100000000006614, -0.7147866249427631 
2.4200000000006825, -0.7146859817342732 
2.4300000000007036, -0.7146774035865535 
2.4400000000007247, -0.7147090970300499 
2.450000000000746, -0.7147431708468458 
2.460000000000767, -0.714752732521652 
2.470000000000788, -0.7147201415803429 
2.480000000000809, -0.7146365333381616 
2.49000000000083, -0.7145015395213397 
2.5000000000008513, -0.714321467390175 
2.5100000000008724, -0.7141050346176498 
2.5200000000008935, -0.7138579859504939 
2.5300000000009146, -0.713579625842226 
2.5400000000009357, -0.7132635412919476 
2.550000000000957, -0.7129019872810681 
2.560000000000978, -0.712491112003009 
2.570000000000999, -0.7120344046037625 
2.58000000000102, -0.7115438743440923 
2.5900000000010412, -0.7110403001904894 
2.6000000000010624, -0.7105541205634762 
2.6100000000010835, -0.7101276034158673 
2.6200000000011046, -0.7098178218721206 
2.6300000000011257, -0.7096991852259587 
2.6400000000011468, -0.7098639788570108 
2.650000000001168, -0.7104195926682288 
2.660000000001189, -0.7114817393672446 
2.67000000000121, -0.7131634737485792 
2.680000000001231, -0.7155595175272349 
2.6900000000012523, -0.7187241904338714 
2.7000000000012734, -0.7226408411529086 
2.7100000000012945, -0.7271851107061555 
2.7200000000013156, -0.7320976348321242 
2.7300000000013367, -0.7369984432061534 
2.740000000001358, -0.7414701030141069 
2.750000000001379, -0.7451863234375462 
2.7600000000014, -0.7480058900390365 
2.770000000001421, -0.7499703799757065 
2.780000000001442, -0.751227829104061 
2.7900000000014633, -0.7519494650527698 
2.8000000000014844, -0.7522799598197563 
2.8100000000015055, -0.7523210072930226 
2.8200000000015266, -0.7521323793556678 
2.8300000000015477, -0.7517376055996102 
2.840000000001569, -0.7511280290122812 
2.85000000000159, -0.7502632549057994 
2.860000000001611, -0.7490680418504313 
2.870000000001632, -0.7474269359939749 
2.8800000000016532, -0.7451796310643515 
2.8900000000016743, -0.7421232483482518 
2.9000000000016954, -0.7380345362738516 
2.9100000000017165, -0.7327380820755416 
2.9200000000017377, -0.7262538629573374 
2.9300000000017588, -0.7189962555576958 
2.94000000000178, -0.7118272525976252 
2.950000000001801, -0.7057424482960586 
2.960000000001822, -0.7013675408362123 
2.970000000001843, -0.6987346338956746 
2.9800000000018643, -0.697460754987637 
2.9900000000018854, -0.6970514226277171 
3.0000000000019065, -0.6970946744232506 
3.0100000000019276, -0.6973164063697193 
3.0200000000019487, -0.6975602416562161 
3.03000000000197, -0.6977472424075148 
3.040000000001991, -0.6978407991721834 
3.050000000002012, -0.6978225642684965 
3.060000000002033, -0.6976776945425262 
3.070000000002054, -0.6973864326458563 
3.0800000000020753, -0.6969202996555406 
3.0900000000020964, -0.6962430860141995 
3.1000000000021175, -0.6953182139242224 
3.1100000000021386, -0.6941231122890065 
3.1200000000021597, -0.6926664281023766 
3.130000000002181, -0.6909977622624082 
3.140000000002202, -0.689200368969434 
3.150000000002223, -0.6873688303721146 
3.160000000002244, -0.6855854191290598 
3.1700000000022652, -0.6839077208304475 
3.1800000000022863, -0.6823694048848489 
3.1900000000023074, -0.6809881282397148 
3.2000000000023285, -0.6797740109665378 
3.2100000000023496, -0.6787352955741912 
3.2200000000023707, -0.6778806824413411 
3.230000000002392, -0.6772191998366213 
3.240000000002413, -0.6767587687517346 
3.250000000002434, -0.6765045052719213 
3.260000000002455, -0.6764575614870347 
3.2700000000024763, -0.6766149764110723 
3.2800000000024974, -0.6769705953568662 
3.2900000000025185, -0.6775166873549671 
3.3000000000025396, -0.6782455252512614 
3.3100000000025607, -0.6791499131949023 
3.3200000000025818, -0.6802214670413862 
3.330000000002603, -0.6814455954276282 
3.340000000002624, -0.6827931905688376 
3.350000000002645, -0.6842116577630748 
3.360000000002666, -0.685621457811244 
3.3700000000026873, -0.6869252980582213 
3.3800000000027084, -0.6880308072359003 
3.3900000000027295, -0.6888758943800313 
3.4000000000027506, -0.6894411736011682 
3.4100000000027717, -0.6897435747386882 
3.420000000002793, -0.6898190640412627 
3.430000000002814, -0.6897061260560183 
3.440000000002835, -0.6894360264292054 
3.450000000002856, -0.6890298994593318 
3.460000000002877, -0.6885007325904462 
3.4700000000028983, -0.687859274212897 
3.4800000000029194, -0.687124753440543 
3.4900000000029405, -0.6863428476219792 
3.5000000000029616, -0.6856132620167074 
3.5100000000029827, -0.6851246626733358 
3.520000000003004, -0.6851804523677726 
3.530000000003025, -0.6861731304046433 
3.540000000003046, -0.6884491730807983 
3.550000000003067, -0.6920670876797332 
3.5600000000030882, -0.6966249232857564 
3.5700000000031094, -0.7014076330813921 
3.5800000000031305, -0.7057828910431774 
3.5900000000031516, -0.7094427464579474 
3.6000000000031727, -0.7123430052512358 
3.6100000000031938, -0.7145544395768686 
3.620000000003215, -0.716180031199607 
3.630000000003236, -0.7173266231604517 
3.640000000003257, -0.7180925803072509 
3.650000000003278, -0.718559615726399 
3.6600000000032993, -0.7187883141837648 
3.6700000000033204, -0.7188166351123291 
3.6800000000033415, -0.7186595277477669 
3.6900000000033626, -0.7183080050814254 
3.7000000000033837, -0.7177270717798016 
3.710000000003405, -0.7168536697612188 
3.720000000003426, -0.7155986897503227 
3.730000000003447, -0.7138605815586165 
3.740000000003468, -0.7115581505966581 
3.750000000003489, -0.708679127251292 
3.7600000000035103, -0.7053191328153718 
3.7700000000035314, -0.701676234982634 
3.7800000000035525, -0.6979948867011824 
3.7900000000035736, -0.6944957071138368 
3.8000000000035947, -0.6913328249627385 
3.810000000003616, -0.6885888314606473 
3.820000000003637, -0.6862913406484975 
3.830000000003658, -0.6844329977211093 
3.840000000003679, -0.6829861966211447 
3.8500000000037002, -0.6819116569544708 
3.8600000000037213, -0.6811631528943389 
3.8700000000037424, -0.6806907468742549 
3.8800000000037635, -0.6804438124476188 
3.8900000000037847, -0.6803740601857473 
3.9000000000038058, -0.6804381920002038 
3.910000000003827, -0.680599768841087 
3.920000000003848, -0.6808301644146201 
3.930000000003869, -0.681108745750979 
3.94000000000389, -0.6814223841239575 
3.9500000000039113, -0.6817640169787572 
3.9600000000039324, -0.6821296120143068 
3.9700000000039535, -0.6825132148787301 
3.9800000000039746, -0.6829012086737909 
3.9900000000039957, -0.6832687554027029 
4.000000000004016, -0.683581709509719 
4.010000000003993, -0.6838045710130667 
4.02000000000397, -0.6839105993314148 
4.030000000003946, -0.6838882499364315 
4.040000000003923, -0.6837410858601325 
4.0500000000039, -0.6834832269893714 
4.0600000000038765, -0.6831346154787028 
4.070000000003853, -0.6827192917961329 
4.08000000000383, -0.6822679977484833 
4.090000000003807, -0.681825501929133 
4.100000000003783, -0.6814629796074221 
4.11000000000376, -0.6812956263985702 
4.120000000003737, -0.6815043910567042 
4.130000000003713, -0.682357194556478 
4.14000000000369, -0.6842181601172814 
4.150000000003667, -0.6875228794798713 
4.1600000000036434, -0.6926874392786572 
4.17000000000362, -0.699925441153235 
4.180000000003597, -0.7090057771184839 
4.1900000000035735, -0.7191082189215245 
4.20000000000355, -0.7290006158897435 
4.210000000003527, -0.7375424860441087 
4.220000000003504, -0.7441412752762611 
4.23000000000348, -0.7488093943762725 
4.240000000003457, -0.7519057775769782 
4.250000000003434, -0.7538609749594791 
4.26000000000341, -0.7550339839733251 
4.270000000003387, -0.7556784819812791 
4.280000000003364, -0.7559564735394162 
4.2900000000033405, -0.7559609664080417 
4.300000000003317, -0.7557331932423466 
4.310000000003294, -0.7552710439744077 
4.320000000003271, -0.75452860291398 
4.330000000003247, -0.7534071604299254 
4.340000000003224, -0.751739189457643 
4.350000000003201, -0.749272065347566 
4.360000000003177, -0.7456719678444486 
4.370000000003154, -0.7405884696288721 
4.380000000003131, -0.7338188612961118 
4.390000000003107, -0.7255327200958603 
4.400000000003084, -0.7163803132743497 
4.410000000003061, -0.7073151995314146 
4.4200000000030375, -0.6992212562085808 
4.430000000003014, -0.6926285266948983 
4.440000000002991, -0.687667462662439 
4.450000000002968, -0.6841862552719719 
4.460000000002944, -0.6818990589418307 
4.470000000002921, -0.680495055505443 
4.480000000002898, -0.6796979759390631 
4.490000000002874, -0.6792889827875506 
4.500000000002851, -0.6791079343084541 
4.510000000002828, -0.6790441703795153 
4.520000000002804, -0.6790239015539592 
4.530000000002781, -0.6789982182093562 
4.540000000002758, -0.67893370039815 
4.5500000000027345, -0.6788064495252882 
4.560000000002711, -0.6785997359642885 
4.570000000002688, -0.6783047955059346 
4.580000000002665, -0.6779231564838143 
4.590000000002641, -0.6774676466478622 
4.600000000002618, -0.6769594524939804 
4.610000000002595, -0.6764212910676997 
4.620000000002571, -0.6758701221681214 
4.630000000002548, -0.6753135702704487 
4.640000000002525, -0.6747515869771085 
4.6500000000025015, -0.6741815057018216 
4.660000000002478, -0.6736033236572062 
4.670000000002455, -0.6730232049676108 
4.6800000000024315, -0.6724551912519611 
4.690000000002408, -0.6719222150147676 
4.700000000002385, -0.6714573561804558 
4.710000000002362, -0.6711055233447566 
4.720000000002338, -0.6709250707339406 
4.730000000002315, -0.6709885646324686 
4.740000000002292, -0.6713819795899237 
4.750000000002268, -0.6722018518895245 
4.760000000002245, -0.6735499857818736 
4.770000000002222, -0.6755247408898513 
4.7800000000021985, -0.6782065315523472 
4.790000000002175, -0.681633719096347 
4.800000000002152, -0.6857663424718898 
4.810000000002129, -0.6904440790358414 
4.820000000002105, -0.6953637617398067 
4.830000000002082, -0.7001164604312081 
4.840000000002059, -0.7042996680923841 
4.850000000002035, -0.7076502276763807 
4.860000000002012, -0.7101057213102753 
4.870000000001989, -0.7117629998600395 
4.880000000001965, -0.7127885194354168 
4.890000000001942, -0.713345756441166 
4.900000000001919, -0.7135610543485674 
4.9100000000018955, -0.7135167067406322 
4.920000000001872, -0.7132548642865407 
