t, s[1].omega / s[0].omega 
0, -1.0199628077187877 
0.009999999999999995, -1.0160059876150174 
0.019999999999999934, -1.0117215130060173 
0.029999999999999874, -1.0073595444158767 
0.04000000000000012, -1.0031984514980155 
0.050000000000000405, -0.9995144025385206 
0.06000000000000069, -0.9965358169693687 
0.07000000000000098, -0.9943856653156591 
0.08000000000000126, -0.9930411614932659 
0.09000000000000155, -0.9923464675280058 
0.10000000000000184, -0.9920784027692191 
0.11000000000000212, -0.9920220870780542 
0.12000000000000241, -0.9920136421127494 
0.130000000000002, -0.9919423369922097 
0.1400000000000009, -0.991730138589063 
0.1499999999999998, -0.9913074086928031 
0.1599999999999987, -0.9905946947201505 
0.1699999999999976, -0.9894955391125464 
0.1799999999999965, -0.9879048417029328 
0.1899999999999954, -0.9857351512517871 
0.1999999999999943, -0.9829535708107224 
0.2099999999999932, -0.979609794137 
0.2199999999999921, -0.9758374130009793 
0.229999999999991, -0.9718303014170173 
0.2399999999999899, -0.967812163150431 
0.2499999999999888, -0.9640124452742089 
0.2599999999999877, -0.9606459332526718 
0.2699999999999866, -0.9578860148081576 
0.2799999999999855, -0.9558299975842945 
0.2899999999999844, -0.9544716471157727 
0.2999999999999833, -0.9537034445259959 
0.3099999999999822, -0.9533549181450448 
0.3199999999999811, -0.9532461005853701 
0.32999999999998, -0.9532264314361243 
0.3399999999999789, -0.9531860870774537 
0.3499999999999778, -0.9530466941967456 
0.35999999999997667, -0.9527449724992947 
0.36999999999997557, -0.9522194174893193 
0.37999999999997447, -0.9514056583537019 
0.38999999999997337, -0.9502432922433872 
0.39999999999997227, -0.9486929270857358 
0.40999999999997117, -0.9467551933120169 
0.41999999999997006, -0.9444791441989517 
0.42999999999996896, -0.9419537437097514 
0.43999999999996786, -0.9392892892027886 
0.44999999999996676, -0.9366013702090896 
0.45999999999996566, -0.934003462710258 
0.46999999999996456, -0.9316048027826817 
0.47999999999996346, -0.9295063380483921 
0.48999999999996235, -0.9277899258333016 
0.49999999999996125, -0.9265018666949331 
0.5099999999999602, -0.925638406671079 
0.519999999999959, -0.9251434254413727 
0.529999999999958, -0.9249227964277699 
0.5399999999999568, -0.9248687905747189 
0.5499999999999557, -0.9248817186976698 
0.5599999999999546, -0.924880328728538 
0.5699999999999535, -0.9248014956139047 
0.5799999999999524, -0.9245952717102888 
0.5899999999999513, -0.9242214854721327 
0.5999999999999502, -0.9236510784839002 
0.6099999999999491, -0.9228712004765873 
0.619999999999948, -0.9218894604136583 
0.6299999999999469, -0.9207325870202313 
0.6399999999999458, -0.9194392843446636 
0.6499999999999447, -0.9180520986038839 
0.6599999999999436, -0.9166133124186716 
0.6699999999999425, -0.9151657995440141 
0.6799999999999414, -0.9137560961889732 
0.6899999999999403, -0.9124361292393208 
0.6999999999999392, -0.9112611854717386 
0.7099999999999381, -0.9102834507587042 
0.719999999999937, -0.909542360306976 
0.7299999999999359, -0.909054831094392 
0.7399999999999348, -0.9088094458598723 
0.7499999999999337, -0.9087677600169377 
0.7599999999999326, -0.9088727565240576 
0.7699999999999315, -0.9090607709878672 
0.7799999999999304, -0.9092719309221211 
0.7899999999999293, -0.9094562860029658 
0.7999999999999282, -0.909576033126763 
0.8099999999999271, -0.9096057070228925 
0.819999999999926, -0.9095313742994844 
0.8299999999999249, -0.9093484930568977 
0.8399999999999238, -0.9090582328369136 
0.8499999999999227, -0.9086637216034508 
0.8599999999999216, -0.9081686193997678 
0.8699999999999205, -0.9075789695492821 
0.8799999999999194, -0.9069068899513674 
0.8899999999999183, -0.9061739150891155 
0.8999999999999172, -0.9054129002697202 
0.9099999999999161, -0.904668336094495 
0.919999999999915, -0.9039945155581595 
0.9299999999999139, -0.903450326184141 
0.9399999999999128, -0.9030902489352044 
0.9499999999999117, -0.9029535702696838 
0.9599999999999106, -0.9030558456650357 
0.9699999999999095, -0.9033861850038072 
0.9799999999999084, -0.9039111795175734 
0.9899999999999073, -0.9045833705430306 
0.9999999999999062, -0.9053507482161169 
1.0099999999999052, -0.9061641088263215 
1.019999999999904, -0.9069805227541501 
1.029999999999903, -0.9077628104583324 
1.039999999999902, -0.9084764022120391 
1.0499999999999008, -0.909086294494602 
1.0599999999998997, -0.909557367673709 
1.0699999999998986, -0.9098596016251209 
1.0799999999998975, -0.9099757765479979 
1.0899999999998964, -0.9099065935537874 
1.0999999999998953, -0.9096702607283159 
1.1099999999998942, -0.9092985394491763 
1.119999999999893, -0.9088338091172877 
1.129999999999892, -0.9083300192958921 
1.1399999999998909, -0.9078566304257378 
1.1499999999998898, -0.9075011952480946 
1.1599999999998887, -0.9073647724757027 
1.1699999999998876, -0.9075468746192066 
1.1799999999998865, -0.9081235061792995 
1.1899999999998854, -0.9091283567116939 
1.1999999999998843, -0.9105464885201611 
1.2099999999998832, -0.912321621348975 
1.219999999999882, -0.9143700449005483 
1.229999999999881, -0.9165926068783572 
1.2399999999998799, -0.9188804617095826 
1.2499999999998788, -0.9211164251572648 
1.2599999999998777, -0.9231786124657682 
1.2699999999998766, -0.9249532274663969 
1.2799999999998755, -0.9263560861350495 
1.2899999999998744, -0.9273515654882463 
1.2999999999998733, -0.9279553610234672 
1.3099999999998722, -0.9282191973999614 
1.319999999999871, -0.9282089697244376 
1.32999999999987, -0.9279892628818243 
1.3399999999998689, -0.9276198549241352 
1.3499999999998678, -0.9271635626151612 
1.3599999999998666, -0.9267024510560011 
1.3699999999998655, -0.9263573923151472 
1.3799999999998644, -0.926301059153529 
1.3899999999998633, -0.9267494019971645 
1.3999999999998622, -0.9279210728869746 
1.4099999999998611, -0.9299740675749879 
1.41999999999986, -0.9329500451540851 
1.429999999999859, -0.9367543479967197 
1.4399999999998578, -0.9411734312698545 
1.4499999999998567, -0.9459106591523373 
1.4599999999998556, -0.9506257043655222 
1.4699999999998545, -0.9549797445944964 
1.4799999999998534, -0.9586928115139501 
1.4899999999998523, -0.961600892779954 
1.4999999999998512, -0.9636807821355278 
1.5099999999998501, -0.9650236805486607 
1.519999999999849, -0.9657763570291567 
1.529999999999848, -0.9660866572450356 
1.5399999999998468, -0.9660744658629108 
1.5499999999998457, -0.9658272701023313 
1.5599999999998446, -0.9654116564550286 
1.5699999999998435, -0.9648954368120005 
1.5799999999998424, -0.9643795496349146 
1.5899999999998413, -0.9640368873934884 
1.5999999999998402, -0.9641425967152129 
1.6099999999998391, -0.9650628073174972 
1.619999999999838, -0.9671709757402638 
1.629999999999837, -0.970707136841946 
1.6399999999998358, -0.9756550698691937 
1.6499999999998347, -0.9817119487133222 
1.6599999999998336, -0.9883575428970154 
1.6699999999998325, -0.9949767375593266 
1.6799999999998314, -1.0009932634970058 
1.6899999999998303, -1.0059899752786716 
1.6999999999998292, -1.009783235742851 
1.709999999999828, -1.0124167686203234 
1.719999999999827, -1.01408107340796 
1.729999999999826, -1.0150117876723208 
1.7399999999998248, -1.0154183877956802 
1.7499999999998237, -1.0154568396172121 
1.7599999999998226, -1.0152330458401884 
1.7699999999998215, -1.014821869579267 
1.7799999999998204, -1.014295487249756 
1.7899999999998193, -1.0137614665373555 
1.7999999999998182, -1.0134075232755102 
1.809999999999817, -1.0135319577628397 
1.819999999999816, -1.0145165645276353 
1.8299999999998149, -1.0167110934316512 
1.8399999999998138, -1.0202715495125143 
1.8499999999998127, -1.0250613337647851 
1.8599999999998116, -1.030683040074344 
1.8699999999998105, -1.0366014431381074 
1.8799999999998094, -1.0422767552707488 
1.8899999999998083, -1.047267006197797 
1.8999999999998072, -1.0512954962359293 
1.909999999999806, -1.0542769099650946 
1.919999999999805, -1.0562903564020578 
1.9299999999998039, -1.0575102983592914 
1.9399999999998028, -1.058132129784306 
1.9499999999998017, -1.0583240678199393 
1.9599999999998006, -1.0582119640070151 
1.9699999999997995, -1.0578875506476426 
1.9799999999997984, -1.0574303348400176 
1.9899999999997973, -1.0569380629914213 
1.9999999999997962, -1.0565591417850044 
2.0099999999998173, -1.056508311172251 
2.0199999999998384, -1.057035963774212 
2.0299999999998595, -1.0583418405435656 
2.0399999999998806, -1.0604800676983344 
2.0499999999999017, -1.063328574873924 
2.059999999999923, -1.066640777078066 
2.069999999999944, -1.0701284998371672 
2.079999999999965, -1.073523248554149 
2.089999999999986, -1.076604658123615 
2.100000000000007, -1.079212113206387 
2.1100000000000283, -1.0812534042329542 
2.1200000000000494, -1.0827092840236856 
2.1300000000000705, -1.0836247389259168 
2.1400000000000916, -1.0840851713978288 
2.1500000000001127, -1.0841882689383433 
2.160000000000134, -1.0840250008421495 
2.170000000000155, -1.083675768799694 
2.180000000000176, -1.0832198944697071 
2.190000000000197, -1.0827519307800786 
2.2000000000002182, -1.0823934185475452 
2.2100000000002393, -1.082284502749664 
2.2200000000002604, -1.0825474999915399 
2.2300000000002815, -1.0832397096253255 
2.2400000000003026, -1.0843305624328028 
2.2500000000003237, -1.0857192913163893 
2.260000000000345, -1.0872745764315026 
2.270000000000366, -1.0888686849572564 
2.280000000000387, -1.0903944512101558 
2.290000000000408, -1.0917683455164169 
2.3000000000004293, -1.0929274826320496 
2.3100000000004504, -1.0938270897901565 
2.3200000000004715, -1.0944413132647441 
2.3300000000004926, -1.094765797976668 
2.3400000000005137, -1.09481798066571 
2.3500000000005348, -1.094633074559361 
2.360000000000556, -1.0942583370415075 
2.370000000000577, -1.0937502164863677 
2.380000000000598, -1.0931760955116538 
2.390000000000619, -1.0926167862275933 
2.4000000000006403, -1.092161973522458 
2.4100000000006614, -1.0918936269277708 
2.4200000000006825, -1.091863140061375 
2.4300000000007036, -1.0920763787438759 
2.4400000000007247, -1.0924953973390994 
2.450000000000746, -1.0930529363715438 
2.460000000000767, -1.0936705260314734 
2.470000000000788, -1.0942735781860384 
2.480000000000809, -1.0948004384353234 
2.49000000000083, -1.0952052705359974 
2.5000000000008513, -1.095456799715056 
2.5100000000008724, -1.095535453100571 
2.5200000000008935, -1.0954308065672562 
2.5300000000009146, -1.095140507168107 
2.5400000000009357, -1.0946709589829866 
2.550000000000957, -1.0940390934039832 
2.560000000000978, -1.0932743339005293 
2.570000000000999, -1.0924203101990502 
2.58000000000102, -1.0915354827435375 
2.5900000000010412, -1.0906903438995694 
2.6000000000010624, -1.0899586848858835 
2.6100000000010835, -1.089403457125044 
2.6200000000011046, -1.0890615917324522 
2.6300000000011257, -1.0889332604023214 
2.6400000000011468, -1.088980196937394 
2.650000000001168, -1.089135333069563 
2.660000000001189, -1.0893200396316665 
2.67000000000121, -1.0894599668209322 
2.680000000001231, -1.089493062158088 
2.6900000000012523, -1.0893708276466345 
2.7000000000012734, -1.089057725956059 
2.7100000000012945, -1.0885317182978735 
2.7200000000013156, -1.0877852516059847 
2.7300000000013367, -1.0868247889373173 
2.740000000001358, -1.085668857870633 
2.750000000001379, -1.0843467142321792 
2.7600000000014, -1.0828994188398473 
2.770000000001421, -1.0813829004044169 
2.780000000001442, -1.079870427659753 
2.7900000000014633, -1.078450828167637 
2.8000000000014844, -1.0772188711274724 
2.8100000000015055, -1.0762559974075878 
2.8200000000015266, -1.0756048897104622 
2.8300000000015477, -1.0752501774484078 
2.840000000001569, -1.0751204500025922 
2.85000000000159, -1.0751130136686102 
2.860000000001611, -1.0751238862238124 
2.870000000001632, -1.0750644599264474 
2.8800000000016532, -1.0748616703441343 
2.8900000000016743, -1.07445068915032 
2.9000000000016954, -1.0737703296453747 
2.9100000000017165, -1.072766569510292 
2.9200000000017377, -1.0714033021761558 
2.9300000000017588, -1.0696739003768745 
2.94000000000178, -1.067606345352011 
2.950000000001801, -1.0652604642795107 
2.960000000001822, -1.0627225831034217 
2.970000000001843, -1.060103212986934 
2.9800000000018643, -1.057537340697483 
2.9900000000018854, -1.0551800329659196 
3.0000000000019065, -1.0531872227779757 
3.0100000000019276, -1.0516774327883485 
3.0200000000019487, -1.0506878482901258 
3.03000000000197, -1.0501553047422882 
3.040000000001991, -1.0499423026941948 
3.050000000002012, -1.0498905552732345 
3.060000000002033, -1.0498637445280048 
3.070000000002054, -1.0497594993101385 
3.0800000000020753, -1.049497995857636 
3.0900000000020964, -1.0490035932110064 
3.1000000000021175, -1.0481914578085088 
3.1100000000021386, -1.046966117736463 
3.1200000000021597, -1.0452356599827046 
3.130000000002181, -1.0429391207245269 
3.140000000002202, -1.0400749784651597 
3.150000000002223, -1.036715143492938 
3.160000000002244, -1.0329993914052154 
3.1700000000022652, -1.0291195864969411 
3.1800000000022863, -1.0253040412844738 
3.1900000000023074, -1.0217998700696138 
3.2000000000023285, -1.0188407502977939 
3.2100000000023496, -1.016593779717545 
3.2200000000023707, -1.0151041618441548 
3.230000000002392, -1.0142776918629273 
3.240000000002413, -1.0139232654486814 
3.250000000002434, -1.0138282143735775 
3.260000000002455, -1.0138160860382595 
3.2700000000024763, -1.0137628422473113 
3.2800000000024974, -1.0135823446232857 
3.2900000000025185, -1.013201911732539 
3.3000000000025396, -1.0125413607016678 
3.3100000000025607, -1.0115019614468719 
3.3200000000025818, -1.0099703503300566 
3.330000000002603, -1.0078414627874759 
3.340000000002624, -1.005056622755134 
3.350000000002645, -1.0016393877908811 
3.360000000002666, -0.997707894802738 
3.3700000000026873, -0.9934587398543189 
3.3800000000027084, -0.9891372434560918 
3.3900000000027295, -0.985009117925704 
3.4000000000027506, -0.9813328621853497 
3.4100000000027717, -0.9783225920665222 
3.420000000002793, -0.9761005838481209 
3.430000000002814, -0.9746607565381499 
3.440000000002835, -0.9738733064868026 
3.450000000002856, -0.9735364875998685 
3.460000000002877, -0.9734443599725902 
3.4700000000028983, -0.9734316985415455 
3.4800000000029194, -0.9733830407150735 
3.4900000000029405, -0.9732179643371877 
3.5000000000029616, -0.9728697927720497 
3.5100000000029827, -0.9722685848346435 
3.520000000003004, -0.9713339098309467 
3.530000000003025, -0.9699811945811755 
3.540000000003046, -0.9681427491056205 
3.550000000003067, -0.965796471748573 
3.5600000000030882, -0.9629860742879618 
3.5700000000031094, -0.9598191793019033 
3.5800000000031305, -0.9564461838223071 
3.5900000000031516, -0.9530357443456674 
3.6000000000031727, -0.9497584291009457 
3.6100000000031938, -0.9467768708729591 
3.620000000003215, -0.9442333579697431 
3.630000000003236, -0.9422290938698286 
3.640000000003257, -0.9407999994901234 
3.650000000003278, -0.9399038655535034 
3.6600000000032993, -0.9394320247107691 
3.6700000000033204, -0.9392427674770272 
3.6800000000033415, -0.9391979447654988 
3.6900000000033626, -0.9391848500866153 
3.7000000000033837, -0.939119223967848 
3.710000000003405, -0.938936700489081 
3.720000000003426, -0.9385824140760924 
3.730000000003447, -0.9380056793195649 
3.740000000003468, -0.9371629847372362 
3.750000000003489, -0.9360282565923365 
3.7600000000035103, -0.9346041808831318 
3.7700000000035314, -0.932926002955497 
3.7800000000035525, -0.9310541902302708 
3.7900000000035736, -0.9290612859190539 
3.8000000000035947, -0.9270217205407751 
3.810000000003616, -0.9250085772620877 
3.820000000003637, -0.9230947921006465 
3.830000000003658, -0.9213536118319677 
3.840000000003679, -0.9198543501068654 
3.8500000000037002, -0.9186525079007083 
3.8600000000037213, -0.9177769372000861 
3.8700000000037424, -0.9172198842914968 
3.8800000000037635, -0.9169361940002572 
3.8900000000037847, -0.9168536944712846 
3.9000000000038058, -0.9168899708750521 
3.910000000003827, -0.9169673265322494 
3.920000000003848, -0.9170206761431683 
3.930000000003869, -0.9169988704944331 
3.94000000000389, -0.916863422556701 
3.9500000000039113, -0.9165881857400435 
3.9600000000039324, -0.9161606520766427 
3.9700000000039535, -0.915582661396783 
3.9800000000039746, -0.9148679737655051 
3.9900000000039957, -0.9140369669581714 
4.000000000004016, -0.9131117409432438 
4.010000000003993, -0.912114699320329 
4.02000000000397, -0.911070748886266 
4.030000000003946, -0.910010891830124 
4.040000000003923, -0.908974735600513 
4.0500000000039, -0.9080102524062805 
4.0600000000038765, -0.9071698775322542 
4.070000000003853, -0.9065029863258488 
4.08000000000383, -0.9060463437299514 
4.090000000003807, -0.9058156017472273 
4.100000000003783, -0.9058011430438908 
4.11000000000376, -0.9059701024818934 
4.120000000003737, -0.9062738565180111 
4.130000000003713, -0.9066579820849544 
4.14000000000369, -0.9070710972443529 
4.150000000003667, -0.9074703861466927 
4.1600000000036434, -0.9078235653461251 
4.17000000000362, -0.908108024149675 
4.180000000003597, -0.9083079379416679 
4.1900000000035735, -0.9084105154834233 
4.20000000000355, -0.9084034490283918 
4.210000000003527, -0.908275593734895 
4.220000000003504, -0.9080208237822482 
4.23000000000348, -0.9076425483539093 
4.240000000003457, -0.9071563118102383 
4.250000000003434, -0.9065902601924739 
4.26000000000341, -0.9059850737378087 
4.270000000003387, -0.9053942186793252 
4.280000000003364, -0.9048830344843732 
4.2900000000033405, -0.9045237206963677 
4.300000000003317, -0.9043846621975019 
4.310000000003294, -0.9045165174979098 
4.320000000003271, -0.9049409558796725 
4.330000000003247, -0.9056472950670423 
4.340000000003224, -0.9065978047922819 
4.350000000003201, -0.9077380136777894 
4.360000000003177, -0.9090069457638574 
4.370000000003154, -0.9103435565300287 
4.380000000003131, -0.9116881431264263 
4.390000000003107, -0.9129801995207604 
4.400000000003084, -0.9141565742869645 
4.410000000003061, -0.9151545783231724 
4.4200000000030375, -0.9159218199026691 
4.430000000003014, -0.916428409377205 
4.440000000002991, -0.9166733774647078 
4.450000000002968, -0.9166810587103269 
4.460000000002944, -0.9164913124951409 
4.470000000002921, -0.9161513198625997 
4.480000000002898, -0.9157141585727491 
4.490000000002874, -0.9152446802647297 
4.500000000002851, -0.9148293330473596 
4.510000000002828, -0.9145832560656679 
4.520000000002804, -0.9146458639081521 
4.530000000002781, -0.9151590956393942 
4.540000000002758, -0.9162329931809505 
4.5500000000027345, -0.9179145846087378 
4.560000000002711, -0.9201757522491407 
4.570000000002688, -0.9229222073934148 
4.580000000002665, -0.9260124343243659 
4.590000000002641, -0.9292743214857987 
4.600000000002618, -0.9325164371040945 
4.610000000002595, -0.9355411953605177 
4.620000000002571, -0.9381693458173375 
4.630000000002548, -0.9402743931282188 
4.640000000002525, -0.9418092034553711 
4.6500000000025015, -0.9428052461767044 
4.660000000002478, -0.9433446631252863 
4.670000000002455, -0.9435247442013484 
4.6800000000024315, -0.943433622805172 
4.690000000002408, -0.9431431226226158 
4.700000000002385, -0.9427160035287188 
4.710000000002362, -0.9422239022627477 
4.720000000002338, -0.9417731678899667 
4.730000000002315, -0.9415323117110181 
4.740000000002292, -0.9417452342602435 
4.750000000002268, -0.9427068816206688 
4.760000000002245, -0.9446899316061094 
4.770000000002222, -0.9478469645780375 
4.7800000000021985, -0.9521402570160225 
4.790000000002175, -0.9573343960359596 
4.800000000002152, -0.9630430171546495 
4.810000000002129, -0.968800583128407 
4.820000000002105, -0.974143827474309 
4.830000000002082, -0.9786993752111233 
4.840000000002059, -0.9822584802124471 
4.850000000002035, -0.9848011708644802 
4.860000000002012, -0.9864528642446484 
4.870000000001989, -0.9874039373418885 
4.880000000001965, -0.9878402980638127 
4.890000000001942, -0.9879087225350492 
4.900000000001919, -0.9877125298146859 
4.9100000000018955, -0.9873248595768246 
4.920000000001872, -0.9868123338380397 
4.930000000001849, -0.9862685858527463 
