t, s[1].omega / s[0].omega 
0, -1.5099964467925704 
0.009999999999999995, -1.5093830095750553 
0.019999999999999934, -1.508256164365272 
0.029999999999999874, -1.506609265216149 
0.04000000000000012, -1.5044325011426447 
0.050000000000000405, -1.5017151133328694 
0.06000000000000069, -1.4984492527421875 
0.07000000000000098, -1.4946387294876724 
0.08000000000000126, -1.4903214719862385 
0.09000000000000155, -1.4856177542897318 
0.10000000000000184, -1.4808001364922323 
0.11000000000000212, -1.4763306752102248 
0.12000000000000241, -1.4727631914760415 
0.130000000000002, -1.4704813995029942 
0.1400000000000009, -1.4694615754219895 
0.1499999999999998, -1.4693068001689154 
0.1599999999999987, -1.4695051884900265 
0.1699999999999976, -1.4696426230609687 
0.1799999999999965, -1.469440680913298 
0.1899999999999954, -1.4686801106253806 
0.1999999999999943, -1.4670873054760523 
0.2099999999999932, -1.4641954679554081 
0.2199999999999921, -1.45913502445181 
0.229999999999991, -1.4502600191714843 
0.2399999999999899, -1.4344604606029663 
0.2499999999999888, -1.4059851934963217 
0.2599999999999877, -1.354861391509111 
0.2699999999999866, -1.2662739720111487 
0.2799999999999855, -1.1249886497723538 
0.2899999999999844, -0.9285126598092851 
0.2999999999999833, -0.7003404411197031 
0.3099999999999822, -0.4837715758486186 
0.3199999999999811, -0.31449331650348117 
0.32999999999998, -0.20043142966754182 
0.3399999999999789, -0.12954799289755545 
0.3499999999999778, -0.08650983712745575 
0.35999999999997667, -0.06008801563817297 
0.36999999999997557, -0.04343475261252245 
0.37999999999997447, -0.03261487230685772 
0.38999999999997337, -0.02538245353422727 
0.39999999999997227, -0.020436904130781055 
0.40999999999997117, -0.017009677247376488 
0.41999999999997006, -0.014639544800932333 
0.42999999999996896, -0.013050132299184388 
0.43999999999996786, -0.012083091748398769 
0.44999999999996676, -0.011662754883989882 
0.45999999999996566, -0.011780255257550654 
0.46999999999996456, -0.012492007137232669 
0.47999999999996346, -0.013932129507295731 
0.48999999999996235, -0.01634294932358512 
0.49999999999996125, -0.02013409521948229 
0.5099999999999602, -0.025991779144191603 
0.519999999999959, -0.035080574347799084 
0.529999999999958, -0.04941791048984377 
0.5399999999999568, -0.0725611447714805 
0.5499999999999557, -0.11078982982436288 
0.5599999999999546, -0.1747416059364217 
0.5699999999999535, -0.28012633185394603 
0.5799999999999524, -0.442912258594117 
0.5899999999999513, -0.664802737223508 
0.5999999999999502, -0.9202971323615374 
0.6099999999999491, -1.163711420748918 
0.619999999999948, -1.353056269664468 
0.6299999999999469, -1.4750268148888654 
0.6399999999999458, -1.543924315860696 
0.6499999999999447, -1.5804194512308611 
0.6599999999999436, -1.5993872824190618 
0.6699999999999425, -1.609236315753294 
0.6799999999999414, -1.6143103162417207 
0.6899999999999403, -1.6167987511850848 
0.6999999999999392, -1.6178101989216394 
0.7099999999999381, -1.6179229033981832 
0.719999999999937, -1.6174744537864907 
0.7299999999999359, -1.6167349786079541 
0.7399999999999348, -1.616015781288898 
0.7499999999999337, -1.6156858605979758 
0.7599999999999326, -1.6160498560091265 
0.7699999999999315, -1.617167524102697 
0.7799999999999304, -1.6188217740040902 
0.7899999999999293, -1.6206857503234426 
0.7999999999999282, -1.6224998395977157 
0.8099999999999271, -1.6241176419720629 
0.819999999999926, -1.625459754443238 
0.8299999999999249, -1.6264638950567138 
0.8399999999999238, -1.6270652377493773 
0.8499999999999227, -1.6271938973105282 
0.8599999999999216, -1.6267723724878516 
0.8699999999999205, -1.6257090956977607 
0.8799999999999194, -1.6238909357816003 
0.8899999999999183, -1.6211761037800119 
0.8999999999999172, -1.6173861016440523 
0.9099999999999161, -1.6122948425477563 
0.919999999999915, -1.6056161068689037 
0.9299999999999139, -1.5969995962220438 
0.9399999999999128, -1.5860675809087534 
0.9499999999999117, -1.5725645103876444 
0.9599999999999106, -1.5567232291185782 
0.9699999999999095, -1.5398308636604585 
0.9799999999999084, -1.5244847911400699 
0.9899999999999073, -1.5135876784959208 
0.9999999999999062, -1.508322525360833 
1.0099999999999052, -1.5074138497546794 
1.019999999999904, -1.5085859686436094 
1.029999999999903, -1.510141333950925 
1.039999999999902, -1.5112929096658154 
1.0499999999999008, -1.511799892866579 
1.0599999999998997, -1.5115998096711643 
1.0699999999998986, -1.510600302251266 
1.0799999999998975, -1.5085610697352594 
1.0899999999998964, -1.5049901911886916 
1.0999999999998953, -1.499039848490535 
1.1099999999998942, -1.4895450828025518 
1.119999999999893, -1.4758171981310173 
1.129999999999892, -1.4606913366369825 
1.1399999999998909, -1.456798979414064 
1.1499999999998898, -1.489122388980858 
1.1599999999998887, -1.5757320901896872 
1.1699999999998876, -1.6951305966732277 
1.1799999999998865, -1.8012949437458197 
1.1899999999998854, -1.8727004155398803 
1.1999999999998843, -1.914731742153513 
1.2099999999998832, -1.9383973615401957 
1.219999999999882, -1.9515888964015573 
1.229999999999881, -1.9588716788215454 
1.2399999999998799, -1.9627515892791982 
1.2499999999998788, -1.964599523257992 
1.2599999999998777, -1.9651731394215364 
1.2699999999998766, -1.9649015778761767 
1.2799999999998755, -1.9640460771379433 
1.2899999999998744, -1.9627860026629624 
1.2999999999998733, -1.9612443770199302 
1.3099999999998722, -1.9594868579866953 
1.319999999999871, -1.9575765832012983 
1.32999999999987, -1.9557075615573278 
1.3399999999998689, -1.9542468252844756 
1.3499999999998678, -1.9534890715232152 
1.3599999999998666, -1.9533410150881192 
1.3699999999998655, -1.9533814413536237 
1.3799999999998644, -1.9531587412835556 
1.3899999999998633, -1.9522884797250872 
1.3999999999998622, -1.9502897579656193 
1.4099999999998611, -1.946236931513647 
1.41999999999986, -1.938097281126307 
1.429999999999859, -1.9214161510381207 
1.4399999999998578, -1.8876527529514573 
1.4499999999998567, -1.8286907646358794 
1.4599999999998556, -1.7701863605288444 
1.4699999999998545, -1.8108137180328305 
1.4799999999998534, -1.9957413391978143 
1.4899999999998523, -2.18232139455819 
1.4999999999998512, -2.283050885641172 
1.5099999999998501, -2.327255278892474 
1.519999999999849, -2.346540817673476 
1.529999999999848, -2.3552287255829456 
1.5399999999998468, -2.3590999659134924 
1.5499999999998457, -2.3605577823881285 
1.5599999999998446, -2.3606525944305545 
1.5699999999998435, -2.359864999511475 
1.5799999999998424, -2.358419301831603 
1.5899999999998413, -2.356383733811376 
1.5999999999998402, -2.353715161709373 
1.6099999999998391, -2.35050473246686 
1.619999999999838, -2.347454464589306 
1.629999999999837, -2.345714290437288 
1.6399999999998358, -2.345537616967009 
1.6499999999998347, -2.3459633640885804 
1.6599999999998336, -2.346043577407709 
1.6699999999998325, -2.3452772458287017 
1.6799999999998314, -2.343205114892388 
1.6899999999998303, -2.3390633993915224 
1.6999999999998292, -2.3323364775824977 
1.709999999999828, -2.326640941670808 
1.719999999999827, -2.333666314291972 
1.729999999999826, -2.356105878778319 
1.7399999999998248, -2.3790271964544636 
1.7499999999998237, -2.3943337775141424 
1.7599999999998226, -2.403199910491236 
1.7699999999998215, -2.4081257655427697 
1.7799999999998204, -2.410687621939015 
1.7899999999998193, -2.4116849905056994 
1.7999999999998182, -2.4114637652772517 
1.809999999999817, -2.410076573842328 
1.819999999999816, -2.407307655231327 
1.8299999999998149, -2.4025755865923597 
1.8399999999998138, -2.3946921997022708 
1.8499999999998127, -2.381643150771489 
1.8599999999998116, -2.3617443268880227 
1.8699999999998105, -2.33941518004845 
1.8799999999998094, -2.327967358249277 
1.8899999999998083, -2.330264262814578 
1.8999999999998072, -2.3358869554124775 
1.909999999999806, -2.339519753782234 
1.919999999999805, -2.3410486341959076 
1.9299999999998039, -2.341181165311571 
1.9399999999998028, -2.340379305652711 
1.9499999999998017, -2.3390713369262395 
1.9599999999998006, -2.338123703730531 
1.9699999999997995, -2.338707634781005 
1.9799999999997984, -2.3409620870402916 
1.9899999999997973, -2.3437117075714435 
1.9999999999997962, -2.3459706800794824 
2.0099999999998173, -2.347512064558448 
2.0199999999998384, -2.3483981786723023 
2.0299999999998595, -2.3486242746928796 
2.0399999999998806, -2.3480406234147964 
2.0499999999999017, -2.3462955037455195 
2.059999999999923, -2.342630713147895 
2.069999999999944, -2.3353726288186203 
2.079999999999965, -2.320676569317558 
2.089999999999986, -2.2893683145591934 
2.100000000000007, -2.2203808509799994 
2.1100000000000283, -2.0813991293710687 
2.1200000000000494, -1.895710216985647 
2.1300000000000705, -1.7979470396327102 
2.1400000000000916, -1.821535562563372 
2.1500000000001127, -1.8752553988135523 
2.160000000000134, -1.9112011388401793 
2.170000000000155, -1.9295111806148326 
2.180000000000176, -1.938165781073335 
2.190000000000197, -1.9421037634798368 
2.2000000000002182, -1.943684953344214 
2.2100000000002393, -1.943988204611994 
2.2200000000002604, -1.9435468815545183 
2.2300000000002815, -1.9427414850570692 
2.2400000000003026, -1.9420176229802717 
2.2500000000003237, -1.941868590507406 
2.260000000000345, -1.9425318502314082 
2.270000000000366, -1.943782272520257 
2.280000000000387, -1.9451846509582933 
2.290000000000408, -1.9464438589485062 
2.3000000000004293, -1.9474544774114961 
2.3100000000004504, -1.9481661838256235 
2.3200000000004715, -1.9484909172183922 
2.3300000000004926, -1.94828884908198 
2.3400000000005137, -1.9473591632465082 
2.3500000000005348, -1.9453885388791805 
2.360000000000556, -1.9418485204734772 
2.370000000000577, -1.935823150376262 
2.380000000000598, -1.925711605260145 
2.390000000000619, -1.9087122536113204 
2.4000000000006403, -1.8800404333809897 
2.4100000000006614, -1.83240726457413 
2.4200000000006825, -1.7586445452917034 
2.4300000000007036, -1.6632903368294443 
2.4400000000007247, -1.5751793951495041 
2.450000000000746, -1.5265303536747379 
2.460000000000767, -1.5177268719850654 
2.470000000000788, -1.5274638110962424 
2.480000000000809, -1.5395089401532298 
2.49000000000083, -1.548369920317519 
2.5000000000008513, -1.553815270750529 
2.5100000000008724, -1.5568215938391579 
2.5200000000008935, -1.558235155373436 
2.5300000000009146, -1.5585711184067446 
2.5400000000009357, -1.558086094100064 
2.550000000000957, -1.556882130700338 
2.560000000000978, -1.555034870934054 
2.570000000000999, -1.552822207259368 
2.58000000000102, -1.551112596673642 
2.5900000000010412, -1.5516780539039288 
2.6000000000010624, -1.5566512455083181 
2.6100000000010835, -1.5668125470127037 
2.6200000000011046, -1.5805211736609548 
2.6300000000011257, -1.594949830445001 
2.6400000000011468, -1.607968498397078 
2.650000000001168, -1.6187156676394923 
2.660000000001189, -1.627167439756364 
2.67000000000121, -1.6336241392481976 
2.680000000001231, -1.6384333281176957 
2.6900000000012523, -1.6418939328059259 
2.7000000000012734, -1.6442411530022343 
2.7100000000012945, -1.6456560186035667 
2.7200000000013156, -1.646278046414988 
2.7300000000013367, -1.6462152579357419 
2.740000000001358, -1.6455516853917742 
2.750000000001379, -1.6443540096177138 
2.7600000000014, -1.6426778657071084 
2.770000000001421, -1.6405723118496525 
2.780000000001442, -1.638083046374328 
2.7900000000014633, -1.6352660837211828 
2.8000000000014844, -1.632232643690744 
2.8100000000015055, -1.6292200386391187 
2.8200000000015266, -1.6266113308640349 
2.8300000000015477, -1.6247947499549533 
2.840000000001569, -1.6239074108906577 
2.85000000000159, -1.6237248724763753 
2.860000000001611, -1.623825477907394 
2.870000000001632, -1.6238143188607967 
2.8800000000016532, -1.623392608556216 
2.8900000000016743, -1.6222814500342515 
2.9000000000016954, -1.6200739984140602 
2.9100000000017165, -1.6160137734843076 
2.9200000000017377, -1.6085994662978198 
2.9300000000017588, -1.5948042666933848 
2.94000000000178, -1.5685736329586673 
2.950000000001801, -1.518445364245371 
2.960000000001822, -1.425997422496444 
2.970000000001843, -1.2718344905958041 
2.9800000000018643, -1.0534599431780527 
2.9900000000018854, -0.7934335461866517 
3.0000000000019065, -0.5258189270351371 
3.0100000000019276, -0.291082037454498 
3.0200000000019487, -0.12098090838210171 
3.03000000000197, -0.015450054378201442 
3.040000000001991, 0.04489490933346226 
3.050000000002012, 0.07912075553661556 
3.060000000002033, 0.09901882108256024 
3.070000000002054, 0.11095859007596758 
3.0800000000020753, 0.11832792456241496 
3.0900000000020964, 0.12295576477285818 
3.1000000000021175, 0.12585706261918966 
3.1100000000021386, 0.12760914297216322 
3.1200000000021597, 0.12854275481993108 
3.130000000002181, 0.12883997214551796 
3.140000000002202, 0.12858323683105874 
3.150000000002223, 0.12777615647342447 
3.160000000002244, 0.1263443876098564 
3.1700000000022652, 0.12411725502496708 
3.1800000000022863, 0.12078381142813609 
3.1900000000023074, 0.11580795929078884 
3.2000000000023285, 0.10827382893285334 
3.2100000000023496, 0.09661765819341483 
3.2200000000023707, 0.07821842309957619 
3.230000000002392, 0.04903026821339677 
3.240000000002413, 0.004434652079571737 
3.250000000002434, -0.05404078077629264 
3.260000000002455, -0.10232695211764284 
3.2700000000024763, -0.0720506539226505 
3.2800000000024974, 0.1053569471811737 
3.2900000000025185, 0.3537488398767948 
3.3000000000025396, 0.521592501161021 
3.3100000000025607, 0.5999229757395168 
3.3200000000025818, 0.6341711503425892 
3.330000000002603, 0.6499858968595676 
3.340000000002624, 0.6578125466812318 
3.350000000002645, 0.6618786060232489 
3.360000000002666, 0.664020211554799 
3.3700000000026873, 0.665106475721678 
3.3800000000027084, 0.6655879823936317 
3.3900000000027295, 0.6657234149157496 
3.4000000000027506, 0.66568016952921 
3.4100000000027717, 0.6655815373247529 
3.420000000002793, 0.6655288717927342 
3.430000000002814, 0.6656102011284977 
3.440000000002835, 0.6658998299904335 
3.450000000002856, 0.6664509915043138 
3.460000000002877, 0.6672839293674178 
3.4700000000028983, 0.6683740879370551 
3.4800000000029194, 0.6696473738115818 
3.4900000000029405, 0.6709883426311647 
3.5000000000029616, 0.6722608023158745 
3.5100000000029827, 0.673332046060885 
3.520000000003004, 0.6740884474167138 
3.530000000003025, 0.6744340484909446 
3.540000000003046, 0.6742700285194594 
3.550000000003067, 0.6734542004951011 
3.5600000000030882, 0.6717316849172972 
3.5700000000031094, 0.6686071658200488 
3.5800000000031305, 0.6630850971369018 
3.5900000000031516, 0.6531145588863471 
3.6000000000031727, 0.6344529277427462 
3.6100000000031938, 0.5989758695082937 
3.620000000003215, 0.535873050453546 
3.630000000003236, 0.4476137667983502 
3.640000000003257, 0.36992031158158906 
3.650000000003278, 0.3341964787333301 
3.6600000000032993, 0.330605006869408 
3.6700000000033204, 0.3383693635229906 
3.6800000000033415, 0.34700054848837325 
3.6900000000033626, 0.35367335216549023 
3.7000000000033837, 0.35827713842245806 
3.710000000003405, 0.36128051876360523 
3.720000000003426, 0.3631258600248886 
3.730000000003447, 0.36411999384705945 
3.740000000003468, 0.36444452040691605 
3.750000000003489, 0.3641792989712655 
3.7600000000035103, 0.363313377976446 
3.7700000000035314, 0.36173600238022235 
3.7800000000035525, 0.35919927006163505 
3.7900000000035736, 0.35523332365566296 
3.8000000000035947, 0.34897205339232823 
3.810000000003616, 0.33880369383280506 
3.820000000003637, 0.3217011245707601 
3.830000000003658, 0.29216344312383163 
3.840000000003679, 0.24190027438243972 
3.8500000000037002, 0.1672205228565889 
3.8600000000037213, 0.1005777471438719 
3.8700000000037424, 0.14354460435323776 
3.8800000000037635, 0.35286173133631893 
3.8900000000037847, 0.5702798273877601 
3.9000000000038058, 0.6840316340156034 
3.910000000003827, 0.7317487392167814 
3.920000000003848, 0.752227969069392 
3.930000000003869, 0.761720175315548 
3.94000000000389, 0.7663935871924048 
3.9500000000039113, 0.7687353532845863 
3.9600000000039324, 0.76984326505493 
3.9700000000039535, 0.7702494408782231 
3.9800000000039746, 0.7702390351586311 
3.9900000000039957, 0.7699839694552079 
4.000000000004016, 0.769602532850774 
4.010000000003993, 0.7691858610417359 
4.02000000000397, 0.768807708597573 
4.030000000003946, 0.7685251023598461 
4.040000000003923, 0.7683744978384048 
4.0500000000039, 0.7683671425778238 
4.0600000000038765, 0.7684867130309624 
4.070000000003853, 0.7686910524918832 
4.08000000000383, 0.7689178189890841 
4.090000000003807, 0.7690916005078592 
4.100000000003783, 0.769128472233014 
4.11000000000376, 0.7689334122757837 
4.120000000003737, 0.7683854446780826 
4.130000000003713, 0.7673021657367921 
4.14000000000369, 0.7653642617501198 
4.150000000003667, 0.7619494061443549 
4.1600000000036434, 0.7557375476935986 
4.17000000000362, 0.7436964562396912 
4.180000000003597, 0.7183508562749018 
4.1900000000035735, 0.6610728234793896 
4.20000000000355, 0.5359437011171201 
4.210000000003527, 0.3403713127897058 
4.220000000003504, 0.19901355854438746 
4.23000000000348, 0.18378740452768327 
4.240000000003457, 0.22576363297380045 
4.250000000003434, 0.26758989334044764 
4.26000000000341, 0.29587395012820467 
4.270000000003387, 0.3131506261467874 
4.280000000003364, 0.3235224138685092 
4.2900000000033405, 0.3297859863435238 
4.300000000003317, 0.33357327237435286 
4.310000000003294, 0.3358030677970138 
4.320000000003271, 0.33698782592352294 
4.330000000003247, 0.33740428097573943 
4.340000000003224, 0.3371810249874552 
4.350000000003201, 0.3363375742803005 
4.360000000003177, 0.3347913064718683 
4.370000000003154, 0.33233611345677866 
4.380000000003131, 0.3285869389142381 
4.390000000003107, 0.3228770986765581 
4.400000000003084, 0.314103105660084 
4.410000000003061, 0.30060458373524057 
4.4200000000030375, 0.2806316343140387 
4.430000000003014, 0.25559639151037283 
4.440000000002991, 0.24102703540035808 
4.450000000002968, 0.28015979993735146 
4.460000000002944, 0.40460733186568787 
4.470000000002921, 0.5488939397422434 
4.480000000002898, 0.6402609723571322 
4.490000000002874, 0.6845806926699749 
4.500000000002851, 0.7052313694443895 
4.510000000002828, 0.7152268976477492 
4.520000000002804, 0.7202532038007059 
4.530000000002781, 0.7227726257051362 
4.540000000002758, 0.7239061899043107 
4.5500000000027345, 0.7241969129382921 
4.560000000002711, 0.7239273254941473 
4.570000000002688, 0.7232611372251003 
4.580000000002665, 0.7223116071287474 
4.590000000002641, 0.7211755403208083 
4.600000000002618, 0.7199475044442061 
4.610000000002595, 0.718720447878057 
4.620000000002571, 0.7175775702638558 
4.630000000002548, 0.7165812035018885 
4.640000000002525, 0.7157642691425491 
4.6500000000025015, 0.7151274853941537 
4.660000000002478, 0.714642169707938 
4.670000000002455, 0.7142560914151028 
4.6800000000024315, 0.713899042628085 
4.690000000002408, 0.7134849325959219 
4.700000000002385, 0.7129071106568291 
4.710000000002362, 0.7120220728520323 
4.720000000002338, 0.710611770298313 
4.730000000002315, 0.7083015702855795 
4.740000000002292, 0.7043757225261646 
4.750000000002268, 0.6973334038603701 
4.760000000002245, 0.6837383713233566 
4.770000000002222, 0.6550879794225171 
4.7800000000021985, 0.5899288216929891 
4.790000000002175, 0.44547293822429357 
4.800000000002152, 0.2125733318731094 
4.810000000002129, 0.0306486463007541 
4.820000000002105, -0.002035605318340842 
4.830000000002082, 0.04699264102256898 
4.840000000002059, 0.10445788425766211 
4.850000000002035, 0.14608962542460244 
4.860000000002012, 0.1723101547764015 
4.870000000001989, 0.18826907479961658 
4.880000000001965, 0.19801563663313757 
4.890000000001942, 0.20403634626713868 
4.900000000001919, 0.20776540796698365 
4.9100000000018955, 0.21002200847375607 
4.920000000001872, 0.21127358515321312 
4.930000000001849, 0.21178006236270888 
4.940000000001826, 0.21166900394823635 
4.950000000001802, 0.2109704064209004 
4.960000000001779, 0.20962445799457505 
