t, s[1].omega / s[0].omega 
0, -0.49999775801002216 
0.009999999999999995, -0.49980059913364017 
0.019999999999999934, -0.49964759838724576 
0.029999999999999874, -0.49951432290401987 
0.04000000000000012, -0.49937017587040095 
0.050000000000000405, -0.49918808970228906 
0.06000000000000069, -0.49895064360038954 
0.07000000000000098, -0.49865107712193807 
0.08000000000000126, -0.49829092159226046 
0.09000000000000155, -0.497877150706016 
0.10000000000000184, -0.4974209985471568 
0.11000000000000212, -0.4969395022851515 
0.12000000000000241, -0.49646036977164315 
0.130000000000002, -0.49603084100987305 
0.1400000000000009, -0.49573096235592884 
0.1499999999999998, -0.49568928103126186 
0.1599999999999987, -0.496090422950939 
0.1699999999999976, -0.49714333057551235 
0.1799999999999965, -0.49894981245053793 
0.1899999999999954, -0.5012342254762251 
0.1999999999999943, -0.5031120015150551 
0.2099999999999932, -0.5034094755750413 
0.2199999999999921, -0.5016507885364655 
0.229999999999991, -0.4985774597264875 
0.2399999999999899, -0.49541517114063777 
0.2499999999999888, -0.492946340622282 
0.2599999999999877, -0.4913374220534491 
0.2699999999999866, -0.49042487672258595 
0.2799999999999855, -0.4899744110021712 
0.2899999999999844, -0.4897928836497387 
0.2999999999999833, -0.48974908712082266 
0.3099999999999822, -0.4897619161023254 
0.3199999999999811, -0.4897834560635791 
0.32999999999998, -0.4897855479016834 
0.3399999999999789, -0.4897510658765702 
0.3499999999999778, -0.48966925438095243 
0.35999999999997667, -0.48953435849292 
0.36999999999997557, -0.4893468212218954 
0.37999999999997447, -0.4891158038414346 
0.38999999999997337, -0.48886077312677695 
0.39999999999997227, -0.4886094579787822 
0.40999999999997117, -0.48839097878043675 
0.41999999999997006, -0.4882261121884087 
0.42999999999996896, -0.4881190654261559 
0.43999999999996786, -0.48805488308481826 
0.44999999999996676, -0.4880040374472895 
0.45999999999996566, -0.48793219654748554 
0.46999999999996456, -0.48781035829528757 
0.47999999999996346, -0.4876206801344539 
0.48999999999996235, -0.4873566373055742 
0.49999999999996125, -0.48701963335585485 
0.5099999999999602, -0.48661519572919715 
0.519999999999959, -0.48615081430856844 
0.529999999999958, -0.48563615191888704 
0.5399999999999568, -0.4850857111633108 
0.5499999999999557, -0.4845237914988556 
0.5599999999999546, -0.48399062851931784 
0.5699999999999535, -0.48354485236378686 
0.5799999999999524, -0.48324705926473344 
0.5899999999999513, -0.4830900191672223 
0.5999999999999502, -0.48283264831616607 
0.6099999999999491, -0.4817864305830276 
0.619999999999948, -0.47888917034584966 
0.6299999999999469, -0.4734819637439952 
0.6399999999999458, -0.4662262797721747 
0.6499999999999447, -0.4587916429777059 
0.6599999999999436, -0.45258356028654695 
0.6699999999999425, -0.4480901765830548 
0.6799999999999414, -0.4451318610059394 
0.6899999999999403, -0.4433040576783065 
0.6999999999999392, -0.4422273767948145 
0.7099999999999381, -0.4416211560916909 
0.719999999999937, -0.4412985775106971 
0.7299999999999359, -0.44114178672664234 
0.7399999999999348, -0.4410786340849834 
0.7499999999999337, -0.44106594476127414 
0.7599999999999326, -0.44107888148169483 
0.7699999999999315, -0.44110494477441364 
0.7799999999999304, -0.4411412958396272 
0.7899999999999293, -0.44119419504786733 
0.7999999999999282, -0.44127907455767473 
0.8099999999999271, -0.44141931574955906 
0.819999999999926, -0.4416418535779415 
0.8299999999999249, -0.4419688843754093 
0.8399999999999238, -0.4424070776681547 
0.8499999999999227, -0.44293808377892746 
0.8599999999999216, -0.44351583542729145 
0.8699999999999205, -0.4440750717928609 
0.8799999999999194, -0.44454947331960576 
0.8899999999999183, -0.4448900070784042 
0.8999999999999172, -0.44507316298571215 
0.9099999999999161, -0.4450967791503774 
0.919999999999915, -0.444969154566457 
0.9299999999999139, -0.44469801621809635 
0.9399999999999128, -0.4442819917617937 
0.9499999999999117, -0.44370354911644394 
0.9599999999999106, -0.4429204862356143 
0.9699999999999095, -0.4418520170398851 
0.9799999999999084, -0.4403545024991038 
0.9899999999999073, -0.4381826638511619 
0.9999999999999062, -0.43494321308719613 
1.0099999999999052, -0.4300885211531925 
1.019999999999904, -0.4230714408318331 
1.029999999999903, -0.413765152865079 
1.039999999999902, -0.40290390241985363 
1.0499999999999008, -0.39193359214855605 
1.0599999999998997, -0.38222013758242285 
1.0699999999998986, -0.3744360253538476 
1.0799999999998975, -0.3685862309873479 
1.0899999999998964, -0.36434363958421534 
1.0999999999998953, -0.3613182404065869 
1.1099999999998942, -0.35917737172864367 
1.119999999999893, -0.3576729451805034 
1.129999999999892, -0.3566321174924297 
1.1399999999998909, -0.35593989160874506 
1.1499999999998898, -0.3555238540667679 
1.1599999999998887, -0.3553434241717871 
1.1699999999998876, -0.3553834510084372 
1.1799999999998865, -0.3556514948388053 
1.1899999999998854, -0.35617822136339966 
1.1999999999998843, -0.3570203955353228 
1.2099999999998832, -0.35826555707447255 
1.219999999999882, -0.3600359807149576 
1.229999999999881, -0.36248596296642416 
1.2399999999998799, -0.36577996739684865 
1.2499999999998788, -0.37003247698004527 
1.2599999999998777, -0.3751987667562312 
1.2699999999998766, -0.3809580010546509 
1.2799999999998755, -0.3867132964516794 
1.2899999999998744, -0.3918071598445736 
1.2999999999998733, -0.3958213470182822 
1.3099999999998722, -0.39869471671118784 
1.319999999999871, -0.4006084087348376 
1.32999999999987, -0.4018120769198842 
1.3399999999998689, -0.4025205999472912 
1.3499999999998678, -0.40288536066265285 
1.3599999999998666, -0.40300062289686284 
1.3699999999998655, -0.4029176397334199 
1.3799999999998644, -0.4026564481494314 
1.3899999999998633, -0.402214281306462 
1.3999999999998622, -0.40157299748353237 
1.4099999999998611, -0.40070915923322226 
1.41999999999986, -0.39960964678907784 
1.429999999999859, -0.3982910946817347 
1.4399999999998578, -0.39681335114632316 
1.4499999999998567, -0.39527371212550266 
1.4599999999998556, -0.39377974984191677 
1.4699999999998545, -0.3924166649872064 
1.4799999999998534, -0.3912287515220233 
1.4899999999998523, -0.39022052377419925 
1.4999999999998512, -0.389369734827141 
1.5099999999998501, -0.3886425186978543 
1.519999999999849, -0.38800514968496025 
1.529999999999848, -0.387430933701456 
1.5399999999998468, -0.3869030093842249 
1.5499999999998457, -0.3864148549794072 
1.5599999999998446, -0.3859704479280811 
1.5699999999998435, -0.38558568079809546 
1.5799999999998424, -0.38529228727427806 
1.5899999999998413, -0.3851454609488808 
1.5999999999998402, -0.38523640189470987 
1.6099999999998391, -0.3857103109606087 
1.619999999999838, -0.3867862573662256 
1.629999999999837, -0.388761442993965 
1.6399999999998358, -0.3919482300952068 
1.6499999999998347, -0.39644445063045314 
1.6599999999998336, -0.40168611793651615 
1.6699999999998325, -0.4061384745558024 
1.6799999999998314, -0.40799235149120927 
1.6899999999998303, -0.40674504846964715 
1.6999999999998292, -0.403622356814315 
1.709999999999828, -0.400248823553181 
1.719999999999827, -0.3975361990005298 
1.729999999999826, -0.39566882204722637 
1.7399999999998248, -0.3944962809644528 
1.7499999999998237, -0.3938047273284818 
1.7599999999998226, -0.393418422676827 
1.7699999999998215, -0.3932161408080651 
1.7799999999998204, -0.39312076225528225 
1.7899999999998193, -0.39308550962625416 
1.7999999999998182, -0.3930833803948036 
1.809999999999817, -0.3931005421104893 
1.819999999999816, -0.3931330156972067 
1.8299999999998149, -0.3931857441617183 
1.8399999999998138, -0.39327294585028727 
1.8499999999998127, -0.3934182104713997 
1.8599999999998116, -0.39365242143465873 
1.8699999999998105, -0.3940078679940767 
1.8799999999998094, -0.39450814033251663 
1.8899999999998083, -0.39515543623885796 
1.8999999999998072, -0.3959196885271978 
1.909999999999806, -0.3967366363087569 
1.919999999999805, -0.3975207445390102 
1.9299999999998039, -0.3981899138114321 
1.9399999999998028, -0.3986882019698655 
1.9499999999998017, -0.3989934271130972 
1.9599999999998006, -0.3991089577915548 
1.9699999999997995, -0.39904872461237584 
1.9799999999997984, -0.39882364363097245 
1.9899999999997973, -0.3984317639706085 
1.9999999999997962, -0.39785020143769523 
2.0099999999998173, -0.3970255378147212 
2.0199999999998384, -0.39585971207502435 
2.0299999999998595, -0.39419085894167727 
2.0399999999998806, -0.3917769361910696 
2.0499999999999017, -0.3883105401507466 
2.059999999999923, -0.3835189211624852 
2.069999999999944, -0.3773761610570487 
2.079999999999965, -0.37030023944427803 
2.089999999999986, -0.36307680307630746 
2.100000000000007, -0.3564861642134255 
2.1100000000000283, -0.3509778331385983 
2.1200000000000494, -0.34663408766753623 
2.1300000000000705, -0.34331773727835263 
2.1400000000000916, -0.34082120868198623 
2.1500000000001127, -0.33894898838288773 
2.160000000000134, -0.337546576391743 
2.170000000000155, -0.3365031892363219 
2.180000000000176, -0.335745695286293 
2.190000000000197, -0.3352317452051451 
2.2000000000002182, -0.3349450277140673 
2.2100000000002393, -0.334893584861895 
2.2200000000002604, -0.33511160329617795 
2.2300000000002815, -0.3356651952671662 
2.2400000000003026, -0.33666290218707406 
2.2500000000003237, -0.3382714058443361 
2.260000000000345, -0.3407348538992804 
2.270000000000366, -0.3443890152739673 
2.280000000000387, -0.3496432126693073 
2.290000000000408, -0.3568711768721672 
2.3000000000004293, -0.36613976719077573 
2.3100000000004504, -0.37683106471438876 
2.3200000000004715, -0.3875451074597411 
2.3300000000004926, -0.39671191455252675 
2.3400000000005137, -0.40349084940366503 
2.3500000000005348, -0.4079943828008424 
2.360000000000556, -0.41081230827089693 
2.370000000000577, -0.41253544867605163 
2.380000000000598, -0.4135814782695674 
2.390000000000619, -0.4142055386999302 
2.4000000000006403, -0.41455432536788644 
2.4100000000006614, -0.41470973379223086 
2.4200000000006825, -0.4147154654155775 
2.4300000000007036, -0.41459200022377046 
2.4400000000007247, -0.4143455692596148 
2.450000000000746, -0.41397514845312805 
2.460000000000767, -0.4134800250735878 
2.470000000000788, -0.41286857862967696 
2.480000000000809, -0.41216599358304606 
2.49000000000083, -0.41141608138245156 
2.5000000000008513, -0.41067363927535006 
2.5100000000008724, -0.4099897161693759 
2.5200000000008935, -0.4093974744643985 
2.5300000000009146, -0.40890542806011015 
2.5400000000009357, -0.4084995590756463 
2.550000000000957, -0.4081516043021754 
2.560000000000978, -0.40782935603539194 
2.570000000000999, -0.4075050949144089 
2.58000000000102, -0.4071598501528647 
2.5900000000010412, -0.40678358110962476 
2.6000000000010624, -0.4063731350695406 
2.6100000000010835, -0.40593004920967274 
2.6200000000011046, -0.4054594599903895 
2.6300000000011257, -0.40497048316843715 
2.6400000000011468, -0.40447766531937307 
2.650000000001168, -0.4040017807995467 
2.660000000001189, -0.4035645321923476 
2.67000000000121, -0.40316224263604444 
2.680000000001231, -0.4026859715003138 
2.6900000000012523, -0.40174686284611044 
2.7000000000012734, -0.39945486255252244 
2.7100000000012945, -0.39451504782446833 
2.7200000000013156, -0.3861694640481404 
2.7300000000013367, -0.37538242565950464 
2.740000000001358, -0.36445048584534767 
2.750000000001379, -0.3552723531947425 
2.7600000000014, -0.3484750397199425 
2.770000000001421, -0.34379671277157275 
2.780000000001442, -0.34069787377933797 
2.7900000000014633, -0.3386840196449641 
2.8000000000014844, -0.33739137812955977 
2.8100000000015055, -0.3365761404663911 
2.8200000000015266, -0.3360823293805887 
2.8300000000015477, -0.33581349286873763 
2.840000000001569, -0.33571298414757955 
2.85000000000159, -0.3357517053580312 
2.860000000001611, -0.3359213185118265 
2.870000000001632, -0.33623127841652684 
2.8800000000016532, -0.33670837704222745 
2.8900000000016743, -0.3373974157411808 
2.9000000000016954, -0.3383609762709022 
2.9100000000017165, -0.3396749240470184 
2.9200000000017377, -0.3414143763464467 
2.9300000000017588, -0.34362402270357245 
2.94000000000178, -0.34627237310694925 
2.950000000001801, -0.34920905918054224 
2.960000000001822, -0.35216879153520914 
2.970000000001843, -0.3548523137605808 
2.9800000000018643, -0.3570424031617975 
2.9900000000018854, -0.35866553584288685 
3.0000000000019065, -0.3597664426680205 
3.0100000000019276, -0.3604426870080263 
3.0200000000019487, -0.36079230196844336 
3.03000000000197, -0.36088934994254324 
3.040000000001991, -0.3607782143806061 
3.050000000002012, -0.36047526096355537 
3.060000000002033, -0.3599719551572026 
3.070000000002054, -0.35923860982672146 
3.0800000000020753, -0.35823161147247773 
3.0900000000020964, -0.3569091339534926 
3.1000000000021175, -0.35525816322275977 
3.1100000000021386, -0.3533249010039536 
3.1200000000021597, -0.35122613557895804 
3.130000000002181, -0.3491222078911264 
3.140000000002202, -0.34716307996687296 
3.150000000002223, -0.3454444409816627 
3.160000000002244, -0.3439973383865608 
3.1700000000022652, -0.34280428142266 
3.1800000000022863, -0.34182286015930163 
3.1900000000023074, -0.34100478345494284 
3.2000000000023285, -0.3403073324270842 
3.2100000000023496, -0.33969857402167897 
3.2200000000023707, -0.33915873221129955 
3.230000000002392, -0.3386800093545795 
3.240000000002413, -0.3382667056158325 
3.250000000002434, -0.3379370139445106 
3.260000000002455, -0.3377275979324936 
3.2700000000024763, -0.33770198642640226 
3.2800000000024974, -0.33796341922202583 
3.2900000000025185, -0.33867030533368314 
3.3000000000025396, -0.3400431624125567 
3.3100000000025607, -0.34232594110806347 
3.3200000000025818, -0.34561588685129585 
3.330000000002603, -0.3494657919235009 
3.340000000002624, -0.3524460760030052 
3.350000000002645, -0.35253888763048236 
3.360000000002666, -0.3488714688195751 
3.3700000000026873, -0.34279481469093886 
3.3800000000027084, -0.336528860025771 
3.3900000000027295, -0.331440622213916 
3.4000000000027506, -0.3278152268880904 
3.4100000000027717, -0.3254058327108029 
3.420000000002793, -0.32386207438818554 
3.430000000002814, -0.32289482586794593 
3.440000000002835, -0.32230294439506835 
3.450000000002856, -0.3219568831945009 
3.460000000002877, -0.3217771545142328 
3.4700000000028983, -0.321717842708482 
3.4800000000029194, -0.3217560904542843 
3.4900000000029405, -0.32188632256098115 
3.5000000000029616, -0.32211784566177654 
3.5100000000029827, -0.3224745953345004 
3.520000000003004, -0.3229956579781218 
3.530000000003025, -0.3237346593976278 
3.540000000003046, -0.32475520856338835 
3.550000000003067, -0.32611850024815536 
3.5600000000030882, -0.32785911905211157 
3.5700000000031094, -0.3299499281855651 
3.5800000000031305, -0.33227129991931303 
3.5900000000031516, -0.33461623533947055 
3.6000000000031727, -0.33675144494043396 
3.6100000000031938, -0.3385033569863864 
3.620000000003215, -0.3398056202070387 
3.630000000003236, -0.3406833763991194 
3.640000000003257, -0.3412058086320053 
3.650000000003278, -0.34144543902399616 
3.6600000000032993, -0.3414570602005948 
3.6700000000033204, -0.3412710118705399 
3.6800000000033415, -0.3408926996452282 
3.6900000000033626, -0.34030392581330615 
3.7000000000033837, -0.3394658892836191 
3.710000000003405, -0.33832741361196705 
3.720000000003426, -0.3368440621658169 
3.730000000003447, -0.33501007253657333 
3.740000000003468, -0.33289092040032003 
3.750000000003489, -0.33062883328847253 
3.7600000000035103, -0.32840354198020216 
3.7700000000035314, -0.3263699032018338 
3.7800000000035525, -0.32461583800372906 
3.7900000000035736, -0.3231596538688809 
3.8000000000035947, -0.3219723935014756 
3.810000000003616, -0.3210037951028474 
3.820000000003637, -0.32020108197700897 
3.830000000003658, -0.31951930680572777 
3.840000000003679, -0.3189255127010272 
3.8500000000037002, -0.3183993832385455 
3.8600000000037213, -0.31793264648309866 
3.8700000000037424, -0.317528949430148 
3.8800000000037635, -0.31720542497779125 
3.8900000000037847, -0.3169968580766104 
3.9000000000038058, -0.31696307673279894 
3.910000000003827, -0.3171991241296076 
3.920000000003848, -0.3178434413027667 
3.930000000003869, -0.31906560645886717 
3.94000000000389, -0.32098228204987234 
3.9500000000039113, -0.3234066337361795 
3.9600000000039324, -0.32540740622474923 
3.9700000000039535, -0.32513970719460195 
3.9800000000039746, -0.32094802659430255 
3.9900000000039957, -0.3132590650736622 
4.000000000004016, -0.30447339738640145 
4.010000000003993, -0.2967962235807853 
4.02000000000397, -0.29105709151395454 
4.030000000003946, -0.2871099935812995 
4.040000000003923, -0.28450137534364295 
4.0500000000039, -0.28280727797738764 
4.0600000000038765, -0.2817189522953044 
4.070000000003853, -0.2810330513932953 
4.08000000000383, -0.28062257207404173 
4.090000000003807, -0.2804121115228114 
4.100000000003783, -0.28036134089498466 
4.11000000000376, -0.2804554428666176 
4.120000000003737, -0.2807006866289656 
4.130000000003713, -0.28112372086929466 
4.14000000000369, -0.28177343268800253 
4.150000000003667, -0.2827239273098127 
4.1600000000036434, -0.2840759066354241 
4.17000000000362, -0.2859507960218329 
4.180000000003597, -0.28846720729574493 
4.1900000000035735, -0.2916866769626658 
4.20000000000355, -0.2955293788997696 
4.210000000003527, -0.2997070730836502 
4.220000000003504, -0.3037657888151479 
4.23000000000348, -0.3072670486181174 
4.240000000003457, -0.3099735890100171 
4.250000000003434, -0.3118844643379288 
4.26000000000341, -0.3131379770984163 
4.270000000003387, -0.31390208677962594 
4.280000000003364, -0.3143159274294202 
4.2900000000033405, -0.31447531701576603 
4.300000000003317, -0.3144376870076545 
4.310000000003294, -0.3142312983424551 
4.320000000003271, -0.313863789229602 
4.330000000003247, -0.31333035775963963 
4.340000000003224, -0.3126236913385945 
4.350000000003201, -0.31174695019905974 
4.360000000003177, -0.3107273363343239 
4.370000000003154, -0.3096226761804175 
4.380000000003131, -0.3085132033961374 
4.390000000003107, -0.30747991053946766 
4.400000000003084, -0.3065817780438152 
4.410000000003061, -0.30584404625439243 
4.4200000000030375, -0.30525977097094986 
4.430000000003014, -0.30479939759553554 
4.440000000002991, -0.3044226175595901 
4.450000000002968, -0.3040889039219 
4.460000000002944, -0.3037645523625077 
4.470000000002921, -0.30342528226580573 
4.480000000002898, -0.3030550205365199 
4.490000000002874, -0.3026424877408413 
4.500000000002851, -0.30217693642230425 
4.510000000002828, -0.3016431992143146 
4.520000000002804, -0.3010145605850917 
4.530000000002781, -0.3002396105928371 
4.540000000002758, -0.29921527554211824 
4.5500000000027345, -0.2977328809847377 
4.560000000002711, -0.29538628624061114 
4.570000000002688, -0.2914777769261981 
4.580000000002665, -0.28510828718614206 
4.590000000002641, -0.2757628205422412 
4.600000000002618, -0.26418182060537243 
4.610000000002595, -0.2523201482455254 
4.620000000002571, -0.24204078992056996 
4.630000000002548, -0.2341233818819401 
4.640000000002525, -0.22842229450282875 
4.6500000000025015, -0.22443568048635248 
4.660000000002478, -0.2216651346450303 
4.670000000002455, -0.21973100041021673 
4.6800000000024315, -0.21837417294589895 
4.690000000002408, -0.21742811773827486 
4.700000000002385, -0.21679202257696062 
4.710000000002362, -0.2164122740091959 
4.720000000002338, -0.21627225193909583 
4.730000000002315, -0.21638936945545986 
4.740000000002292, -0.2168190454576362 
4.750000000002268, -0.21766650046521135 
4.760000000002245, -0.21910828291144707 
4.770000000002222, -0.22142482601009744 
4.7800000000021985, -0.22503823887077087 
4.790000000002175, -0.23052277671551402 
4.800000000002152, -0.23848801780722068 
4.810000000002129, -0.24915360269793246 
4.820000000002105, -0.26160429437760174 
4.830000000002082, -0.2735196255951656 
4.840000000002059, -0.282494224103581 
4.850000000002035, -0.28782491019547185 
4.860000000002012, -0.29043154743422084 
