t, s[1].omega / s[0].omega 
0, -0.8899976099777259 
0.009999999999999995, -0.889709202051244 
0.019999999999999934, -0.8893205141647433 
0.029999999999999874, -0.8888273644694069 
0.04000000000000012, -0.8882310937255387 
0.050000000000000405, -0.8875453734053359 
0.06000000000000069, -0.8867999793838914 
0.07000000000000098, -0.8860418686588855 
0.08000000000000126, -0.8853341502021916 
0.09000000000000155, -0.8847516802082296 
0.10000000000000184, -0.8843713878965763 
0.11000000000000212, -0.8842580954371833 
0.12000000000000241, -0.8844506703822057 
0.130000000000002, -0.8849545906276391 
0.1400000000000009, -0.8857437571455524 
0.1499999999999998, -0.8867696758531443 
0.1599999999999987, -0.8879735333653451 
0.1699999999999976, -0.8892966945045708 
0.1799999999999965, -0.890686428523626 
0.1899999999999954, -0.892095405557745 
0.1999999999999943, -0.8934757614986202 
0.2099999999999932, -0.8947715847009858 
0.2199999999999921, -0.8959165117083803 
0.229999999999991, -0.8968422318802137 
0.2399999999999899, -0.8974962117976549 
0.2499999999999888, -0.897857661277594 
0.2599999999999877, -0.8979408165237632 
0.2699999999999866, -0.8977858730061745 
0.2799999999999855, -0.8974477505067602 
0.2899999999999844, -0.8969922719542627 
0.2999999999999833, -0.896502479031685 
0.3099999999999822, -0.8960910501610215 
0.3199999999999811, -0.8959093047377443 
0.32999999999998, -0.8961401762880463 
0.3399999999999789, -0.8969674221330507 
0.3499999999999778, -0.8985293041269413 
0.35999999999997667, -0.90088058206501 
0.36999999999997557, -0.9039832794330502 
0.37999999999997447, -0.9077248671984878 
0.38999999999997337, -0.9119445232926846 
0.39999999999997227, -0.9164490072381977 
0.40999999999997117, -0.9210142665697626 
0.41999999999997006, -0.9253857109529342 
0.42999999999996896, -0.9292991813352016 
0.43999999999996786, -0.9325334792589632 
0.44999999999996676, -0.9349716947064145 
0.45999999999996566, -0.9366257719103563 
0.46999999999996456, -0.9376046978137544 
0.47999999999996346, -0.9380546437456252 
0.48999999999996235, -0.9381116006660001 
0.49999999999996125, -0.9378834817441465 
0.5099999999999602, -0.9374577678552578 
0.519999999999959, -0.9369274597058226 
0.529999999999958, -0.936431855584759 
0.5399999999999568, -0.9362057393011691 
0.5499999999999557, -0.9366138178890466 
0.5599999999999546, -0.9381265928662369 
0.5699999999999535, -0.9412049139957057 
0.5799999999999524, -0.9461275023730481 
0.5899999999999513, -0.9528621209124261 
0.5999999999999502, -0.9610543514805581 
0.6099999999999491, -0.9701117123796061 
0.619999999999948, -0.9793148270855159 
0.6299999999999469, -0.9879275709954412 
0.6399999999999458, -0.9953239358176468 
0.6499999999999447, -1.0011245589339626 
0.6599999999999436, -1.0052704484038602 
0.6699999999999425, -1.007969574302044 
0.6799999999999414, -1.0095538480623403 
0.6899999999999403, -1.0103463505377497 
0.6999999999999392, -1.0105958202855452 
0.7099999999999381, -1.0104704237279927 
0.719999999999937, -1.0100827177394496 
0.7299999999999359, -1.0095302630893959 
0.7399999999999348, -1.008951236189661 
0.7499999999999337, -1.0085939134190123 
0.7599999999999326, -1.0088722442307083 
0.7699999999999315, -1.010337622060205 
0.7799999999999304, -1.0135065376658994 
0.7899999999999293, -1.0186083452683845 
0.7999999999999282, -1.0254411881838323 
0.8099999999999271, -1.033443817919522 
0.819999999999926, -1.0418912358958219 
0.8299999999999249, -1.0500675530444077 
0.8399999999999238, -1.057370823162739 
0.8499999999999227, -1.0633840084381836 
0.8599999999999216, -1.0679283258905428 
0.8699999999999205, -1.07106578778572 
0.8799999999999194, -1.0730268308955806 
0.8899999999999183, -1.0740997009875939 
0.8999999999999172, -1.0745436852715349 
0.9099999999999161, -1.0745542572433957 
0.919999999999915, -1.0742703847959034 
0.9299999999999139, -1.073806062961107 
0.9399999999999128, -1.0732954028381232 
0.9499999999999117, -1.0729394608870446 
0.9599999999999106, -1.0730236158255249 
0.9699999999999095, -1.073860029471781 
0.9799999999999084, -1.0756553845932733 
0.9899999999999073, -1.0783984315337638 
0.9999999999999062, -1.081868660775747 
1.0099999999999052, -1.0857456358809623 
1.019999999999904, -1.0897171693579635 
1.029999999999903, -1.093528474408564 
1.039999999999902, -1.0969843473118142 
1.0499999999999008, -1.0999388370419787 
1.0599999999998997, -1.102294726867338 
1.0699999999998986, -1.1040138066318188 
1.0799999999998975, -1.1051226762051767 
1.0899999999998964, -1.1057003052627883 
1.0999999999998953, -1.1058513364093991 
1.1099999999998942, -1.1056823311122728 
1.119999999999893, -1.1052942324580868 
1.129999999999892, -1.104791978846411 
1.1399999999998909, -1.10430106371655 
1.1499999999998898, -1.1039718975720552 
1.1599999999998887, -1.1039532134202679 
1.1699999999998876, -1.1043400625539916 
1.1799999999998865, -1.105135344197913 
1.1899999999998854, -1.1062575355802717 
1.1999999999998843, -1.1075820537120435 
1.2099999999998832, -1.108981559077941 
1.219999999999882, -1.110348167421768 
1.229999999999881, -1.1116000600892382 
1.2399999999998799, -1.1126791203214879 
1.2499999999998788, -1.1135446235584237 
1.2599999999998777, -1.1141673014565516 
1.2699999999998766, -1.1145272796798316 
1.2799999999998755, -1.1146166617336237 
1.2899999999998744, -1.1144438546277313 
1.2999999999998733, -1.1140358142615858 
1.3099999999998722, -1.113437701053434 
1.319999999999871, -1.1127125201707382 
1.32999999999987, -1.111941200605808 
1.3399999999998689, -1.1112181478341612 
1.3499999999998678, -1.1106366977217883 
1.3599999999998666, -1.1102676551457098 
1.3699999999998655, -1.1101425733335382 
1.3799999999998644, -1.1102488950754972 
1.3899999999998633, -1.1105346421738027 
1.3999999999998622, -1.1109200359514912 
1.4099999999998611, -1.111314804066313 
1.41999999999986, -1.1116352653181325 
1.429999999999859, -1.1118143583936748 
1.4399999999998578, -1.1118042424393906 
1.4499999999998567, -1.1115754912276514 
1.4599999999998556, -1.111115194226698 
1.4699999999998545, -1.110423757961826 
1.4799999999998534, -1.10951099676983 
1.4899999999998523, -1.1083940451189505 
1.4999999999998512, -1.1070990620193197 
1.5099999999998501, -1.1056660490720955 
1.519999999999849, -1.104154034882887 
1.529999999999848, -1.1026433010550227 
1.5399999999998468, -1.101231832827636 
1.5499999999998457, -1.1000239705631438 
1.5599999999998446, -1.0991092652974743 
1.5699999999998435, -1.0985327028430985 
1.5799999999998424, -1.0982698810351796 
1.5899999999998413, -1.098229119002433 
1.5999999999998402, -1.0982837146433253 
1.6099999999998391, -1.098308936214863 
1.619999999999838, -1.0981991815726182 
1.629999999999837, -1.0978650972565496 
1.6399999999998358, -1.0972257267906467 
1.6499999999998347, -1.0962086542270257 
1.6599999999998336, -1.09476104036533 
1.6699999999998325, -1.092863979306316 
1.6799999999998314, -1.0905387498832515 
1.6899999999998303, -1.0878411859249175 
1.6999999999998292, -1.084852155985502 
1.709999999999828, -1.0816748244573442 
1.719999999999827, -1.0784415667832457 
1.729999999999826, -1.075323367705924 
1.7399999999998248, -1.0725265625798162 
1.7499999999998237, -1.070258508518686 
1.7599999999998226, -1.0686580516653 
1.7699999999998215, -1.0677266277848232 
1.7799999999998204, -1.06732093021369 
1.7899999999998193, -1.0672214753120919 
1.7999999999998182, -1.0672178173417761 
1.809999999999817, -1.067149482080822 
1.819999999999816, -1.066897344975057 
1.8299999999998149, -1.066353478094138 
1.8399999999998138, -1.0653939632881435 
1.8499999999998127, -1.063868631458792 
1.8599999999998116, -1.0616170891403678 
1.8699999999998105, -1.058512423343752 
1.8799999999998094, -1.0545146335585267 
1.8899999999998083, -1.0497012457974881 
1.8999999999998072, -1.0442588601434415 
1.909999999999806, -1.0384541247669674 
1.919999999999805, -1.0326122211845958 
1.9299999999998039, -1.0271051937251492 
1.9399999999998028, -1.0223219320465142 
1.9499999999998017, -1.0185893130746322 
1.9599999999998006, -1.0160584489841884 
1.9699999999997995, -1.014634696943079 
1.9799999999997984, -1.0140259232765019 
1.9899999999997973, -1.0138794910227076 
1.9999999999997962, -1.0139010924647316 
2.0099999999998173, -1.0138925029010326 
2.0199999999998384, -1.0137264458246884 
2.0299999999998595, -1.0133016566414053 
2.0399999999998806, -1.0125036497763285 
2.0499999999999017, -1.0111805026379737 
2.059999999999923, -1.0091417507130385 
2.069999999999944, -1.006191947779908 
2.079999999999965, -1.0021997613891975 
2.089999999999986, -0.9971720956038765 
2.100000000000007, -0.9912829484249933 
2.1100000000000283, -0.9848386354035588 
2.1200000000000494, -0.9782147699204877 
2.1300000000000705, -0.9718078620743398 
2.1400000000000916, -0.9660055906014255 
2.1500000000001127, -0.9611487072617383 
2.160000000000134, -0.957465800179089 
2.170000000000155, -0.9550029550229258 
2.180000000000176, -0.9536041660315796 
2.190000000000197, -0.9529750758757105 
2.2000000000002182, -0.95279311407161 
2.2100000000002393, -0.9527928424344994 
2.2200000000002604, -0.9527913939196531 
2.2300000000002815, -0.9526690708246083 
2.2400000000003026, -0.9523353853985744 
2.2500000000003237, -0.9517003624136414 
2.260000000000345, -0.9506601353591331 
2.270000000000366, -0.9491026982627007 
2.280000000000387, -0.9469366684470941 
2.290000000000408, -0.9441332797550993 
2.3000000000004293, -0.9407547662821498 
2.3100000000004504, -0.9369452522756472 
2.3200000000004715, -0.9328909263082524 
2.3300000000004926, -0.9287804278353645 
2.3400000000005137, -0.9247868837611449 
2.3500000000005348, -0.9210684668279876 
2.360000000000556, -0.9177715770487079 
2.370000000000577, -0.9150231378758168 
2.380000000000598, -0.9129085224382069 
2.390000000000619, -0.9114444647969787 
2.4000000000006403, -0.9105657352786889 
2.4100000000006614, -0.9101398649992183 
2.4200000000006825, -0.9100046561405449 
2.4300000000007036, -0.910006664782486 
2.4400000000007247, -0.9100221097877135 
2.450000000000746, -0.909957984052836 
2.460000000000767, -0.9097430587097639 
2.470000000000788, -0.9093199808329118 
2.480000000000809, -0.9086452190628206 
2.49000000000083, -0.907696992705174 
2.5000000000008513, -0.9064842021846686 
2.5100000000008724, -0.9050465120065209 
2.5200000000008935, -0.9034423042200086 
2.5300000000009146, -0.9017322132966565 
2.5400000000009357, -0.8999691311170815 
2.550000000000957, -0.8981985652161241 
2.560000000000978, -0.896465248449379 
2.570000000000999, -0.8948195529908762 
2.58000000000102, -0.8933193017651189 
2.5900000000010412, -0.8920254951372251 
2.6000000000010624, -0.8909927926968922 
2.6100000000010835, -0.8902573885907105 
2.6200000000011046, -0.8898263271733702 
2.6300000000011257, -0.889672840602163 
2.6400000000011468, -0.8897407154140092 
2.650000000001168, -0.8899565254634169 
2.660000000001189, -0.8902443793087457 
2.67000000000121, -0.8905374495914105 
2.680000000001231, -0.8907840728901654 
2.6900000000012523, -0.890949693010862 
2.7000000000012734, -0.891016319656584 
2.7100000000012945, -0.8909794402652105 
2.7200000000013156, -0.8908418217440485 
2.7300000000013367, -0.8906059890481577 
2.740000000001358, -0.8902697154050776 
2.750000000001379, -0.8898277443410704 
2.7600000000014, -0.8892785258389685 
2.770000000001421, -0.8886315374088557 
2.780000000001442, -0.8879118402957482 
2.7900000000014633, -0.8871617012373095 
2.8000000000014844, -0.8864402250167099 
2.8100000000015055, -0.8858202711838468 
2.8200000000015266, -0.885380493652602 
2.8300000000015477, -0.885192043107679 
2.840000000001569, -0.8853036792443703 
2.85000000000159, -0.8857316611874996 
2.860000000001611, -0.8864587311779539 
2.870000000001632, -0.887441613799998 
2.8800000000016532, -0.8886228938427598 
2.8900000000016743, -0.8899424850741694 
2.9000000000016954, -0.8913450056412954 
2.9100000000017165, -0.8927810615691705 
2.9200000000017377, -0.8942025571104706 
2.9300000000017588, -0.895555044147199 
2.94000000000178, -0.8967732960870844 
2.950000000001801, -0.8977868191145071 
2.960000000001822, -0.8985361530237672 
2.970000000001843, -0.8989908358856148 
2.9800000000018643, -0.8991565753854525 
2.9900000000018854, -0.8990684530036639 
3.0000000000019065, -0.8987788029109008 
3.0100000000019276, -0.89835062226615 
3.0200000000019487, -0.8978612959337602 
3.03000000000197, -0.8974142815331774 
3.040000000001991, -0.8971505883922168 
3.050000000002012, -0.897247647391968 
3.060000000002033, -0.8978950551709799 
3.070000000002054, -0.8992500795103332 
3.0800000000020753, -0.9013939248829221 
3.0900000000020964, -0.9043131066048063 
3.1000000000021175, -0.9079116156115612 
3.1100000000021386, -0.912037655443446 
3.1200000000021597, -0.9165040191913514 
3.130000000002181, -0.9210933633994183 
3.140000000002202, -0.9255570870040499 
3.150000000002223, -0.9296288962711754 
3.160000000002244, -0.93306953560692 
3.1700000000022652, -0.9357298876464499 
3.1800000000022863, -0.9375890473121402 
3.1900000000023074, -0.9387362639069959 
3.2000000000023285, -0.9393140372910759 
3.2100000000023496, -0.9394644881053464 
3.2200000000023707, -0.9393034749588274 
3.230000000002392, -0.9389223195148573 
3.240000000002413, -0.9384094347821981 
3.250000000002434, -0.9378874787264811 
3.260000000002455, -0.9375614848637397 
3.2700000000024763, -0.937760245054346 
3.2800000000024974, -0.938931224118258 
3.2900000000025185, -0.9415484972387462 
3.3000000000025396, -0.9459476957072581 
3.3100000000025607, -0.9521780915794714 
3.3200000000025818, -0.959962150508807 
3.330000000002603, -0.9687631997888613 
3.340000000002624, -0.97789439142341 
3.350000000002645, -0.986625769423499 
3.360000000002666, -0.9943009314536184 
3.3700000000026873, -1.0004715996031888 
3.3800000000027084, -1.004994836824182 
3.3900000000027295, -1.0080159198536616 
3.4000000000027506, -1.0098431962820986 
3.4100000000027717, -1.0108065612781636 
3.420000000002793, -1.0111737234321208 
3.430000000002814, -1.0111308776182655 
3.440000000002835, -1.0108013133747265 
3.450000000002856, -1.0102821884459199 
3.460000000002877, -1.0096957200855132 
3.4700000000028983, -1.0092554618229643 
3.4800000000029194, -1.0093287509241684 
3.4900000000029405, -1.010435248226358 
3.5000000000029616, -1.0131111669527184 
3.5100000000029827, -1.017666442458827 
3.520000000003004, -1.0240037864394165 
3.530000000003025, -1.0316424414033571 
3.540000000003046, -1.0398959839005069 
3.550000000003067, -1.0480539807024554 
3.5600000000030882, -1.0554960271234184 
3.5700000000031094, -1.06176316310953 
3.5800000000031305, -1.066615302629645 
3.5900000000031516, -1.0700521132783416 
3.6000000000031727, -1.072262817516651 
3.6100000000031938, -1.0735232025762684 
3.620000000003215, -1.0741000492073205 
3.630000000003236, -1.0742028637103265 
3.640000000003257, -1.073981514267009 
3.650000000003278, -1.0735521823858845 
3.6600000000032993, -1.0730391392625471 
3.6700000000033204, -1.0726222497725035 
3.6800000000033415, -1.0725650501008914 
3.6900000000033626, -1.0731788436685172 
3.7000000000033837, -1.0747053134456275 
3.710000000003405, -1.077190091609618 
3.720000000003426, -1.0804591015004994 
3.730000000003447, -1.0842102948409673 
3.740000000003468, -1.0881282564848476 
3.750000000003489, -1.091947437943444 
3.7600000000035103, -1.0954624386041223 
3.7700000000035314, -1.0985179086399033 
3.7800000000035525, -1.1010044805736992 
3.7900000000035736, -1.1028672250986271 
3.8000000000035947, -1.1041146571878637 
3.810000000003616, -1.1048121828341582 
3.820000000003637, -1.1050584618848425 
3.830000000003658, -1.1049596157371697 
3.840000000003679, -1.1046168859099699 
3.8500000000037002, -1.1041321267076527 
3.8600000000037213, -1.1036237550601924 
3.8700000000037424, -1.1032361225550944 
3.8800000000037635, -1.1031218457970968 
3.8900000000037847, -1.1033941131600056 
3.9000000000038058, -1.1040808501186787 
3.910000000003827, -1.1051198699984581 
3.920000000003848, -1.106394403943326 
3.930000000003869, -1.1077758657101409 
3.94000000000389, -1.1091507934856615 
3.9500000000039113, -1.1104308832838852 
3.9600000000039324, -1.1115525428371984 
3.9700000000039535, -1.1124712817782672 
3.9800000000039746, -1.1131553086187949 
3.9900000000039957, -1.1135821963432915 
4.000000000004016, -1.1137403472818108 
4.010000000003993, -1.1136332800538125 
4.02000000000397, -1.1132827178961033 
4.030000000003946, -1.1127288026322693 
4.040000000003923, -1.112029527736761 
4.0500000000039, -1.111260963158346 
4.0600000000038765, -1.1105147072155281 
4.070000000003853, -1.1098862638411349 
4.08000000000383, -1.1094545201214951 
4.090000000003807, -1.1092626307470956 
4.100000000003783, -1.1093098788378701 
4.11000000000376, -1.1095541661737545 
4.120000000003737, -1.1099218048049253 
4.130000000003713, -1.1103236167177628 
4.14000000000369, -1.1106728714714547 
4.150000000003667, -1.1108975792139166 
4.1600000000036434, -1.1109447767749718 
4.17000000000362, -1.1107802768966386 
4.180000000003597, -1.110387013814162 
4.1900000000035735, -1.1097622021733393 
4.20000000000355, -1.1089134084963246 
4.210000000003527, -1.1078556947043328 
4.220000000003504, -1.106612250896217 
4.23000000000348, -1.10521858051824 
4.240000000003457, -1.103727894260029 
4.250000000003434, -1.1022144260572735 
4.26000000000341, -1.100771649567105 
4.270000000003387, -1.0995032581630615 
4.280000000003364, -1.0985050195618826 
4.2900000000033405, -1.097837037701278 
4.300000000003317, -1.0974956577111803 
4.310000000003294, -1.0974063779065684 
4.320000000003271, -1.0974489357294592 
4.330000000003247, -1.0974958407295985 
4.340000000003224, -1.0974361799970997 
4.350000000003201, -1.0971773200019515 
4.360000000003177, -1.0966370493497897 
4.370000000003154, -1.0957408147196896 
4.380000000003131, -1.0944299728678575 
4.390000000003107, -1.0926760727065026 
4.400000000003084, -1.0904898622788861 
4.410000000003061, -1.0879183590283372 
4.4200000000030375, -1.0850352257710068 
4.430000000003014, -1.0819355021609194 
4.440000000002991, -1.0787401314122222 
4.450000000002968, -1.0756057783503643 
4.460000000002944, -1.0727271273562895 
4.470000000002921, -1.070313694487653 
4.480000000002898, -1.0685302504914713 
4.490000000002874, -1.067422838842219 
4.500000000002851, -1.0668884712087798 
4.510000000002828, -1.0667235547610736 
4.520000000002804, -1.066710647253386 
4.530000000002781, -1.066675027087118 
4.540000000002758, -1.066488697134627 
4.5500000000027345, -1.0660441242512704 
4.560000000002711, -1.065225009582012 
4.570000000002688, -1.0638905488386157 
4.580000000002665, -1.0618834791348344 
4.590000000002641, -1.059066270308985 
4.600000000002618, -1.0553734271517698 
4.610000000002595, -1.050849669599192 
4.620000000002571, -1.0456508573704169 
4.630000000002548, -1.0400176795702718 
4.640000000002525, -1.0342511629825153 
4.6500000000025015, -1.0287012461008351 
4.660000000002478, -1.0237476512733388 
4.670000000002455, -1.0197393982680456 
4.6800000000024315, -1.0168885348514765 
4.690000000002408, -1.0151778901210111 
4.700000000002385, -1.0143691653629596 
4.710000000002362, -1.0141195157493934 
4.720000000002338, -1.0141139227021951 
4.730000000002315, -1.014128142501953 
4.740000000002292, -1.0140187358902049 
4.750000000002268, -1.01368129178506 
4.760000000002245, -1.0130087551209408 
4.770000000002222, -1.0118626563666697 
4.7800000000021985, -1.01006466584802 
4.790000000002175, -1.0074193607015285 
4.800000000002152, -1.0037738409639165 
4.810000000002129, -0.9990933133390738 
4.820000000002105, -0.993504730327634 
4.830000000002082, -0.9872776720450182 
4.840000000002059, -0.9807654240763805 
4.850000000002035, -0.9743522253501521 
4.860000000002012, -0.9684222886453846 
4.870000000001989, -0.9633288987965793 
4.880000000001965, -0.959338308937653 
4.890000000001942, -0.9565564933415842 
4.900000000001919, -0.954888058314693 
4.9100000000018955, -0.9540740223069635 
4.920000000001872, -0.9537936056569517 
4.930000000001849, -0.9537621637709309 
4.940000000001826, -0.9537745956017044 
