t, s[1].omega / s[0].omega 
0, -0.7199976844617346 
0.009999999999999995, -0.7197528392471084 
0.019999999999999934, -0.7194768591966769 
0.029999999999999874, -0.7191582942212793 
0.04000000000000012, -0.7187859293614296 
0.050000000000000405, -0.7183554083931148 
0.06000000000000069, -0.7178728026131874 
0.07000000000000098, -0.7173554465740948 
0.08000000000000126, -0.7168322484726704 
0.09000000000000155, -0.7163453005417786 
0.10000000000000184, -0.7159530639215859 
0.11000000000000212, -0.7157339502313533 
0.12000000000000241, -0.7157883132066309 
0.130000000000002, -0.7162368857845357 
0.1400000000000009, -0.7172145847557598 
0.1499999999999998, -0.7188598901205673 
0.1599999999999987, -0.7213005527484075 
0.1699999999999976, -0.7246350966906719 
0.1799999999999965, -0.7289068218944005 
0.1899999999999954, -0.7340659646182133 
0.1999999999999943, -0.7399227773476891 
0.2099999999999932, -0.7461152381468928 
0.2199999999999921, -0.7521393790949811 
0.229999999999991, -0.7574758760598879 
0.2399999999999899, -0.7617640318965511 
0.2499999999999888, -0.7649019631766207 
0.2599999999999877, -0.7670078091240727 
0.2699999999999866, -0.7683015968812482 
0.2799999999999855, -0.7690025984208544 
0.2899999999999844, -0.7692800174983002 
0.2999999999999833, -0.7692436626636386 
0.3099999999999822, -0.7689509694753716 
0.3199999999999811, -0.7684158113825961 
0.32999999999998, -0.7676137268318832 
0.3399999999999789, -0.7664832582837027 
0.3499999999999778, -0.7649259320475279 
0.35999999999997667, -0.7628099608700307 
0.36999999999997557, -0.7599847903563115 
0.37999999999997447, -0.7563112806846792 
0.38999999999997337, -0.7517015652317767 
0.39999999999997227, -0.7461589880271394 
0.40999999999997117, -0.7398531289984246 
0.41999999999997006, -0.7332873177721032 
0.42999999999996896, -0.7273739120743323 
0.43999999999996786, -0.7230506350985288 
0.44999999999996676, -0.7206841024194122 
0.45999999999996566, -0.7199516000485466 
0.46999999999996456, -0.7202178860809585 
0.47999999999996346, -0.7209129244881131 
0.48999999999996235, -0.7216737760219066 
0.49999999999996125, -0.7223213964414864 
0.5099999999999602, -0.722790148413867 
0.519999999999959, -0.7230681208136512 
0.529999999999958, -0.7231598486829561 
0.5399999999999568, -0.7230658687583167 
0.5499999999999557, -0.7227715975007823 
0.5599999999999546, -0.7222408211565978 
0.5699999999999535, -0.7214129222047053 
0.5799999999999524, -0.7202071559243111 
0.5899999999999513, -0.7185404480568065 
0.5999999999999502, -0.716362372164747 
0.6099999999999491, -0.7136967056021282 
0.619999999999948, -0.7106612931638169 
0.6299999999999469, -0.7074431135126702 
0.6399999999999458, -0.7042408911877007 
0.6499999999999447, -0.7012140751133495 
0.6599999999999436, -0.6984635352108785 
0.6699999999999425, -0.6960396451426754 
0.6799999999999414, -0.6939603735424945 
0.6899999999999403, -0.692226670868606 
0.6999999999999392, -0.6908310570638718 
0.7099999999999381, -0.6897605085921622 
0.719999999999937, -0.6889963493442435 
0.7299999999999359, -0.6885136045257964 
0.7399999999999348, -0.6882813636907895 
0.7499999999999337, -0.6882646578974929 
0.7599999999999326, -0.6884274942852309 
0.7699999999999315, -0.6887362381414132 
0.7799999999999304, -0.6891625337254351 
0.7899999999999293, -0.6896851869906381 
0.7999999999999282, -0.6902905338493862 
0.8099999999999271, -0.6909706233383124 
0.819999999999926, -0.691718425406749 
0.8299999999999249, -0.6925200764570956 
0.8399999999999238, -0.6933464483045707 
0.8499999999999227, -0.6941490866792998 
0.8599999999999216, -0.6948658194162957 
0.8699999999999205, -0.6954362235497837 
0.8799999999999194, -0.6958190166984186 
0.8899999999999183, -0.6960007528956813 
0.8999999999999172, -0.6959921932652072 
0.9099999999999161, -0.6958178668024234 
0.919999999999915, -0.6955067979639733 
0.9299999999999139, -0.6950890155668397 
0.9399999999999128, -0.6945990384253471 
0.9499999999999117, -0.6940867435545567 
0.9599999999999106, -0.6936370165061734 
0.9699999999999095, -0.6934005382649454 
0.9799999999999084, -0.6936370183146845 
0.9899999999999073, -0.6947664164722299 
0.9999999999999062, -0.6974091635989609 
1.0099999999999052, -0.7023691122495179 
1.019999999999904, -0.7104778826209002 
1.029999999999903, -0.7222176516766583 
1.039999999999902, -0.7371780450892622 
1.0499999999999008, -0.7537396243833887 
1.0599999999998997, -0.7695388328553483 
1.0699999999998986, -0.7826105271849676 
1.0799999999998975, -0.7922048116698049 
1.0899999999998964, -0.7986512452477174 
1.0999999999998953, -0.8027328474896785 
1.1099999999998942, -0.8052104675801142 
1.119999999999893, -0.8066489978312298 
1.129999999999892, -0.8074164792684277 
1.1399999999998909, -0.8077333177854097 
1.1499999999998898, -0.8077179818453025 
1.1599999999998887, -0.807415736150398 
1.1699999999998876, -0.8068101470423559 
1.1799999999998865, -0.8058185809835379 
1.1899999999998854, -0.8042712553079749 
1.1999999999998843, -0.8018732621345016 
1.2099999999998832, -0.798156905676062 
1.219999999999882, -0.7924601949240346 
1.229999999999881, -0.7840249613448078 
1.2399999999998799, -0.7723432899101426 
1.2499999999998788, -0.7577183436932329 
1.2599999999998777, -0.7415868228393886 
1.2699999999998766, -0.726063279020085 
1.2799999999998755, -0.7129466750126867 
1.2899999999998744, -0.7030619230002463 
1.2999999999998733, -0.6963099110711373 
1.3099999999998722, -0.6920858918458986 
1.319999999999871, -0.6896637078687278 
1.32999999999987, -0.6884074964881015 
1.3399999999998689, -0.6878418691395446 
1.3499999999998678, -0.6876458041362616 
1.3599999999998666, -0.6876177330287995 
1.3699999999998655, -0.6876370368041244 
1.3799999999998644, -0.6876322471765927 
1.3899999999998633, -0.6875583890038975 
1.3999999999998622, -0.6873827810968274 
1.4099999999998611, -0.6870781442925156 
1.41999999999986, -0.6866223018885158 
1.429999999999859, -0.6860034565021429 
1.4399999999998578, -0.6852278823106108 
1.4499999999998567, -0.6843240402535485 
1.4599999999998556, -0.683337669861517 
1.4699999999998545, -0.6823186173908736 
1.4799999999998534, -0.6813069904240698 
1.4899999999998523, -0.680326411337719 
1.4999999999998512, -0.6793861803803468 
1.5099999999998501, -0.6784886586582388 
1.519999999999849, -0.6776370272605454 
1.529999999999848, -0.676840650585091 
1.5399999999998468, -0.6761177552163471 
1.5499999999998457, -0.6754963049750807 
1.5599999999998446, -0.6750138104698052 
1.5699999999998435, -0.6747162514374246 
1.5799999999998424, -0.6746560407119131 
1.5899999999998413, -0.6748891767503535 
1.5999999999998402, -0.6754721342270511 
1.6099999999998391, -0.6764591818827481 
1.619999999999838, -0.6779003408996901 
1.629999999999837, -0.6798390191876159 
1.6399999999998358, -0.6823067167072663 
1.6499999999998347, -0.6853108021512022 
1.6599999999998336, -0.688811926609133 
1.6699999999998325, -0.6926934239273947 
1.6799999999998314, -0.6967386253847743 
1.6899999999998303, -0.7006461159288672 
1.6999999999998292, -0.704102892333093 
1.709999999999828, -0.706886485298168 
1.719999999999827, -0.7089260332551736 
1.729999999999826, -0.710283653366288 
1.7399999999998248, -0.7110874003673011 
1.7499999999998237, -0.7114692918098681 
1.7599999999998226, -0.7115323673147355 
1.7699999999998215, -0.7113414222684518 
1.7799999999998204, -0.7109243437623438 
1.7899999999998193, -0.7102750215935073 
1.7999999999998182, -0.7093538635591246 
1.809999999999817, -0.7080848765301555 
1.819999999999816, -0.7063494859278736 
1.8299999999998149, -0.703977176608721 
1.8399999999998138, -0.7007312746693355 
1.8499999999998127, -0.6962873926186619 
1.8599999999998116, -0.6902224315375298 
1.8699999999998105, -0.6821153185198916 
1.8799999999998094, -0.671936949713307 
1.8899999999998083, -0.6605935535293465 
1.8999999999998072, -0.6498487390142789 
1.909999999999806, -0.6413129204448801 
1.919999999999805, -0.6355700427988905 
1.9299999999998039, -0.6322567410367104 
1.9399999999998028, -0.6306334490749054 
1.9499999999998017, -0.6300121726970531 
1.9599999999998006, -0.6299053249800941 
1.9699999999997995, -0.6300155387835594 
1.9799999999997984, -0.6301785423313565 
1.9899999999997973, -0.6303094232165679 
1.9999999999997962, -0.6303648247461439 
2.0099999999998173, -0.630319548154061 
2.0199999999998384, -0.6301532985880633 
2.0299999999998595, -0.6298444731582937 
2.0399999999998806, -0.6293698228884933 
2.0499999999999017, -0.6287100014068303 
2.059999999999923, -0.6278600249353123 
2.069999999999944, -0.6268399520138332 
2.079999999999965, -0.6256976531337577 
2.089999999999986, -0.6244984015734768 
2.100000000000007, -0.6233057526696731 
2.1100000000000283, -0.6221652094504904 
2.1200000000000494, -0.6210988616682735 
2.1300000000000705, -0.620110488297756 
2.1400000000000916, -0.6191953603467667 
2.1500000000001127, -0.6183493153397639 
2.160000000000134, -0.6175746612606722 
2.170000000000155, -0.6168831277288771 
2.180000000000176, -0.6162971807049137 
2.190000000000197, -0.6158508094078717 
2.2000000000002182, -0.6155902368130173 
2.2100000000002393, -0.6155745367265559 
2.2200000000002604, -0.6158760290757901 
2.2300000000002815, -0.6165804132361937 
2.2400000000003026, -0.6177865670506772 
2.2500000000003237, -0.6196053764800872 
2.260000000000345, -0.6221554271774421 
2.270000000000366, -0.625550624616302 
2.280000000000387, -0.6298715115967147 
2.290000000000408, -0.6351119380262679 
2.3000000000004293, -0.6411050996327305 
2.3100000000004504, -0.6474672441629292 
2.3200000000004715, -0.6536341959934081 
2.3300000000004926, -0.6590330941723573 
2.3400000000005137, -0.6632992111864657 
2.3500000000005348, -0.6663699249953169 
2.360000000000556, -0.6684071207856237 
2.370000000000577, -0.6696541393735882 
2.380000000000598, -0.6703336129595149 
2.390000000000619, -0.6706079360786859 
2.4000000000006403, -0.6705767170961734 
2.4100000000006614, -0.6702851833319448 
2.4200000000006825, -0.6697298521271329 
2.4300000000007036, -0.6688557259525765 
2.4400000000007247, -0.6675416855165315 
2.450000000000746, -0.6655708593756907 
2.460000000000767, -0.6625855183522849 
2.470000000000788, -0.6580420619637602 
2.480000000000809, -0.6512287397170505 
2.49000000000083, -0.6414794101848068 
2.5000000000008513, -0.6286755531754781 
2.5100000000008724, -0.6137555856249411 
2.5200000000008935, -0.5985729396358976 
2.5300000000009146, -0.5849910774673155 
2.5400000000009357, -0.5740677524796355 
2.550000000000957, -0.5659564083324435 
2.560000000000978, -0.560270988301213 
2.570000000000999, -0.5564556565679394 
2.58000000000102, -0.5539888288917636 
2.5900000000010412, -0.5524537838538293 
2.6000000000010624, -0.551543149477169 
2.6100000000010835, -0.5510402961891169 
2.6200000000011046, -0.5507969657665222 
2.6300000000011257, -0.5507138590814079 
2.6400000000011468, -0.5507257257148368 
2.650000000001168, -0.5507907841585215 
2.660000000001189, -0.5508838971775012 
2.67000000000121, -0.5509928289593 
2.680000000001231, -0.5511166225627417 
2.6900000000012523, -0.5512645064390693 
2.7000000000012734, -0.5514531563727398 
2.7100000000012945, -0.5517005165996887 
2.7200000000013156, -0.5520163364440103 
2.7300000000013367, -0.5523924522608162 
2.740000000001358, -0.5527979250551022 
2.750000000001379, -0.5531834938821935 
2.7600000000014, -0.553495157536267 
2.770000000001421, -0.553690121617614 
2.780000000001442, -0.5537461228996778 
2.7900000000014633, -0.5536604922369873 
2.8000000000014844, -0.5534426227672292 
2.8100000000015055, -0.55310587924729 
2.8200000000015266, -0.5526626523335496 
2.8300000000015477, -0.5521234379723885 
2.840000000001569, -0.5514997630232853 
2.85000000000159, -0.5508111329626968 
2.860000000001611, -0.5500966672028433 
2.870000000001632, -0.5494307906548225 
2.8800000000016532, -0.5489351980635438 
2.8900000000016743, -0.5487587922976537 
2.9000000000016954, -0.5489616192911263 
2.9100000000017165, -0.5492407942951778 
2.9200000000017377, -0.5486526987076757 
2.9300000000017588, -0.5459327937136165 
2.94000000000178, -0.5407021456963161 
2.950000000001801, -0.5341849310904699 
2.960000000001822, -0.5281890257145776 
2.970000000001843, -0.523756039643475 
2.9800000000018643, -0.5209605966289178 
2.9900000000018854, -0.519408123612908 
3.0000000000019065, -0.5186502025171708 
3.0100000000019276, -0.5183443066111378 
3.0200000000019487, -0.5182683878014538 
3.03000000000197, -0.5182902708882079 
3.040000000001991, -0.5183346635300371 
3.050000000002012, -0.5183589519167378 
3.060000000002033, -0.5183379171898391 
3.070000000002054, -0.5182552413939545 
3.0800000000020753, -0.5181000666653458 
3.0900000000020964, -0.5178675059713884 
3.1000000000021175, -0.5175618498613949 
3.1100000000021386, -0.517200016935437 
3.1200000000021597, -0.5168115929140071 
3.130000000002181, -0.5164327598140688 
3.140000000002202, -0.5160952739506317 
3.150000000002223, -0.5158155542194571 
3.160000000002244, -0.515589348850791 
3.1700000000022652, -0.515394400622636 
3.1800000000022863, -0.5151994976851852 
3.1900000000023074, -0.5149752991130083 
3.2000000000023285, -0.5147019735850202 
3.2100000000023496, -0.5143714651648976 
3.2200000000023707, -0.5139858655983979 
3.230000000002392, -0.5135550914283976 
3.240000000002413, -0.5130965610978683 
3.250000000002434, -0.5126385158512908 
3.260000000002455, -0.5122283048923645 
3.2700000000024763, -0.5119474844089321 
3.2800000000024974, -0.5119363074198974 
3.2900000000025185, -0.5124294508334226 
3.3000000000025396, -0.5137982175137112 
3.3100000000025607, -0.5165716618597986 
3.3200000000025818, -0.5213562368580091 
3.330000000002603, -0.5285126621131481 
3.340000000002624, -0.5375554146424741 
3.350000000002645, -0.546792251715468 
3.360000000002666, -0.5541393291030458 
3.3700000000026873, -0.5586924211291497 
3.3800000000027084, -0.5610726997725277 
3.3900000000027295, -0.562355125872866 
3.4000000000027506, -0.5632326241602443 
3.4100000000027717, -0.5639630031436272 
3.420000000002793, -0.5645914622190821 
3.430000000002814, -0.5651059246498878 
3.440000000002835, -0.5654943724342899 
3.450000000002856, -0.5657543196257235 
3.460000000002877, -0.565888138017709 
3.4700000000028983, -0.565897053588655 
3.4800000000029194, -0.5657770350610755 
3.4900000000029405, -0.5655171116111599 
3.5000000000029616, -0.5651006869061346 
3.5100000000029827, -0.5645109345019688 
3.520000000003004, -0.5637407028513312 
3.530000000003025, -0.5628042299800732 
3.540000000003046, -0.5617436125908559 
3.550000000003067, -0.5606227920964626 
3.5600000000030882, -0.55950968771805 
3.5700000000031094, -0.5584566859427036 
3.5800000000031305, -0.5574903645811823 
3.5900000000031516, -0.5566133387361083 
3.6000000000031727, -0.5558137327811069 
3.6100000000031938, -0.5550760211509319 
3.620000000003215, -0.554389168930044 
3.630000000003236, -0.5537511189159621 
3.640000000003257, -0.5531708637499909 
3.650000000003278, -0.5526700109384428 
3.6600000000032993, -0.5522853385064329 
3.6700000000033204, -0.5520731658691604 
3.6800000000033415, -0.5521159168963276 
3.6900000000033626, -0.552531053064875 
3.7000000000033837, -0.5534823313780114 
3.710000000003405, -0.5551925436733158 
3.720000000003426, -0.5579544131722506 
3.730000000003447, -0.5621301019090439 
3.740000000003468, -0.5681173034108083 
3.750000000003489, -0.576243169246393 
3.7600000000035103, -0.5865489703296752 
3.7700000000035314, -0.5985088133576384 
3.7800000000035525, -0.6109150716186176 
3.7900000000035736, -0.6222354699599971 
3.8000000000035947, -0.6313273169161279 
3.810000000003616, -0.6378771412927071 
3.820000000003637, -0.6422336739196327 
3.830000000003658, -0.6449793571862246 
3.840000000003679, -0.6466381170636325 
3.8500000000037002, -0.647584394294365 
3.8600000000037213, -0.6480555944017736 
3.8700000000037424, -0.6481887683024592 
3.8800000000037635, -0.6480503982292505 
3.8900000000037847, -0.6476530207550562 
3.9000000000038058, -0.6469598243428749 
3.910000000003827, -0.645879722878342 
3.920000000003848, -0.6442574023713852 
3.930000000003869, -0.6418698867495649 
3.94000000000389, -0.6384547521780473 
3.9500000000039113, -0.6338028192590694 
3.9600000000039324, -0.6279125830091045 
3.9700000000039535, -0.621108917625966 
3.9800000000039746, -0.6139855982995054 
3.9900000000039957, -0.6071757178807766 
4.000000000004016, -0.6011327175551884 
4.010000000003993, -0.5960618577365235 
4.02000000000397, -0.591975939429487 
4.030000000003946, -0.5887836301348403 
4.040000000003923, -0.5863560449088132 
4.0500000000039, -0.5845626736578253 
4.0600000000038765, -0.5832861117455448 
4.070000000003853, -0.5824259962289288 
4.08000000000383, -0.5818986920450928 
4.090000000003807, -0.5816358651876001 
4.100000000003783, -0.5815830930145564 
4.11000000000376, -0.5816987730430707 
4.120000000003737, -0.5819533200817248 
4.130000000003713, -0.5823285922333271 
4.14000000000369, -0.5828173573313798 
4.150000000003667, -0.5834222130746239 
4.1600000000036434, -0.584152749120044 
4.17000000000362, -0.5850193368674417 
4.180000000003597, -0.5860225976631337 
4.1900000000035735, -0.5871401434956368 
4.20000000000355, -0.5883164274358859 
4.210000000003527, -0.5894646903345324 
4.220000000003504, -0.5904862887162778 
4.23000000000348, -0.5913000585835448 
4.240000000003457, -0.5918637842866528 
4.250000000003434, -0.5921754883880914 
4.26000000000341, -0.5922586380448227 
4.270000000003387, -0.5921439368267891 
4.280000000003364, -0.5918563168974643 
4.2900000000033405, -0.5914084563797484 
4.300000000003317, -0.5907985076446179 
4.310000000003294, -0.5900095195099835 
4.320000000003271, -0.5890087851703346 
4.330000000003247, -0.587745133089006 
4.340000000003224, -0.5861391412927554 
4.350000000003201, -0.5840528287754141 
4.360000000003177, -0.5812130593329752 
4.370000000003154, -0.5770763571882106 
4.380000000003131, -0.5707553885026493 
4.390000000003107, -0.561392902569096 
4.400000000003084, -0.5491728301395069 
4.410000000003061, -0.5359164864831121 
4.4200000000030375, -0.5240365318648403 
4.430000000003014, -0.514970566336493 
4.440000000002991, -0.5088294960040333 
4.450000000002968, -0.5050064343283871 
4.460000000002944, -0.5027723499595931 
4.470000000002921, -0.5015386300962297 
4.480000000002898, -0.5009002286109795 
4.490000000002874, -0.5005997398114314 
4.500000000002851, -0.5004803914733412 
4.510000000002828, -0.5004487551921442 
4.520000000002804, -0.5004495365141624 
4.530000000002781, -0.5004499565083195 
4.540000000002758, -0.5004309912493957 
4.5500000000027345, -0.5003834908846504 
4.560000000002711, -0.5003076556255543 
4.570000000002688, -0.5002140649329241 
4.580000000002665, -0.5001237060787574 
4.590000000002641, -0.500064354271789 
4.600000000002618, -0.5000623796212558 
4.610000000002595, -0.5001321296198002 
4.620000000002571, -0.5002673866241614 
4.630000000002548, -0.5004395028251406 
4.640000000002525, -0.500604382389932 
4.6500000000025015, -0.500715840892331 
4.660000000002478, -0.5007385389250338 
4.670000000002455, -0.5006540176637229 
4.6800000000024315, -0.5004586749620964 
4.690000000002408, -0.5001574695682385 
4.700000000002385, -0.49975782160484883 
4.710000000002362, -0.4992660198220542 
4.720000000002338, -0.49868643869027285 
4.730000000002315, -0.4980230565276428 
4.740000000002292, -0.497282403274076 
4.750000000002268, -0.4964754684027044 
4.760000000002245, -0.49561016992250445 
4.770000000002222, -0.494650512471952 
4.7800000000021985, -0.49339314576185833 
4.790000000002175, -0.49122063564220575 
4.800000000002152, -0.48689296512671343 
4.810000000002129, -0.47899513095852964 
4.820000000002105, -0.467401696059006 
4.830000000002082, -0.45416847659346943 
4.840000000002059, -0.4421081827122532 
4.850000000002035, -0.4328299594500483 
4.860000000002012, -0.4264479213821873 
4.870000000001989, -0.42234742388869595 
4.880000000001965, -0.41981980078151127 
4.890000000001942, -0.41830649766783373 
4.900000000001919, -0.41742630182302587 
4.9100000000018955, -0.41693556412340255 
4.920000000001872, -0.4166835176655884 
