t, s[1].omega / s[0].omega 
0, -1.1599976567084087 
0.009999999999999995, -1.1596276795652616 
0.019999999999999934, -1.1589908022979334 
0.029999999999999874, -1.158097620733018 
0.04000000000000012, -1.1569799334018949 
0.050000000000000405, -1.155701054902388 
0.06000000000000069, -1.1543569650822547 
0.07000000000000098, -1.1530665313228452 
0.08000000000000126, -1.1519586117869656 
0.09000000000000155, -1.151155237731877 
0.10000000000000184, -1.1507253820571683 
0.11000000000000212, -1.1506221860594381 
0.12000000000000241, -1.1506833084470005 
0.130000000000002, -1.1507066449921577 
0.1400000000000009, -1.150511445162334 
0.1499999999999998, -1.1499420852414906 
0.1599999999999987, -1.1488554256458379 
0.1699999999999976, -1.147134016057028 
0.1799999999999965, -1.144720801637726 
0.1899999999999954, -1.1416356032829627 
0.1999999999999943, -1.137952848874693 
0.2099999999999932, -1.1337711440330407 
0.2199999999999921, -1.1292172777697416 
0.229999999999991, -1.1244974177078966 
0.2399999999999899, -1.1199705513044906 
0.2499999999999888, -1.1161554936238736 
0.2599999999999877, -1.1135345309818883 
0.2699999999999866, -1.1122120037930168 
0.2799999999999855, -1.1118207548214594 
0.2899999999999844, -1.1118227003035508 
0.2999999999999833, -1.111803763288248 
0.3099999999999822, -1.1115030826116619 
0.3199999999999811, -1.1106921544348651 
0.32999999999998, -1.1090429982019052 
0.3399999999999789, -1.106037614906127 
0.3499999999999778, -1.1009824800767336 
0.35999999999997667, -1.0932202327663947 
0.36999999999997557, -1.0824878589153137 
0.37999999999997447, -1.0691374588616995 
0.38999999999997337, -1.0540646743841848 
0.39999999999997227, -1.038561600330702 
0.40999999999997117, -1.0242454779873584 
0.41999999999997006, -1.0128063767576194 
0.42999999999996896, -1.005315648155597 
0.43999999999996786, -1.0015720962744137 
0.44999999999996676, -1.000340654235106 
0.45999999999996566, -1.00026946534317 
0.46999999999996456, -1.0004802841017273 
0.47999999999996346, -1.000554321379161 
0.48999999999996235, -1.0002922670342238 
0.49999999999996125, -0.9995119421224901 
0.5099999999999602, -0.9979108109996963 
0.519999999999959, -0.9949678206355901 
0.529999999999958, -0.9899323602348665 
0.5399999999999568, -0.9820445957712703 
0.5499999999999557, -0.9710233688159076 
0.5599999999999546, -0.9574386595080906 
0.5699999999999535, -0.9425238532904496 
0.5799999999999524, -0.9276589236225641 
0.5899999999999513, -0.9140470183253004 
0.5999999999999502, -0.9026394053771852 
0.6099999999999491, -0.8940615516344658 
0.619999999999948, -0.8884522924121331 
0.6299999999999469, -0.8853913576372507 
0.6399999999999458, -0.8840914869556337 
0.6499999999999447, -0.8837455563979942 
0.6599999999999436, -0.8837622161833087 
0.6699999999999425, -0.883792735405181 
0.6799999999999414, -0.8836424178092255 
0.6899999999999403, -0.883173424422606 
0.6999999999999392, -0.8822446603957653 
0.7099999999999381, -0.8807033692534744 
0.719999999999937, -0.8784365583101117 
0.7299999999999359, -0.8754567889931835 
0.7399999999999348, -0.871939138266786 
0.7499999999999337, -0.8681509611059169 
0.7599999999999326, -0.8643374339431132 
0.7699999999999315, -0.8606636269505333 
0.7799999999999304, -0.857228603544625 
0.7899999999999293, -0.854105481335399 
0.7999999999999282, -0.8513695240404431 
0.8099999999999271, -0.8491020552911397 
0.819999999999926, -0.8473723878462599 
0.8299999999999249, -0.8462073061776638 
0.8399999999999238, -0.8455656499955977 
0.8499999999999227, -0.8453378644152355 
0.8599999999999216, -0.8453749100623806 
0.8699999999999205, -0.845527730766129 
0.8799999999999194, -0.8456743982709672 
0.8899999999999183, -0.8457295783151272 
0.8999999999999172, -0.845645966446502 
0.9099999999999161, -0.8454148509436318 
0.919999999999915, -0.8450609026103018 
0.9299999999999139, -0.8446236475927856 
0.9399999999999128, -0.8441318863149825 
0.9499999999999117, -0.8435891045091412 
0.9599999999999106, -0.8429803747762943 
0.9699999999999095, -0.8422936741059004 
0.9799999999999084, -0.8415400267865679 
0.9899999999999073, -0.8407633713505024 
0.9999999999999062, -0.8400408660390674 
1.0099999999999052, -0.8394751785423719 
1.019999999999904, -0.8391767493279705 
1.029999999999903, -0.8392375939388406 
1.039999999999902, -0.8397075797909335 
1.0499999999999008, -0.8405859584319433 
1.0599999999998997, -0.8418308581114401 
1.0699999999998986, -0.8433790775268761 
1.0799999999998975, -0.8451663685134949 
1.0899999999998964, -0.8471403543044502 
1.0999999999998953, -0.8492595821787315 
1.1099999999998942, -0.8514749259540442 
1.119999999999893, -0.8536987425239866 
1.129999999999892, -0.8557843657183767 
1.1399999999998909, -0.8575490003078103 
1.1499999999998898, -0.8588444111877409 
1.1599999999998887, -0.8596207832764817 
1.1699999999998876, -0.8599268211880303 
1.1799999999998865, -0.85986226140967 
1.1899999999998854, -0.859540197758075 
1.1999999999998843, -0.8590908327266112 
1.2099999999998832, -0.8587062587280265 
1.219999999999882, -0.8587080526262139 
1.229999999999881, -0.8595924791762638 
1.2399999999998799, -0.8619805525781806 
1.2499999999998788, -0.866439920567037 
1.2599999999998777, -0.8732717085386305 
1.2699999999998766, -0.8824161736930374 
1.2799999999998755, -0.893504719353965 
1.2899999999998744, -0.9059316153818914 
1.2999999999998733, -0.9188389071223044 
1.3099999999998722, -0.9310877086848822 
1.319999999999871, -0.9414549387324871 
1.32999999999987, -0.9491316040660763 
1.3399999999998689, -0.9540927317927808 
1.3499999999998678, -0.9569141054499868 
1.3599999999998666, -0.9583011032105077 
1.3699999999998655, -0.9587929310788714 
1.3799999999998644, -0.9587161089685918 
1.3899999999998633, -0.9582538515539304 
1.3999999999998622, -0.9575571255558418 
1.4099999999998611, -0.9569175789568406 
1.41999999999986, -0.9570477985012011 
1.429999999999859, -0.959376459851504 
1.4399999999998578, -0.9659314431883105 
1.4499999999998567, -0.9783724317115526 
1.4599999999998556, -0.9967179066826107 
1.4699999999998545, -1.0190610560604034 
1.4799999999998534, -1.042450692262382 
1.4899999999998523, -1.0639407787728643 
1.4999999999998512, -1.081316859102231 
1.5099999999998501, -1.0936235875893239 
1.519999999999849, -1.1012791610736097 
1.529999999999848, -1.105513798764614 
1.5399999999998468, -1.1075941605038948 
1.5499999999998457, -1.1084211138911757 
1.5599999999998446, -1.1085194312206237 
1.5699999999998435, -1.1081791440851447 
1.5799999999998424, -1.1076235912218724 
1.5899999999998413, -1.1071976618495756 
1.5999999999998402, -1.107526640572999 
1.6099999999998391, -1.1094073122443364 
1.619999999999838, -1.1132828135385184 
1.629999999999837, -1.118827541368556 
1.6399999999998358, -1.1252171287874078 
1.6499999999998347, -1.1316734640281163 
1.6599999999998336, -1.1376936776152302 
1.6699999999998325, -1.1429867160221192 
1.6799999999998314, -1.1473632330557768 
1.6899999999998303, -1.1507006331872844 
1.6999999999998292, -1.1529775817076096 
1.709999999999828, -1.1543011321300063 
1.719999999999827, -1.1548683530523136 
1.729999999999826, -1.1548941334001848 
1.7399999999998248, -1.1545731976313809 
1.7499999999998237, -1.154098025853038 
1.7599999999998226, -1.1536959608146542 
1.7699999999998215, -1.1536122260898074 
1.7799999999998204, -1.1540051496325943 
1.7899999999998193, -1.15485698665132 
1.7999999999998182, -1.1560158627567194 
1.809999999999817, -1.1573019482871534 
1.819999999999816, -1.1585651156889656 
1.8299999999998149, -1.159694343996412 
1.8399999999998138, -1.1606162053760334 
1.8499999999998127, -1.1612895121732019 
1.8599999999998116, -1.161693580491309 
1.8699999999998105, -1.161815580052819 
1.8799999999998094, -1.1616462370230156 
1.8899999999998083, -1.1611872570441337 
1.8999999999998072, -1.1604638673398806 
1.909999999999806, -1.1595340719840568 
1.919999999999805, -1.1584906574924299 
1.9299999999998039, -1.15745104019475 
1.9399999999998028, -1.1565342551121707 
1.9499999999998017, -1.155840419461451 
1.9599999999998006, -1.1554369188852014 
1.9699999999997995, -1.1553285828454118 
1.9799999999997984, -1.1554271624267787 
1.9899999999997973, -1.1555734879925317 
1.9999999999997962, -1.1555977157680135 
2.0099999999998173, -1.1553547620890208 
2.0199999999998384, -1.1547264427076251 
2.0299999999998595, -1.1536240302044758 
2.0399999999998806, -1.15200360428085 
2.0499999999999017, -1.1498738531636998 
2.059999999999923, -1.1472804349218537 
2.069999999999944, -1.144283185677742 
2.079999999999965, -1.1409532643981264 
2.089999999999986, -1.1373993480450353 
2.100000000000007, -1.1338157840629741 
2.1100000000000283, -1.1305253976976641 
2.1200000000000494, -1.1279365020756376 
2.1300000000000705, -1.1263350906246328 
2.1400000000000916, -1.1256550591978045 
2.1500000000001127, -1.1255237027896046 
2.160000000000134, -1.1255271930052846 
2.170000000000155, -1.1253657005112665 
2.180000000000176, -1.1248146065016407 
2.190000000000197, -1.1236149094629209 
2.2000000000002182, -1.1213852307676022 
2.2100000000002393, -1.117612438757595 
2.2200000000002604, -1.1117812662221391 
2.2300000000002815, -1.103617174840607 
2.2400000000003026, -1.0932570264722128 
2.2500000000003237, -1.0812212204739484 
2.260000000000345, -1.0683301754038375 
2.270000000000366, -1.0557263750832975 
2.280000000000387, -1.0448521554812502 
2.290000000000408, -1.0370211298281855 
2.3000000000004293, -1.0326434705058531 
2.3100000000004504, -1.030955819987759 
2.3200000000004715, -1.0306947482300681 
2.3300000000004926, -1.0308771061303263 
2.3400000000005137, -1.0309886985990042 
2.3500000000005348, -1.0307908178581413 
2.360000000000556, -1.0300970714495856 
2.370000000000577, -1.0286108646385068 
2.380000000000598, -1.0257965126756852 
2.390000000000619, -1.0208087542762765 
2.4000000000006403, -1.0126368672293966 
2.4100000000006614, -1.000618139491572 
2.4200000000006825, -0.9850475474481486 
2.4300000000007036, -0.9672416731050191 
2.4400000000007247, -0.9490045679645687 
2.450000000000746, -0.9321031217391446 
2.460000000000767, -0.9180030113719501 
2.470000000000788, -0.9076383718659198 
2.480000000000809, -0.9011432614768893 
2.49000000000083, -0.8978260556629397 
2.5000000000008513, -0.8965623932256084 
2.5100000000008724, -0.8963157997053629 
2.5200000000008935, -0.8964009502524409 
2.5300000000009146, -0.8964519128724197 
2.5400000000009357, -0.896277860450727 
2.550000000000957, -0.8957369655422018 
2.560000000000978, -0.8946618004322924 
2.570000000000999, -0.8928418848545073 
2.58000000000102, -0.8900809267674047 
2.5900000000010412, -0.8863220737274979 
2.6000000000010624, -0.8817428074176425 
2.6100000000010835, -0.8766991482904942 
2.6200000000011046, -0.8715617644091904 
2.6300000000011257, -0.8666028065347413 
2.6400000000011468, -0.8619927958555221 
2.650000000001168, -0.8578506286680174 
2.660000000001189, -0.8542841935400962 
2.67000000000121, -0.8513965534734339 
2.680000000001231, -0.8492587503852514 
2.6900000000012523, -0.8478680578624548 
2.7000000000012734, -0.8471244427322453 
2.7100000000012945, -0.8468502801305824 
2.7200000000013156, -0.8468429873421227 
2.7300000000013367, -0.8469236240301697 
2.740000000001358, -0.8469573185257216 
2.750000000001379, -0.8468516857243487 
2.7600000000014, -0.8465526116200763 
2.770000000001421, -0.8460472063828198 
2.780000000001442, -0.8453652685442182 
2.7900000000014633, -0.844564069094692 
2.8000000000014844, -0.8436984459377013 
2.8100000000015055, -0.8427978320061775 
2.8200000000015266, -0.8418664561626669 
2.8300000000015477, -0.840902172674193 
2.840000000001569, -0.8399180012438139 
2.85000000000159, -0.8389546355336779 
2.860000000001611, -0.8380812632610445 
2.870000000001632, -0.8373857979223268 
2.8800000000016532, -0.8369561771623757 
2.8900000000016743, -0.8368581219087798 
2.9000000000016954, -0.8371188059260113 
2.9100000000017165, -0.8377232958424462 
2.9200000000017377, -0.8386234597164199 
2.9300000000017588, -0.8397544815899041 
2.94000000000178, -0.8410530104311048 
2.950000000001801, -0.8424704791822362 
2.960000000001822, -0.8439752092888108 
2.970000000001843, -0.8455392767023046 
2.9800000000018643, -0.8471130970441142 
2.9900000000018854, -0.8486033167736521 
3.0000000000019065, -0.8498792826024271 
3.0100000000019276, -0.8508186633715771 
3.0200000000019487, -0.8513612497262997 
3.03000000000197, -0.8515246204535238 
3.040000000001991, -0.8513793246262809 
3.050000000002012, -0.8510224042492597 
3.060000000002033, -0.8505794118337019 
3.070000000002054, -0.8502370813364473 
3.0800000000020753, -0.8502860930662234 
3.0900000000020964, -0.8511317877654013 
3.1000000000021175, -0.8532270890307193 
3.1100000000021386, -0.8569346747157569 
3.1200000000021597, -0.8624061256795189 
3.130000000002181, -0.8695627028552432 
3.140000000002202, -0.8781570871186978 
3.150000000002223, -0.887818372095568 
3.160000000002244, -0.8980149158523504 
3.1700000000022652, -0.9079806412047423 
3.1800000000022863, -0.9167762497567712 
3.1900000000023074, -0.9236198847312332 
3.2000000000023285, -0.9282676432813505 
3.2100000000023496, -0.9310294727794276 
3.2200000000023707, -0.9324430121484247 
3.230000000002392, -0.9329794515390644 
3.240000000002413, -0.9329482379271881 
3.250000000002434, -0.9325306489147478 
3.260000000002455, -0.9318681828792091 
3.2700000000024763, -0.9312089260652274 
3.2800000000024974, -0.9311548939148878 
3.2900000000025185, -0.9329720615893297 
3.3000000000025396, -0.9386494373292431 
3.3100000000025607, -0.9502157646682772 
3.3200000000025818, -0.9684411027842088 
3.330000000002603, -0.9920327065368337 
3.340000000002624, -1.018052581058725 
3.350000000002645, -1.0429974048828703 
3.360000000002666, -1.0638560795319325 
3.3700000000026873, -1.079008423090023 
3.3800000000027084, -1.0886043374919276 
3.3900000000027295, -1.0939902635530172 
3.4000000000027506, -1.0967019350216278 
3.4100000000027717, -1.0978714273210322 
3.420000000002793, -1.0981634566568208 
3.430000000002814, -1.0979293330264779 
3.440000000002835, -1.097387128435951 
3.450000000002856, -1.0968144245629614 
3.460000000002877, -1.0967655707196833 
3.4700000000028983, -1.0981450823696965 
3.4800000000029194, -1.1017983342281372 
3.4900000000029405, -1.1078025248105636 
3.5000000000029616, -1.115355193376058 
3.5100000000029827, -1.1233928969455564 
3.520000000003004, -1.131107176267847 
3.530000000003025, -1.1380069019078434 
3.540000000003046, -1.1437897095140488 
3.550000000003067, -1.1482690452931732 
3.5600000000030882, -1.1514002092484341 
3.5700000000031094, -1.153313406769807 
3.5800000000031305, -1.1542642610376663 
3.5900000000031516, -1.1545313469123197 
3.6000000000031727, -1.154351374395596 
3.6100000000031938, -1.1539284314624203 
3.620000000003215, -1.1534881355170794 
3.630000000003236, -1.153305047576622 
3.640000000003257, -1.1536239771066132 
3.650000000003278, -1.1545162364225494 
3.6600000000032993, -1.1558486365453933 
3.6700000000033204, -1.1574013730937007 
3.6800000000033415, -1.1589799937787386 
3.6900000000033626, -1.160446692129368 
3.7000000000033837, -1.1617131050245044 
3.710000000003405, -1.1627279895269151 
3.720000000003426, -1.1634627313425265 
3.730000000003447, -1.1638974496144223 
3.740000000003468, -1.164016254153748 
3.750000000003489, -1.163815244537881 
3.7600000000035103, -1.1633155445078607 
3.7700000000035314, -1.1625717257318393 
3.7800000000035525, -1.1616739911810463 
3.7900000000035736, -1.1607418090611024 
3.8000000000035947, -1.1599013736425416 
3.810000000003616, -1.1592557657642835 
3.820000000003637, -1.15887005209522 
3.830000000003658, -1.1587611411452579 
3.840000000003679, -1.1588742128646898 
3.8500000000037002, -1.1590804961042682 
3.8600000000037213, -1.1592206904869797 
3.8700000000037424, -1.159150528423124 
3.8800000000037635, -1.1587553560408168 
3.8900000000037847, -1.1579518901747738 
3.9000000000038058, -1.1566963591998254 
3.910000000003827, -1.1549895581464897 
3.920000000003848, -1.1528647137343997 
3.930000000003869, -1.1503678144590084 
3.94000000000389, -1.1475522604761468 
3.9500000000039113, -1.1444961895278711 
3.9600000000039324, -1.1413375035415025 
3.9700000000039535, -1.1383146962547597 
3.9800000000039746, -1.1357687354223347 
3.9900000000039957, -1.134020361554912 
4.000000000004016, -1.133145542064299 
4.010000000003993, -1.1328966488795469 
4.02000000000397, -1.1328882346518678 
4.030000000003946, -1.1327983131051842 
4.040000000003923, -1.132392812800993 
4.0500000000039, -1.131438820998429 
4.0600000000038765, -1.1296155730027782 
4.070000000003853, -1.126487682755163 
4.08000000000383, -1.1215936919215173 
4.090000000003807, -1.11464197783554 
4.100000000003783, -1.1056716574815326 
4.11000000000376, -1.0950499168453525 
4.120000000003737, -1.0834006202773365 
4.130000000003713, -1.0716319649655281 
4.14000000000369, -1.0609966400037105 
4.150000000003667, -1.0528454210426756 
4.1600000000036434, -1.0479139849538988 
4.17000000000362, -1.0457909154861824 
4.180000000003597, -1.045325624317294 
4.1900000000035735, -1.0454647427288273 
4.20000000000355, -1.0456071282435828 
4.210000000003527, -1.0454735307333054 
4.220000000003504, -1.0448753666588078 
4.23000000000348, -1.0435357090176784 
4.240000000003457, -1.0409450303131724 
4.250000000003434, -1.0362554659389078 
4.26000000000341, -1.0283527721370298 
4.270000000003387, -1.0163200146038565 
4.280000000003364, -1.0001572349612096 
4.2900000000033405, -0.9810756004337555 
4.300000000003317, -0.9610507366643964 
4.310000000003294, -0.9421866226399075 
4.320000000003271, -0.926305139249201 
4.330000000003247, -0.9146024627404322 
4.340000000003224, -0.9072984110516618 
4.350000000003201, -0.9036079625368637 
4.360000000003177, -0.9022306751717755 
4.370000000003154, -0.9019811000039405 
4.380000000003131, -0.9020927592536039 
4.390000000003107, -0.9021697595570294 
4.400000000003084, -0.9020149032590574 
4.410000000003061, -0.9014851994474942 
4.4200000000030375, -0.9004054118499266 
4.430000000003014, -0.8985388318237935 
4.440000000002991, -0.8956358188913106 
4.450000000002968, -0.8915721886025175 
4.460000000002944, -0.88648899630876 
4.470000000002921, -0.8807730025704019 
4.480000000002898, -0.8748743506436041 
4.490000000002874, -0.8691464893400782 
4.500000000002851, -0.863817420048478 
4.510000000002828, -0.8590411645580984 
4.520000000002804, -0.8549479094353611 
4.530000000002781, -0.851654602030732 
4.540000000002758, -0.849234726112053 
4.5500000000027345, -0.8476715893120338 
4.560000000002711, -0.8468361930525686 
4.570000000002688, -0.846516952087839 
4.580000000002665, -0.8464835612029719 
4.590000000002641, -0.8465400045476247 
4.600000000002618, -0.846542241318391 
4.610000000002595, -0.8463914362887651 
4.620000000002571, -0.8460262609772778 
4.630000000002548, -0.8454264087402419 
4.640000000002525, -0.8446186224514561 
4.6500000000025015, -0.8436658548744101 
4.660000000002478, -0.8426363412481449 
4.670000000002455, -0.8415746692493861 
4.6800000000024315, -0.8404961527958894 
4.690000000002408, -0.8394033151860422 
4.700000000002385, -0.8383083965430607 
4.710000000002362, -0.8372480906291996 
4.720000000002338, -0.8362859756085725 
4.730000000002315, -0.8355035329755705 
4.740000000002292, -0.8349823799732117 
4.750000000002268, -0.8347834469184561 
4.760000000002245, -0.8349315482653249 
4.770000000002222, -0.8354112469932976 
4.7800000000021985, -0.8361742266208851 
4.790000000002175, -0.8371546653805778 
4.800000000002152, -0.838287371312394 
4.810000000002129, -0.8395222003116497 
4.820000000002105, -0.84082833291765 
4.830000000002082, -0.8421841500838201 
4.840000000002059, -0.8435541781715691 
4.850000000002035, -0.8448655046210569 
4.860000000002012, -0.8460063242443927 
4.870000000001989, -0.8468609424439463 
4.880000000001965, -0.8473606287111299 
4.890000000001942, -0.8475073941416302 
4.900000000001919, -0.8473586815599834 
4.9100000000018955, -0.8470034478907923 
4.920000000001872, -0.846560533245078 
4.930000000001849, -0.8462048370078515 
