t, s[1].omega / s[0].omega 
0, -1.05991278274359 
0.009999999999999995, -1.0510912759343867 
0.019999999999999934, -1.0420762900333895 
0.029999999999999874, -1.0328740524236069 
0.04000000000000012, -1.0234909152197071 
0.050000000000000405, -1.0139333500111163 
0.06000000000000069, -1.0042079424744053 
0.07000000000000098, -0.9943213868598052 
0.08000000000000126, -0.9842804803571152 
0.09000000000000155, -0.9740921173465906 
0.10000000000000184, -0.9637632835408121 
0.11000000000000212, -0.9533010500238608 
0.12000000000000241, -0.9427125671945046 
0.130000000000002, -0.9320050586204038 
0.1400000000000009, -0.9211858148106978 
0.1499999999999998, -0.9102621869145952 
0.1599999999999987, -0.8992415803539096 
0.1699999999999976, -0.8881314483977089 
0.1799999999999965, -0.8769392856874964 
0.1899999999999954, -0.8656726217215387 
0.1999999999999943, -0.8543390143071501 
0.2099999999999932, -0.8429460429898659 
0.2199999999999921, -0.8315013024685828 
0.229999999999991, -0.8200123960058285 
0.2399999999999899, -0.8084869288423588 
0.2499999999999888, -0.7969325016253311 
0.2599999999999877, -0.7853567038592777 
0.2699999999999866, -0.7737671073890641 
0.2799999999999855, -0.7621712599239499 
0.2899999999999844, -0.7505766786117439 
0.2999999999999833, -0.738990843671932 
0.3099999999999822, -0.7274211920964574 
0.3199999999999811, -0.7158751114266623 
0.32999999999998, -0.7043599336146372 
0.3399999999999789, -0.6928829289769965 
0.3499999999999778, -0.6814513002487985 
0.35999999999997667, -0.6700721767450224 
0.36999999999997557, -0.6587526086366918 
0.37999999999997447, -0.647499561348375 
0.38999999999997337, -0.6363199100834251 
0.39999999999997227, -0.6252204344829452 
0.40999999999997117, -0.6142078134240514 
0.41999999999997006, -0.6032886199626115 
0.42999999999996896, -0.5924693164252003 
0.43999999999996786, -0.5817562496546025 
0.44999999999996676, -0.5711556464127497 
0.45999999999996566, -0.5606736089445558 
0.46999999999996456, -0.5503161107056708 
0.47999999999996346, -0.5400889922567611 
0.48999999999996235, -0.5299979573264855 
0.49999999999996125, -0.5200485690449119 
0.5099999999999602, -0.5102462463487455 
0.519999999999959, -0.5005962605592937 
0.529999999999958, -0.49110373213375785 
0.5399999999999568, -0.4817736275900344 
0.5499999999999557, -0.4726107566048799 
0.5599999999999546, -0.4636197692849464 
0.5699999999999535, -0.4548051536098839 
0.5799999999999524, -0.4461712330464096 
0.5899999999999513, -0.43772216433196726 
0.5999999999999502, -0.429461935426347 
0.6099999999999491, -0.4213943636294082 
0.619999999999948, -0.413523093862838 
0.6299999999999469, -0.40585159711369184 
0.6399999999999458, -0.3983831690373035 
0.6499999999999447, -0.3911209287170116 
0.6599999999999436, -0.3840678175780347 
0.6699999999999425, -0.37722659845273293 
0.6799999999999414, -0.3705998547944223 
0.6899999999999403, -0.36418999003685826 
0.6999999999999392, -0.35799922709647575 
0.7099999999999381, -0.3520296080144603 
0.719999999999937, -0.3462829937357373 
0.7299999999999359, -0.3407610640219839 
0.7399999999999348, -0.3354653174958213 
0.7499999999999337, -0.33039707181339156 
0.7599999999999326, -0.3255574639625982 
0.7699999999999315, -0.32094745068437025 
0.7799999999999304, -0.31656780901440523 
0.7899999999999293, -0.31241913694294393 
0.7999999999999282, -0.308501854190243 
0.8099999999999271, -0.3048162030955242 
0.819999999999926, -0.30136224961730423 
0.8299999999999249, -0.2981398844431224 
0.8399999999999238, -0.2951488242068218 
0.8499999999999227, -0.2923886128116473 
0.8599999999999216, -0.28985862285756464 
0.8699999999999205, -0.2875580571713056 
0.8799999999999194, -0.2854859504377767 
0.8899999999999183, -0.2836411709315679 
0.8999999999999172, -0.2820224223474003 
0.9099999999999161, -0.2806282457284573 
0.919999999999915, -0.2794570214916113 
0.9299999999999139, -0.27850697154865117 
0.9399999999999128, -0.2777761615226655 
0.9499999999999117, -0.27726250305879746 
0.9599999999999106, -0.2769637562286194 
0.9699999999999095, -0.2768775320274062 
0.9799999999999084, -0.27700129496359827 
0.9899999999999073, -0.27733236573973596 
0.9999999999999062, -0.27786792402413973 
1.0099999999999052, -0.27860501131257026 
1.019999999999904, -0.27954053387906247 
1.029999999999903, -0.2806712658150645 
1.039999999999902, -0.28199385215593514 
1.0499999999999008, -0.283504812093762 
1.0599999999998997, -0.28520054227537056 
1.0699999999998986, -0.28707732018425913 
1.0799999999998975, -0.28913130760507966 
1.0899999999998964, -0.2913585541691368 
1.0999999999998953, -0.2937550009792231 
1.1099999999998942, -0.29631648431195073 
1.119999999999893, -0.29903873939556264 
1.129999999999892, -0.30191740426102304 
1.1399999999998909, -0.3049480236640097 
1.1499999999998898, -0.308126053075223 
1.1599999999998887, -0.31144686273623867 
1.1699999999998876, -0.3149057417779222 
1.1799999999998865, -0.31849790239822245 
1.1899999999998854, -0.3222184840959574 
1.1999999999998843, -0.3260625579569934 
1.2099999999998832, -0.33002513098903086 
1.219999999999882, -0.3341011505009912 
1.229999999999881, -0.33828550852282474 
1.2399999999998799, -0.3425730462613578 
1.2499999999998788, -0.34695855858761976 
1.2599999999998777, -0.3514367985509229 
1.2699999999998766, -0.3560024819147957 
1.2799999999998755, -0.36065029170973306 
1.2899999999998744, -0.36537488279756986 
1.2999999999998733, -0.3701708864421777 
1.3099999999998722, -0.37503291488105533 
1.319999999999871, -0.37995556589229856 
1.32999999999987, -0.38493342735135 
1.3399999999998689, -0.38996108177185984 
1.3499999999998678, -0.3950331108249537 
1.3599999999998666, -0.4001440998311621 
1.3699999999998655, -0.405288642219257 
1.3799999999998644, -0.4104613439462508 
1.3899999999998633, -0.4156568278728369 
1.3999999999998622, -0.42086973808858863 
1.4099999999998611, -0.4260947441813016 
1.41999999999986, -0.4313265454449408 
1.429999999999859, -0.4365598750207497 
1.4399999999998578, -0.4417895039661946 
1.4499999999998567, -0.44701024524655414 
1.4599999999998556, -0.45221695764410047 
1.4699999999998545, -0.4574045495799933 
1.4799999999998534, -0.462567982844183 
1.4899999999998523, -0.4677022762288107 
1.4999999999998512, -0.4728025090607995 
1.5099999999998501, -0.47786382462955096 
1.519999999999849, -0.4828814335058923 
1.529999999999848, -0.48785061674865304 
1.5399999999998468, -0.4927667289955049 
1.5499999999998457, -0.49762520143495464 
1.5599999999998446, -0.5024215446566397 
1.5699999999998435, -0.5071513513773508 
1.5799999999998424, -0.5118102990404723 
1.5899999999998413, -0.5163941522868166 
1.5999999999998402, -0.5208987652950994 
1.6099999999998391, -0.5253200839905876 
1.619999999999838, -0.5296541481207312 
1.629999999999837, -0.53389709319686 
1.6399999999998358, -0.538045152301319 
1.6499999999998347, -0.5420946577596654 
1.6599999999998336, -0.5460420426778464 
1.6699999999998325, -0.5498838423445043 
1.6799999999998314, -0.5536166954988474 
1.6899999999998303, -0.5572373454647461 
1.6999999999998292, -0.5607426411519731 
1.709999999999828, -0.5641295379257278 
1.719999999999827, -0.5673950983458128 
1.729999999999826, -0.5705364927770514 
1.7399999999998248, -0.5735509998727205 
1.7499999999998237, -0.5764360069329861 
1.7599999999998226, -0.5791890101404981 
1.7699999999998215, -0.5818076146754754 
1.7799999999998204, -0.5842895347127762 
1.7899999999998193, -0.5866325933035849 
1.7999999999998182, -0.5888347221444916 
1.809999999999817, -0.5908939612368718 
1.819999999999816, -0.5928084584395577 
1.8299999999998149, -0.5945764689179333 
1.8399999999998138, -0.5961963544926395 
1.8499999999998127, -0.5976665828911726 
1.8599999999998116, -0.5989857269057213 
1.8699999999998105, -0.6001524634606435 
1.8799999999998094, -0.6011655725930293 
1.8899999999998083, -0.6020239363498235 
1.8999999999998072, -0.6027265376050255 
1.909999999999806, -0.6032724588004843 
1.919999999999805, -0.6036608806138092 
1.9299999999998039, -0.6038910805569325 
1.9399999999998028, -0.6039624315088343 
1.9499999999998017, -0.6038744001859262 
1.9599999999998006, -0.6036265455535701 
1.9699999999997995, -0.6032185171821651 
1.9799999999997984, -0.6026500535512135 
1.9899999999997973, -0.6019209803047102 
1.9999999999997962, -0.6010312084611694 
2.0099999999998173, -0.5999807325815446 
2.0199999999998384, -0.5987696288982212 
2.0299999999998595, -0.5973980534082223 
2.0399999999998806, -0.595866239933683 
2.0499999999999017, -0.5941744981525936 
2.059999999999923, -0.5923232116027163 
2.069999999999944, -0.5903128356615324 
2.079999999999965, -0.5881438955049779 
2.089999999999986, -0.5858169840476584 
2.100000000000007, -0.5833327598671492 
2.1100000000000283, -0.5806919451149061 
2.1200000000000494, -0.5778953234162282 
2.1300000000000705, -0.5749437377616378 
2.1400000000000916, -0.5718380883919583 
2.1500000000001127, -0.5685793306792742 
2.160000000000134, -0.5651684730059047 
2.170000000000155, -0.5616065746434108 
2.180000000000176, -0.5578947436335938 
2.190000000000197, -0.5540341346733616 
2.2000000000002182, -0.5500259470052434 
2.2100000000002393, -0.5458714223152915 
2.2200000000002604, -0.5415718426399854 
2.2300000000002815, -0.5371285282837232 
2.2400000000003026, -0.532542835748386 
2.2500000000003237, -0.5278161556763966 
2.260000000000345, -0.5229499108086231 
2.270000000000366, -0.5179455539584141 
2.280000000000387, -0.512804566002985 
2.290000000000408, -0.5075284538932955 
2.3000000000004293, -0.5021187486835296 
2.3100000000004504, -0.49657700358118945 
2.3200000000004715, -0.49090479201878395 
2.3300000000004926, -0.4851037057480229 
2.3400000000005137, -0.4791753529573788 
2.3500000000005348, -0.4731213564138185 
2.360000000000556, -0.4669433516294633 
2.370000000000577, -0.46064298505388096 
2.380000000000598, -0.45422191229266606 
2.390000000000619, -0.4476817963529256 
2.4000000000006403, -0.4410243059162298 
2.4100000000006614, -0.43425111363956104 
2.4200000000006825, -0.42736389448474155 
2.4300000000007036, -0.4203643240767871 
2.4400000000007247, -0.41325407709159023 
2.450000000000746, -0.40603482567331645 
2.460000000000767, -0.3987082378818371 
2.470000000000788, -0.3912759761705175 
2.480000000000809, -0.3837396958946259 
2.49000000000083, -0.37610104385061177 
2.5000000000008513, -0.36836165684647 
2.5100000000008724, -0.36052316030337694 
2.5200000000008935, -0.35258716688876834 
2.5300000000009146, -0.34455527518099405 
2.5400000000009357, -0.3364290683656671 
2.550000000000957, -0.328210112963809 
2.560000000000978, -0.31989995759186 
2.570000000000999, -0.31150013175361707 
2.58000000000102, -0.30301214466413645 
2.5900000000010412, -0.294437484105629 
2.6000000000010624, -0.2857776153153524 
2.6100000000010835, -0.2770339799055011 
2.6200000000011046, -0.2682079948150778 
2.6300000000011257, -0.25930105129371545 
2.6400000000011468, -0.2503145139174194 
2.650000000001168, -0.24124971963618144 
2.660000000001189, -0.23210797685341814 
2.67000000000121, -0.2228905645371729 
2.680000000001231, -0.21359873136302676 
2.6900000000012523, -0.20423369488865012 
2.7000000000012734, -0.19479664075993378 
2.7100000000012945, -0.1852887219486356 
2.7200000000013156, -0.17571105802147763 
2.7300000000013367, -0.16606473444063574 
2.740000000001358, -0.15635080189556905 
2.750000000001379, -0.14657027566613476 
2.7600000000014, -0.13672413501695108 
2.770000000001421, -0.1268133226229753 
2.780000000001442, -0.11683874402627303 
2.7900000000014633, -0.10680126712397038 
2.8000000000014844, -0.09670172168739274 
2.8100000000015055, -0.0865408989124097 
2.8200000000015266, -0.0763195510010222 
2.8300000000015477, -0.06603839077424799 
2.840000000001569, -0.05569809131637925 
2.85000000000159, -0.04529928565071216 
2.860000000001611, -0.03484256644686831 
2.870000000001632, -0.02432848575985628 
2.8800000000016532, -0.013757554801046887 
2.8900000000016743, -0.0031302437412662238 
2.9000000000016954, 0.00002488046165759698 
2.9100000000017165, 0.000010717955060614621 
2.9200000000017377, -0.0000026725001763287513 
2.9300000000017588, -0.000013495376375383976 
2.94000000000178, 0.00003817251402580079 
2.950000000001801, 0.00003784906231967772 
2.960000000001822, -0.000012685946868538886 
2.970000000001843, 0.000004608860971391458 
2.9800000000018643, 0.0000333702614624824 
2.9900000000018854, 0.000017230896244524663 
3.0000000000019065, 0.000016086139618174377 
3.0100000000019276, 0.00003169445349313196 
3.0200000000019487, 0.00000767747406175713 
3.03000000000197, 0.000003920537277335977 
3.040000000001991, 0.000022172548261428902 
3.050000000002012, 0.000006046982132005618 
3.060000000002033, 0.00001542173342654198 
3.070000000002054, -0.000006093895461341627 
3.0800000000020753, 0.0000013743398310477395 
3.0900000000020964, 0.00003956629664445097 
3.1000000000021175, -0.000006045843170278742 
3.1100000000021386, 0.00004067620471256453 
3.1200000000021597, 0.00000707041952563659 
3.130000000002181, 0.00001114151196475435 
3.140000000002202, -0.0000035054087465073927 
3.150000000002223, 0.000023002137541270034 
3.160000000002244, 0.0000052039256998714635 
3.1700000000022652, 0.0000029747492410477937 
3.1800000000022863, 0.00004712457421175058 
3.1900000000023074, 0.00005219880262882738 
3.2000000000023285, 0.000049011743560646244 
3.2100000000023496, 0.000010247400089516678 
3.2200000000023707, 0.00005392627697276542 
3.230000000002392, 0.000007405739185019656 
3.240000000002413, 0.000017780436982532464 
3.250000000002434, 0.00005774931588897866 
3.260000000002455, 0.000012816030586317445 
3.2700000000024763, 0.000059155865057599634 
3.2800000000024974, 0.00002414944641348701 
3.2900000000025185, 0.000025849835752738356 
3.3000000000025396, 0.000007916123206149449 
3.3100000000025607, 0.000001213933374022203 
3.3200000000025818, 0.0000075485324841405375 
3.330000000002603, 0.000028733915158400854 
3.340000000002624, 0.00003752444780817787 
3.350000000002645, 0.00006481569957579184 
3.360000000002666, 0.000025245187073400715 
3.3700000000026873, 0.00000785986670540466 
3.3800000000027084, 0.000014516404742333595 
3.3900000000027295, 0.000018014753093675604 
3.4000000000027506, 0.000020231065832680094 
3.4100000000027717, 0.000023052640487968423 
3.420000000002793, 0.000028379123164994432 
3.430000000002814, 0.000009054026727217827 
3.440000000002835, 0.00002513296302008735 
3.450000000002856, 0.00007855028899976798 
3.460000000002877, 0.000025920574930257674 
3.4700000000028983, 0.000014538575332959258 
3.4800000000029194, 0.00001731383456946364 
3.4900000000029405, 0.000007170355698839141 
3.5000000000029616, 0.00004424629478350698 
3.5100000000029827, 0.000014294044650664946 
3.520000000003004, 0.00015188334546444577 
3.530000000003025, 0.00045905416044137316 
3.540000000003046, 0.0009378486987225288 
3.550000000003067, 0.0015903129285012127 
3.5600000000030882, 0.0024184981080916414 
3.5700000000031094, 0.003424462333890889 
3.5800000000031305, 0.00461027210411242 
3.5900000000031516, 0.005978003897089182 
3.6000000000031727, 0.007529745762856678 
3.6100000000031938, 0.009267598926631515 
3.620000000003215, 0.01119367940269764 
3.630000000003236, 0.01331011961710078 
3.640000000003257, 0.01561907003743038 
3.650000000003278, 0.018122700807837767 
3.6600000000032993, 0.020823203387297554 
3.6700000000033204, 0.023722792188967015 
3.6800000000033415, 0.026823706218333798 
3.6900000000033626, 0.03012821070766571 
3.7000000000033837, 0.033638598744085764 
3.710000000003405, 0.03735719288839207 
3.720000000003426, 0.04128634678152327 
3.730000000003447, 0.04542844673533503 
3.740000000003468, 0.04978591330410307 
3.750000000003489, 0.0543612028328991 
3.7600000000035103, 0.05915680897870026 
3.7700000000035314, 0.0641752641997867 
3.7800000000035525, 0.06941914120865647 
3.7900000000035736, 0.07489105438334112 
3.8000000000035947, 0.08059366113163606 
3.810000000003616, 0.08652966320237022 
3.820000000003637, 0.09270180793742439 
3.830000000003658, 0.09911288945776904 
3.840000000003679, 0.10576574977632747 
3.8500000000037002, 0.11266327982998119 
3.8600000000037213, 0.11980842042251616 
3.8700000000037424, 0.12720416306976498 
3.8800000000037635, 0.13485355073762473 
3.8900000000037847, 0.14275967846303245 
3.9000000000038058, 0.15092569384734808 
3.910000000003827, 0.15935479741093259 
3.920000000003848, 0.16805024279702505 
3.930000000003869, 0.177015336812301 
3.94000000000389, 0.1862534392907491 
3.9500000000039113, 0.19576796276672742 
3.9600000000039324, 0.2055623719422615 
3.9700000000039535, 0.21564018293281845 
3.9800000000039746, 0.22600496227493655 
3.9900000000039957, 0.2366603256782258 
4.000000000004016, 0.2476099365033533 
4.010000000003993, 0.25885750394673024 
4.02000000000397, 0.27040678091169124 
4.030000000003946, 0.28226156154503845 
4.040000000003923, 0.2944256784168881 
4.0500000000039, 0.3069029993208424 
4.0600000000038765, 0.3196974236706006 
4.070000000003853, 0.3328128784682303 
4.08000000000383, 0.3462533138184634 
4.090000000003807, 0.36002269796256653 
4.100000000003783, 0.37412501180456736 
4.11000000000376, 0.3885642429019245 
4.120000000003737, 0.4033443788921033 
4.130000000003713, 0.41846940032601593 
4.14000000000369, 0.4339432728788615 
4.150000000003667, 0.449769938908655 
4.1600000000036434, 0.4659533083326074 
4.17000000000362, 0.4824972487916017 
4.180000000003597, 0.4994055750732858 
4.1900000000035735, 0.5166820377648123 
4.20000000000355, 0.5343303111070357 
4.210000000003527, 0.5523539800230436 
4.220000000003504, 0.5707565262953024 
4.23000000000348, 0.5895413138674485 
4.240000000003457, 0.608711573248913 
4.250000000003434, 0.6282703850031677 
4.26000000000341, 0.6482206623034186 
4.270000000003387, 0.6685651325431675 
4.280000000003364, 0.689306317993153 
4.2900000000033405, 0.7104465155009043 
4.300000000003317, 0.7319877752344341 
4.310000000003294, 0.7539318784775964 
4.320000000003271, 0.7762803144912507 
4.330000000003247, 0.7990342564617763 
4.340000000003224, 0.822194536566534 
4.350000000003201, 0.8457616201947277 
4.360000000003177, 0.8697355793716994 
4.370000000003154, 0.8941160654450154 
4.380000000003131, 0.9189022811017763 
4.390000000003107, 0.9440929517983458 
4.400000000003084, 0.969686296696149 
4.410000000003061, 0.9956799992102332 
4.4200000000030375, 1.022071177290881 
4.430000000003014, 1.0488563535726083 
4.440000000002991, 1.0760314255392667 
4.450000000002968, 1.1035916358685247 
4.460000000002944, 1.1315315431336854 
4.470000000002921, 1.1598449930552526 
4.480000000002898, 1.1885250905088567 
4.490000000002874, 1.2175641725097903 
4.500000000002851, 1.2469537824072194 
4.510000000002828, 1.2766846455329235 
4.520000000002804, 1.30674664655985 
4.530000000002781, 1.337128808834594 
4.540000000002758, 1.367819275954768 
4.5500000000027345, 1.3988052958668709 
4.560000000002711, 1.4300732077623177 
4.570000000002688, 1.4616084320485383 
4.580000000002665, 1.4933954636680902 
4.590000000002641, 1.5254178690314362 
4.600000000002618, 1.5576582868180322 
4.610000000002595, 1.5900984328855707 
4.620000000002571, 1.6227191095084839 
4.630000000002548, 1.655500219143878 
4.640000000002525, 1.6884207828962619 
4.6500000000025015, 1.7214589638213935 
4.660000000002478, 1.7545920951747733 
4.670000000002455, 1.7877967136718182 
4.6800000000024315, 1.821048597784884 
4.690000000002408, 1.854322811057487 
4.700000000002385, 1.8875937503688205 
4.710000000002362, 1.9208351990324748 
4.720000000002338, 1.9540203845628688 
4.730000000002315, 1.9871220408919532 
4.740000000002292, 2.020112474768075 
4.750000000002268, 2.0529636360192685 
4.760000000002245, 2.085647191315498 
4.770000000002222, 2.1181346010194333 
4.7800000000021985, 2.1503971986739194 
4.790000000002175, 2.1824062726372313 
4.800000000002152, 2.214133149345304 
4.810000000002129, 2.2455492776538652 
4.820000000002105, 2.2766263136935514 
4.830000000002082, 2.3073362056578484 
4.840000000002059, 2.3376512779376486 
4.850000000002035, 2.3675443140173784 
4.860000000002012, 2.3969886375559404 
