t, s[1].omega / s[0].omega 
0, -1.0299977069860378 
0.009999999999999995, -1.0296777450574055 
0.019999999999999934, -1.0291754592530753 
0.029999999999999874, -1.0284893311818464 
0.04000000000000012, -1.0276340430065862 
0.050000000000000405, -1.0266529212742848 
0.06000000000000069, -1.0256218235169923 
0.07000000000000098, -1.0246416766479085 
0.08000000000000126, -1.0238185976193899 
0.09000000000000155, -1.023238657947159 
0.10000000000000184, -1.022949364154302 
0.11000000000000212, -1.0229497928355564 
0.12000000000000241, -1.0231859683601923 
0.130000000000002, -1.0235590543174302 
0.1400000000000009, -1.0239516337878627 
0.1499999999999998, -1.0242579844576598 
0.1599999999999987, -1.024402337750015 
0.1699999999999976, -1.024344302549615 
0.1799999999999965, -1.0240758483976307 
0.1899999999999954, -1.0236099493747792 
0.1999999999999943, -1.0229640925639065 
0.2099999999999932, -1.0221497160000006 
0.2199999999999921, -1.0211758551120875 
0.229999999999991, -1.0200630801629105 
0.2399999999999899, -1.0188569066581314 
0.2499999999999888, -1.0176324329496198 
0.2599999999999877, -1.016486753746889 
0.2699999999999866, -1.015520868679179 
0.2799999999999855, -1.0148186272113489 
0.2899999999999844, -1.014428111814733 
0.2999999999999833, -1.0143443803570733 
0.3099999999999822, -1.0145003875384866 
0.3199999999999811, -1.0147814790255747 
0.32999999999998, -1.0150601388290619 
0.3399999999999789, -1.015227164510682 
0.3499999999999778, -1.0152062237413182 
0.35999999999997667, -1.0149577658721114 
0.36999999999997557, -1.0144776271175964 
0.37999999999997447, -1.0137869719209691 
0.38999999999997337, -1.0129143396293054 
0.39999999999997227, -1.011881865009644 
0.40999999999997117, -1.0107063764435351 
0.41999999999997006, -1.0094126883452559 
0.42999999999996896, -1.0080477444911742 
0.43999999999996786, -1.0066861422957378 
0.44999999999996676, -1.0054234638527086 
0.45999999999996566, -1.0043599035299255 
0.46999999999996456, -1.0035802806279632 
0.47999999999996346, -1.0031327894711664 
0.48999999999996235, -1.0030074130641482 
0.49999999999996125, -1.0031273448161107 
0.5099999999999602, -1.0033690686167316 
0.519999999999959, -1.0036007955974635 
0.529999999999958, -1.003712498944631 
0.5399999999999568, -1.0036280639366064 
0.5499999999999557, -1.0033086320562896 
0.5599999999999546, -1.0027521564714286 
0.5699999999999535, -1.0019839058312758 
0.5799999999999524, -1.0010375833053118 
0.5899999999999513, -0.9999397736179034 
0.5999999999999502, -0.9987097504050024 
0.6099999999999491, -0.9973725727150338 
0.619999999999948, -0.9959738174837187 
0.6299999999999469, -0.9945859205612346 
0.6399999999999458, -0.9933022999078023 
0.6499999999999447, -0.9922215382942859 
0.6599999999999436, -0.9914274312778661 
0.6699999999999425, -0.990967747094642 
0.6799999999999414, -0.990833370310403 
0.6899999999999403, -0.9909502050520906 
0.6999999999999392, -0.9911981433530461 
0.7099999999999381, -0.9914479552924148 
0.719999999999937, -0.9915911226198681 
0.7299999999999359, -0.9915526698882203 
0.7399999999999348, -0.9912946676958065 
0.7499999999999337, -0.9908151916711776 
0.7599999999999326, -0.9901382723040814 
0.7699999999999315, -0.9892950139851454 
0.7799999999999304, -0.9883083509029081 
0.7899999999999293, -0.9871931629874333 
0.7999999999999282, -0.9859696791309691 
0.8099999999999271, -0.9846786053895563 
0.819999999999926, -0.983388087589438 
0.8299999999999249, -0.9821884593128025 
0.8399999999999238, -0.9811761831685604 
0.8499999999999227, -0.9804332983504761 
0.8599999999999216, -0.9800081776267832 
0.8699999999999205, -0.9798990931525094 
0.8799999999999194, -0.9800464521530909 
0.8899999999999183, -0.9803451553440431 
0.8999999999999172, -0.9806751854405629 
0.9099999999999161, -0.9809315092325964 
0.919999999999915, -0.9810401945750485 
0.9299999999999139, -0.9809631364748107 
0.9399999999999128, -0.9806956009839435 
0.9499999999999117, -0.9802549437695411 
0.9599999999999106, -0.9796625038178246 
0.9699999999999095, -0.9789303200832665 
0.9799999999999084, -0.978062933296616 
0.9899999999999073, -0.9770716603199264 
0.9999999999999062, -0.9759899919492597 
1.0099999999999052, -0.974881089115697 
1.019999999999904, -0.973833763881342 
1.029999999999903, -0.9729465783574227 
1.039999999999902, -0.9723050022645946 
1.0499999999999008, -0.9719612949928303 
1.0599999999998997, -0.9719224032455749 
1.0699999999998986, -0.9721456763898264 
1.0799999999998975, -0.9725459800597562 
1.0899999999998964, -0.9730173116203733 
1.0999999999998953, -0.9734600058463933 
1.1099999999998942, -0.9738001474941883 
1.119999999999893, -0.9739968149354316 
1.129999999999892, -0.974038939547139 
1.1399999999998909, -0.9739329264929829 
1.1499999999998898, -0.9736855126353826 
1.1599999999998887, -0.9732930373956883 
1.1699999999998876, -0.9727458734814729 
1.1799999999998865, -0.972044324088479 
1.1899999999998854, -0.9712141710444033 
1.1999999999998843, -0.9703141261014232 
1.2099999999998832, -0.9694337545385217 
1.219999999999882, -0.9686801697451553 
1.229999999999881, -0.9681532579062583 
1.2399999999998799, -0.9679190136134629 
1.2499999999998788, -0.9679947851669489 
1.2599999999998777, -0.968349316757902 
1.2699999999998766, -0.9689120045440395 
1.2799999999998755, -0.9695894168505681 
1.2899999999998744, -0.9702873636514228 
1.2999999999998733, -0.9709306319101053 
1.3099999999998722, -0.9714726222409873 
1.319999999999871, -0.971892752847399 
1.32999999999987, -0.9721835907513146 
1.3399999999998689, -0.9723344188522166 
1.3499999999998678, -0.9723229571010297 
1.3599999999998666, -0.9721232630884927 
1.3699999999998655, -0.9717243871401819 
1.3799999999998644, -0.971145942027805 
1.3899999999998633, -0.9704438175415352 
1.3999999999998622, -0.969709044190402 
1.4099999999998611, -0.9690598108389505 
1.41999999999986, -0.9686197427067181 
1.429999999999859, -0.9684837446542428 
1.4399999999998578, -0.9686903187675923 
1.4499999999998567, -0.9692176229825655 
1.4599999999998556, -0.9699989071115681 
1.4699999999998545, -0.9709435236745506 
1.4799999999998534, -0.971957536251984 
1.4899999999998523, -0.9729615743009983 
1.4999999999998512, -0.9739008162705687 
1.5099999999998501, -0.974742917523604 
1.519999999999849, -0.975464932817258 
1.529999999999848, -0.9760371977599077 
1.5399999999998468, -0.9764172799426464 
1.5499999999998457, -0.9765622404064367 
1.5599999999998446, -0.9764513615768997 
1.5699999999998435, -0.9761016795267378 
1.5799999999998424, -0.9755697610495101 
1.5899999999998413, -0.9749485893994286 
1.5999999999998402, -0.9743647532124101 
1.6099999999998391, -0.9739653437695069 
1.619999999999838, -0.9738829401653901 
1.629999999999837, -0.9741917067301535 
1.6399999999998358, -0.9748870350458088 
1.6499999999998347, -0.9759010175945185 
1.6599999999998336, -0.9771342020681117 
1.6699999999998325, -0.9784831694547413 
1.6799999999998314, -0.9798589528033051 
1.6899999999998303, -0.9811959487778604 
1.6999999999998292, -0.9824491552003327 
1.709999999999828, -0.9835804446488794 
1.719999999999827, -0.984542330480983 
1.729999999999826, -0.9852738301840952 
1.7399999999998248, -0.9857172912960338 
1.7499999999998237, -0.9858455986254918 
1.7599999999998226, -0.9856775132403783 
1.7699999999998215, -0.9852743643244313 
1.7799999999998204, -0.9847326816679511 
1.7899999999998193, -0.9841839424891222 
1.7999999999998182, -0.983790560643888 
1.809999999999817, -0.9837162780739427 
1.819999999999816, -0.9840720562223787 
1.8299999999998149, -0.9848760886615562 
1.8399999999998138, -0.9860611206419176 
1.8499999999998127, -0.9875148223954819 
1.8599999999998116, -0.9891186653761591 
1.8699999999998105, -0.9907707598316442 
1.8799999999998094, -0.9923944085493317 
1.8899999999998083, -0.9939341490592344 
1.8999999999998072, -0.9953411376802092 
1.909999999999806, -0.9965566046984979 
1.919999999999805, -0.9975087715306841 
1.9299999999998039, -0.9981324494148026 
1.9399999999998028, -0.9983988839590929 
1.9499999999998017, -0.9983306048538075 
1.9599999999998006, -0.9979944476859082 
1.9699999999997995, -0.9974908832140996 
1.9799999999997984, -0.9969542843953214 
1.9899999999997973, -0.996553488984646 
1.9999999999997962, -0.9964660323598263 
2.0099999999998173, -0.9968202224758655 
2.0199999999998384, -0.9976451386388444 
2.0299999999998595, -0.9988728227139737 
2.0399999999998806, -1.0003828515131892 
2.0499999999999017, -1.0020476054771925 
2.059999999999923, -1.0037579406526531 
2.069999999999944, -1.0054319111520396 
2.079999999999965, -1.0070106322318801 
2.089999999999986, -1.0084437945183349 
2.100000000000007, -1.0096732167386013 
2.1100000000000283, -1.0106293771374935 
2.1200000000000494, -1.0112500421913497 
2.1300000000000705, -1.0115090538663398 
2.1400000000000916, -1.011430726185 
2.1500000000001127, -1.0110831430149114 
2.160000000000134, -1.010567963467334 
2.170000000000155, -1.010020469645535 
2.180000000000176, -1.0096082407973375 
2.190000000000197, -1.0095024099940113 
2.2000000000002182, -1.0098195828686085 
2.2100000000002393, -1.0105773771433517 
2.2200000000002604, -1.0117029158818582 
2.2300000000002815, -1.0130776558935617 
2.2400000000003026, -1.0145784073991946 
2.2500000000003237, -1.016100021987628 
2.260000000000345, -1.0175642064171877 
2.270000000000366, -1.0189170319802026 
2.280000000000387, -1.020116200171483 
2.290000000000408, -1.0211153079466861 
2.3000000000004293, -1.0218586709690414 
2.3100000000004504, -1.0222955861601895 
2.3200000000004715, -1.0224049418684713 
2.3300000000004926, -1.0222096057654644 
2.3400000000005137, -1.021773876727531 
2.3500000000005348, -1.0211970772264465 
2.360000000000556, -1.020612192016606 
2.370000000000577, -1.0201768259430883 
2.380000000000598, -1.0200375701446787 
2.390000000000619, -1.020278449022922 
2.4000000000006403, -1.0208950097948544 
2.4100000000006614, -1.0218129165336478 
2.4200000000006825, -1.0229250460160362 
2.4300000000007036, -1.024120544421259 
2.4400000000007247, -1.025303275243267 
2.450000000000746, -1.0264024314362017 
2.460000000000767, -1.0273729538465768 
2.470000000000788, -1.0281850716416752 
2.480000000000809, -1.0288092831377256 
2.49000000000083, -1.0292087835479526 
2.5000000000008513, -1.029348127916265 
2.5100000000008724, -1.0292127318694848 
2.5200000000008935, -1.0288235717751701 
2.5300000000009146, -1.0282400346736367 
2.5400000000009357, -1.0275575120894602 
2.550000000000957, -1.0269024267660074 
2.560000000000978, -1.026413602801501 
2.570000000000999, -1.026204104186107 
2.58000000000102, -1.0263248447559368 
2.5900000000010412, -1.026757612201761 
2.6000000000010624, -1.0274338330618291 
2.6100000000010835, -1.0282574379507814 
2.6200000000011046, -1.029125059523911 
2.6300000000011257, -1.0299454460013229 
2.6400000000011468, -1.0306533354020655 
2.650000000001168, -1.031211925895889 
2.660000000001189, -1.031603901982589 
2.67000000000121, -1.0318166897935437 
2.680000000001231, -1.0318323212490137 
2.6900000000012523, -1.0316309150379366 
2.7000000000012734, -1.031205751702216 
2.7100000000012945, -1.0305782666480658 
2.7200000000013156, -1.0298050719429286 
2.7300000000013367, -1.028977450678572 
2.740000000001358, -1.0282117424551456 
2.750000000001379, -1.0276251385026514 
2.7600000000014, -1.0273031412590052 
2.770000000001421, -1.0272787729767416 
2.780000000001442, -1.0275317661957355 
2.7900000000014633, -1.027997149187302 
2.8000000000014844, -1.0285784668466649 
2.8100000000015055, -1.0291694123647601 
2.8200000000015266, -1.0296779496741755 
2.8300000000015477, -1.0300414366691257 
2.840000000001569, -1.0302291483897603 
2.85000000000159, -1.0302342997385294 
2.860000000001611, -1.0300594240687986 
2.870000000001632, -1.0297036536205593 
2.8800000000016532, -1.0291617623047962 
2.8900000000016743, -1.0284358502102808 
2.9000000000016954, -1.0275504246843754 
2.9100000000017165, -1.026561722970854 
2.9200000000017377, -1.0255574208714946 
2.9300000000017588, -1.024644209873321 
2.94000000000178, -1.023924090580056 
2.950000000001801, -1.0234699657807793 
2.960000000001822, -1.0233110429140568 
2.970000000001843, -1.0234259497945857 
2.9800000000018643, -1.0237422846100257 
2.9900000000018854, -1.0241516559686732 
3.0000000000019065, -1.024539130617934 
3.0100000000019276, -1.0248098502852823 
3.0200000000019487, -1.0249019714562737 
3.03000000000197, -1.0247884960653417 
3.040000000001991, -1.0244708128779925 
3.050000000002012, -1.0239643567223609 
3.060000000002033, -1.0232832419367721 
3.070000000002054, -1.022435375066311 
3.0800000000020753, -1.0214315410072996 
3.0900000000020964, -1.0203004422780138 
3.1000000000021175, -1.0190992285414913 
3.1100000000021386, -1.0179134091165571 
3.1200000000021597, -1.0168444207786431 
3.130000000002181, -1.0159889789775018 
3.140000000002202, -1.015418676477255 
3.150000000002223, -1.0151626063771049 
3.160000000002244, -1.0151923860025411 
3.1700000000022652, -1.0154207002721845 
3.1800000000022863, -1.015724831818296 
3.1900000000023074, -1.0159824191549256 
3.2000000000023285, -1.016096577617933 
3.2100000000023496, -1.0160054494551258 
3.2200000000023707, -1.0156839370157675 
3.230000000002392, -1.0151391841381925 
3.240000000002413, -1.01439654329428 
3.250000000002434, -1.0134817550679764 
3.260000000002455, -1.0124127859329137 
3.2700000000024763, -1.0112070187861564 
3.2800000000024974, -1.0098963196648982 
3.2900000000025185, -1.0085384884276907 
3.3000000000025396, -1.0072179404712327 
3.3100000000025607, -1.0060344319765395 
3.3200000000025818, -1.0050844044472154 
3.330000000002603, -1.004440662894128 
3.340000000002624, -1.004130881904956 
3.350000000002645, -1.0041190528686457 
3.360000000002666, -1.0043069932825988 
3.3700000000026873, -1.00456402412989 
3.3800000000027084, -1.0047647493199536 
3.3900000000027295, -1.0048119183155324 
3.4000000000027506, -1.004643949601055 
3.4100000000027717, -1.004236887708318 
3.420000000002793, -1.003601028410998 
3.430000000002814, -1.0027669250131241 
3.440000000002835, -1.0017660401107926 
3.450000000002856, -1.000620705089626 
3.460000000002877, -0.9993503444392119 
3.4700000000028983, -0.9979867131203549 
3.4800000000029194, -0.99658609934786 
3.4900000000029405, -0.9952308399786033 
3.5000000000029616, -0.9940188427375741 
3.5100000000029827, -0.9930454081539579 
3.520000000003004, -0.9923827369307943 
3.530000000003025, -0.9920582581366549 
3.540000000003046, -0.9920366064569616 
3.550000000003067, -0.9922214275027842 
3.5600000000030882, -0.9924842200875439 
3.5700000000031094, -0.9927012240498307 
3.5800000000031305, -0.9927763340024897 
3.5900000000031516, -0.9926489860711059 
3.6000000000031727, -0.9922959649450989 
3.6100000000031938, -0.9917275116673004 
3.620000000003215, -0.9909730181091354 
3.630000000003236, -0.9900616967652617 
3.640000000003257, -0.9890126647077037 
3.650000000003278, -0.9878413499629499 
3.6600000000032993, -0.9865750408103126 
3.6700000000033204, -0.9852655834053295 
3.6800000000033415, -0.9839915997219925 
3.6900000000033626, -0.982848405867248 
3.7000000000033837, -0.9819293004505968 
3.710000000003405, -0.9813051709498238 
3.720000000003426, -0.9810060035335929 
3.730000000003447, -0.9810062874556388 
3.740000000003468, -0.9812242584180254 
3.750000000003489, -0.981543609456207 
3.7600000000035103, -0.9818467246112668 
3.7700000000035314, -0.9820395665333952 
3.7800000000035525, -0.9820622479174982 
3.7900000000035736, -0.9818907585712153 
3.8000000000035947, -0.9815314354877945 
3.810000000003616, -0.9810061781024673 
3.820000000003637, -0.9803344504099267 
3.830000000003658, -0.9795251972228908 
3.840000000003679, -0.9785845191382343 
3.8500000000037002, -0.9775317605362187 
3.8600000000037213, -0.976412479203775 
3.8700000000037424, -0.9753015144147376 
3.8800000000037635, -0.9742939276109767 
3.8900000000037847, -0.973485373694211 
3.9000000000038058, -0.9729495138497604 
3.910000000003827, -0.9727210700263538 
3.920000000003848, -0.9727864391316188 
3.930000000003869, -0.9730829538054373 
3.94000000000389, -0.9735124082248207 
3.9500000000039113, -0.9739672764217034 
3.9600000000039324, -0.974356202604823 
3.9700000000039535, -0.9746182696709486 
3.9800000000039746, -0.9747257580639949 
3.9900000000039957, -0.9746772667661611 
4.000000000004016, -0.9744825144755876 
4.010000000003993, -0.9741460923324999 
4.02000000000397, -0.9736620510686546 
4.030000000003946, -0.9730238002845822 
4.040000000003923, -0.9722411623231995 
4.0500000000039, -0.9713532013650501 
4.0600000000038765, -0.9704319380755456 
4.070000000003853, -0.9695758359349813 
4.08000000000383, -0.968891239657314 
4.090000000003807, -0.9684654400973352 
4.100000000003783, -0.9683443162212438 
4.11000000000376, -0.9685242683636036 
4.120000000003737, -0.9689560921602719 
4.130000000003713, -0.969556775924726 
4.14000000000369, -0.9702291013113179 
4.150000000003667, -0.9708843124035954 
4.1600000000036434, -0.9714584455916938 
4.17000000000362, -0.9719169450011542 
4.180000000003597, -0.9722475414266792 
4.1900000000035735, -0.9724448330993312 
4.20000000000355, -0.9724954962976721 
4.210000000003527, -0.972375812973599 
4.220000000003504, -0.9720648825404683 
4.23000000000348, -0.9715633999642193 
4.240000000003457, -0.9709055304690932 
4.250000000003434, -0.9701616285084629 
4.26000000000341, -0.9694347010026483 
4.270000000003387, -0.9688470732094534 
4.280000000003364, -0.9685122329908076 
4.2900000000033405, -0.9685014552065456 
4.300000000003317, -0.9688261487618521 
4.310000000003294, -0.9694436119117992 
4.320000000003271, -0.9702752296066581 
4.330000000003247, -0.9712269356717003 
4.340000000003224, -0.9722091655560205 
4.350000000003201, -0.9731524403207529 
4.360000000003177, -0.974012857945669 
4.370000000003154, -0.9747651835498767 
4.380000000003131, -0.9753872547002896 
4.390000000003107, -0.9758461742010099 
4.400000000003084, -0.9760989558777574 
4.410000000003061, -0.9761102838298885 
4.4200000000030375, -0.9758739816800702 
4.430000000003014, -0.9754230013276871 
4.440000000002991, -0.9748284219013751 
4.450000000002968, -0.9741967986851269 
4.460000000002944, -0.9736644103026024 
4.470000000002921, -0.9733749336826161 
4.480000000002898, -0.9734379712219496 
4.490000000002874, -0.9738929198186524 
4.500000000002851, -0.9747052802008954 
4.510000000002828, -0.9757914816611811 
4.520000000002804, -0.9770491482242915 
4.530000000002781, -0.9783802627116149 
4.540000000002758, -0.9797059219216874 
4.5500000000027345, -0.9809710166209578 
4.560000000002711, -0.9821367981243079 
4.570000000002688, -0.9831647673301531 
4.580000000002665, -0.9840034062209032 
4.590000000002641, -0.9845918643492397 
4.600000000002618, -0.9848827632176445 
4.610000000002595, -0.9848667298177974 
4.620000000002571, -0.9845799306529058 
4.630000000002548, -0.9840975776399012 
4.640000000002525, -0.983529458193787 
4.6500000000025015, -0.9830201623152104 
4.660000000002478, -0.9827360106212695 
4.670000000002455, -0.9828229352364439 
4.6800000000024315, -0.9833537224207518 
4.690000000002408, -0.9843073186365339 
4.700000000002385, -0.9855937462796667 
4.710000000002362, -0.987096126313256 
4.720000000002338, -0.9887024023826337 
4.730000000002315, -0.9903217581811493 
4.740000000002292, -0.9918882484538478 
4.750000000002268, -0.9933522808444951 
4.760000000002245, -0.9946637879422017 
4.770000000002222, -0.9957591087641865 
4.7800000000021985, -0.9965666097359672 
4.790000000002175, -0.9970328232954181 
4.800000000002152, -0.9971488403653581 
4.810000000002129, -0.9969557731987084 
4.820000000002105, -0.996533989991672 
4.830000000002082, -0.995996490123705 
4.840000000002059, -0.9954917978518485 
4.850000000002035, -0.9951965863124113 
4.860000000002012, -0.9952750909895535 
4.870000000001989, -0.9958182800438213 
4.880000000001965, -0.9968125872587584 
4.890000000001942, -0.9981634468607923 
4.900000000001919, -0.9997440826317952 
4.9100000000018955, -1.001433074849924 
4.920000000001872, -1.0031324159509891 
4.930000000001849, -1.0047708983263084 
