t, s[1].omega / s[0].omega 
0, -0.9000185567494945 
0.009999999999999995, -0.9017491887118357 
0.019999999999999934, -0.9031734421530102 
0.029999999999999874, -0.9042342688968776 
0.04000000000000012, -0.9049228027254079 
0.050000000000000405, -0.9052718232741706 
0.06000000000000069, -0.9053370113179827 
0.07000000000000098, -0.9051790382520156 
0.08000000000000126, -0.9048552847080948 
0.09000000000000155, -0.9044229116282507 
0.10000000000000184, -0.9039514154052035 
0.11000000000000212, -0.9035413511537816 
0.12000000000000241, -0.9033427361073118 
0.130000000000002, -0.9035610002834046 
0.1400000000000009, -0.9044359448395664 
0.1499999999999998, -0.9061891887894509 
0.1599999999999987, -0.9089571865453966 
0.1699999999999976, -0.9127407883621048 
0.1799999999999965, -0.9173912682861408 
0.1899999999999954, -0.9226285982398894 
0.1999999999999943, -0.9280779326013218 
0.2099999999999932, -0.933321225876735 
0.2199999999999921, -0.9379703785927738 
0.229999999999991, -0.941752357727988 
0.2399999999999899, -0.9445664454708209 
0.2499999999999888, -0.9464754118028994 
0.2599999999999877, -0.9476395048332755 
0.2699999999999866, -0.9482406063468523 
0.2799999999999855, -0.9484338132583258 
0.2899999999999844, -0.948331942004313 
0.2999999999999833, -0.9480115234907431 
0.3099999999999822, -0.9475303535439764 
0.3199999999999811, -0.9469543918549448 
0.32999999999998, -0.9463968580062009 
0.3399999999999789, -0.9460691266993274 
0.3499999999999778, -0.9463261467100208 
0.35999999999997667, -0.9476623889826354 
0.36999999999997557, -0.9506073947466398 
0.37999999999997447, -0.9555227901573826 
0.38999999999997337, -0.9623945641784818 
0.39999999999997227, -0.9707478916888803 
0.40999999999997117, -0.9797412858645724 
0.41999999999997006, -0.9884001709522916 
0.42999999999996896, -0.9958972187512491 
0.43999999999996786, -1.0017655094384599 
0.44999999999996676, -1.0059483411081422 
0.45999999999996566, -1.0086828949152808 
0.46999999999996456, -1.010319762452795 
0.47999999999996346, -1.011186538571401 
0.48999999999996235, -1.0115298549945395 
0.49999999999996125, -1.0115125728902081 
0.5099999999999602, -1.011234496147772 
0.519999999999959, -1.0107603258694278 
0.529999999999958, -1.0101539299501368 
0.5399999999999568, -1.0095259488071329 
0.5499999999999557, -1.009097896367074 
0.5599999999999546, -1.0092613288668644 
0.5699999999999535, -1.0105683602495046 
0.5799999999999524, -1.0135807623240374 
0.5899999999999513, -1.018600929820455 
0.5999999999999502, -1.0254532778351493 
0.6099999999999491, -1.0334846104465996 
0.619999999999948, -1.0417778355911433 
0.6299999999999469, -1.0494389594772493 
0.6399999999999458, -1.0558288668964595 
0.6499999999999447, -1.0606725875951653 
0.6599999999999436, -1.0640281292748617 
0.6699999999999425, -1.066155528348362 
0.6799999999999414, -1.0673704694063992 
0.6899999999999403, -1.0679484433406892 
0.6999999999999392, -1.0680909239077847 
0.7099999999999381, -1.0679315387951909 
0.719999999999937, -1.0675600173488076 
0.7299999999999359, -1.067054666786734 
0.7399999999999348, -1.0665231664031372 
0.7499999999999337, -1.066147815170658 
0.7599999999999326, -1.0662109431722218 
0.7699999999999315, -1.0670544265081439 
0.7799999999999304, -1.0689524790749663 
0.7899999999999293, -1.0719658606805298 
0.7999999999999282, -1.0758942294423222 
0.8099999999999271, -1.0803578344689035 
0.819999999999926, -1.084927813078385 
0.8299999999999249, -1.0892229175617465 
0.8399999999999238, -1.0929571553624038 
0.8499999999999227, -1.0959594973090847 
0.8599999999999216, -1.0981778839162688 
0.8699999999999205, -1.0996630628977357 
0.8799999999999194, -1.100531048961623 
0.8899999999999183, -1.100918605989714 
0.8999999999999172, -1.1009508178422 
0.9099999999999161, -1.1007295041162768 
0.919999999999915, -1.1003401193796933 
0.9299999999999139, -1.0998705810196578 
0.9399999999999128, -1.0994332501708937 
0.9499999999999117, -1.099175074746906 
0.9599999999999106, -1.0992568674099288 
0.9699999999999095, -1.0997992897049234 
0.9799999999999084, -1.1008290133433025 
0.9899999999999073, -1.1022688045900046 
0.9999999999999062, -1.1039755849249515 
1.0099999999999052, -1.1057913765451632 
1.019999999999904, -1.1075768067489862 
1.029999999999903, -1.10922235742415 
1.039999999999902, -1.110646841765902 
1.0499999999999008, -1.111793280303771 
1.0599999999998997, -1.1126276953661596 
1.0699999999998986, -1.113140644774404 
1.0799999999998975, -1.1133474053470758 
1.0899999999998964, -1.1132836286186891 
1.0999999999998953, -1.1129981486829652 
1.1099999999998942, -1.1125480116416484 
1.119999999999893, -1.111999035902985 
1.129999999999892, -1.111429658954222 
1.1399999999998909, -1.1109303546403986 
1.1499999999998898, -1.1105908195195595 
1.1599999999998887, -1.1104765785574033 
1.1699999999998876, -1.11060887211872 
1.1799999999998865, -1.1109610344304737 
1.1899999999998854, -1.1114708878945883 
1.1999999999998843, -1.1120594916454791 
1.2099999999998832, -1.1126481172283955 
1.219999999999882, -1.1131695009093732 
1.229999999999881, -1.1135724775166693 
1.2399999999998799, -1.1138216414265656 
1.2499999999998788, -1.1138947358817701 
1.2599999999998777, -1.1137798705936819 
1.2699999999998766, -1.1134737983623384 
1.2799999999998755, -1.1129818279417654 
1.2899999999998744, -1.1123191820975582 
1.2999999999998733, -1.111513102506461 
1.3099999999998722, -1.1106050549190258 
1.319999999999871, -1.1096520362690296 
1.32999999999987, -1.1087247104115805 
1.3399999999998689, -1.1078997448082482 
1.3499999999998678, -1.107246167894499 
1.3599999999998666, -1.1068090464317348 
1.3699999999998655, -1.106595682136493 
1.3799999999998644, -1.1065706276021399 
1.3899999999998633, -1.1066644372467724 
1.3999999999998622, -1.1067929474116314 
1.4099999999998611, -1.1068756417212173 
1.41999999999986, -1.106844398615933 
1.429999999999859, -1.1066438112380503 
1.4399999999998578, -1.10622967768209 
1.4499999999998567, -1.1055701799481286 
1.4599999999998556, -1.1046492939132544 
1.4699999999998545, -1.1034691230766374 
1.4799999999998534, -1.1020492860724853 
1.4899999999998523, -1.1004250548448877 
1.4999999999998512, -1.0986473712357725 
1.5099999999998501, -1.0967857810811907 
1.519999999999849, -1.094931866788222 
1.529999999999848, -1.0931980098340852 
1.5399999999998468, -1.0917050172122145 
1.5499999999998457, -1.0905544600695587 
1.5599999999998446, -1.0897921165259057 
1.5699999999998435, -1.0893844991147756 
1.5799999999998424, -1.0892300979935925 
1.5899999999998413, -1.0891992782878646 
1.5999999999998402, -1.089172205395455 
1.6099999999998391, -1.0890529067055257 
1.619999999999838, -1.0887620561560851 
1.629999999999837, -1.0882227717626778 
1.6399999999998358, -1.0873515737243393 
1.6499999999998347, -1.0860613684205416 
1.6599999999998336, -1.084277881778735 
1.6699999999998325, -1.0819635267777903 
1.6799999999998314, -1.0791367029444223 
1.6899999999998303, -1.0758778418182067 
1.6999999999998292, -1.0723248190691497 
1.709999999999828, -1.0686663742939542 
1.719999999999827, -1.065134917063259 
1.729999999999826, -1.0619867337677014 
1.7399999999998248, -1.0594535762652986 
1.7499999999998237, -1.0576694972258918 
1.7599999999998226, -1.0566145540345881 
1.7699999999998215, -1.0561264878976566 
1.7799999999998204, -1.055978608946678 
1.7899999999998193, -1.0559633630026666 
1.7999999999998182, -1.0559304325054166 
1.809999999999817, -1.0557788301731779 
1.819999999999816, -1.0554287198558927 
1.8299999999998149, -1.0547928956539852 
1.8399999999998138, -1.053756411625611 
1.8499999999998127, -1.0521698671067095 
1.8599999999998116, -1.049864551106326 
1.8699999999998105, -1.0466956964900471 
1.8799999999998094, -1.0426050205103397 
1.8899999999998083, -1.037673970126968 
1.8999999999998072, -1.032139464254452 
1.909999999999806, -1.0263689548283825 
1.919999999999805, -1.0208092089440741 
1.9299999999998039, -1.0159137532574896 
1.9399999999998028, -1.0120444141821319 
1.9499999999998017, -1.009366920543147 
1.9599999999998006, -1.0078012145203652 
1.9699999999997995, -1.0070759517788566 
1.9799999999997984, -1.006856291095722 
1.9899999999997973, -1.00685664600265 
1.9999999999997962, -1.0068836805285204 
2.0099999999998173, -1.006820990264947 
2.0199999999998384, -1.00659196909179 
2.0299999999998595, -1.0061245558491405 
2.0399999999998806, -1.0053248075653691 
2.0499999999999017, -1.0040607662991328 
2.059999999999923, -1.0021620069135393 
2.069999999999944, -0.9994457194795165 
2.079999999999965, -0.9957754418938993 
2.089999999999986, -0.9911358196727769 
2.100000000000007, -0.9856824568686449 
2.1100000000000283, -0.9797344432920522 
2.1200000000000494, -0.9737169196559089 
2.1300000000000705, -0.9680843999010369 
2.1400000000000916, -0.963242397762311 
2.1500000000001127, -0.9594697692707355 
2.160000000000134, -0.956856302259572 
2.170000000000155, -0.9552902280648918 
2.180000000000176, -0.9545163360710205 
2.190000000000197, -0.9542363017577882 
2.2000000000002182, -0.9541933521498528 
2.2100000000002393, -0.9542065528517968 
2.2200000000002604, -0.9541616389485519 
2.2300000000002815, -0.9539832911195084 
2.2400000000003026, -0.9536074250916144 
2.2500000000003237, -0.9529610879273894 
2.260000000000345, -0.9519528809961832 
2.270000000000366, -0.9504777373712333 
2.280000000000387, -0.9484400671066646 
2.290000000000408, -0.9457916374680156 
2.3000000000004293, -0.9425661079815673 
2.3100000000004504, -0.9388870767348744 
2.3200000000004715, -0.9349440959137786 
2.3300000000004926, -0.9309549235507761 
2.3400000000005137, -0.9271351224323745 
2.3500000000005348, -0.9236797194335586 
2.360000000000556, -0.9207481654850881 
2.370000000000577, -0.918444817687891 
2.380000000000598, -0.9167983338757629 
2.390000000000619, -0.9157535660015474 
2.4000000000006403, -0.9151874931514612 
2.4100000000006614, -0.9149452645916958 
2.4200000000006825, -0.9148780028703343 
2.4300000000007036, -0.9148652608038068 
2.4400000000007247, -0.9148182956497422 
2.450000000000746, -0.9146713323871289 
2.460000000000767, -0.9143703498177984 
2.470000000000788, -0.9138662482613839 
2.480000000000809, -0.9131158942391686 
2.49000000000083, -0.912090868470185 
2.5000000000008513, -0.9107888818632626 
2.5100000000008724, -0.9092393822038032 
2.5200000000008935, -0.9074980046009393 
2.5300000000009146, -0.9056333480490318 
2.5400000000009357, -0.9037150428125443 
2.550000000000957, -0.9018088780126371 
2.560000000000978, -0.8999779104054841 
2.570000000000999, -0.8982847330593401 
2.58000000000102, -0.8967905836309518 
2.5900000000010412, -0.8955494944639394 
2.6000000000010624, -0.8945985696299728 
2.6100000000010835, -0.8939480566469497 
2.6200000000011046, -0.8935762172457983 
2.6300000000011257, -0.8934326112210595 
2.6400000000011468, -0.8934491096622386 
2.650000000001168, -0.8935535981386087 
2.660000000001189, -0.8936806371530231 
2.67000000000121, -0.8937766029015298 
2.680000000001231, -0.8938006995497607 
2.6900000000012523, -0.8937246829226122 
2.7000000000012734, -0.8935328371098514 
2.7100000000012945, -0.8932214605051364 
2.7200000000013156, -0.8927962488039956 
2.7300000000013367, -0.8922676472881127 
2.740000000001358, -0.8916466964658545 
2.750000000001379, -0.8909440694056763 
2.7600000000014, -0.8901725650500785 
2.770000000001421, -0.8893510286931443 
2.780000000001442, -0.8885075261713574 
2.7900000000014633, -0.8876806993990348 
2.8000000000014844, -0.8869187688848681 
2.8100000000015055, -0.8862754705142659 
2.8200000000015266, -0.8858026023215366 
2.8300000000015477, -0.8855404886725757 
2.840000000001569, -0.8855094743712264 
2.85000000000159, -0.8857057919231192 
2.860000000001611, -0.8861033564251631 
2.870000000001632, -0.8866604752203378 
2.8800000000016532, -0.8873286584040901 
2.8900000000016743, -0.8880604133035733 
2.9000000000016954, -0.8888138782811283 
2.9100000000017165, -0.8895535934266592 
2.9200000000017377, -0.8902480230581651 
2.9300000000017588, -0.8908657261871167 
2.94000000000178, -0.8913732500381976 
2.950000000001801, -0.8917376085332599 
2.960000000001822, -0.891933282003422 
2.970000000001843, -0.8919496720566498 
2.9800000000018643, -0.891794181361578 
2.9900000000018854, -0.8914900199104044 
3.0000000000019065, -0.8910723063850471 
3.0100000000019276, -0.8905867089097935 
3.0200000000019487, -0.8900920625993539 
3.03000000000197, -0.8896647330979526 
3.040000000001991, -0.8893997454806479 
3.050000000002012, -0.8894033462714395 
3.060000000002033, -0.8897754316044733 
3.070000000002054, -0.8905873247924783 
3.0800000000020753, -0.8918651688174863 
3.0900000000020964, -0.8935862783481525 
3.1000000000021175, -0.8956872313731365 
3.1100000000021386, -0.8980760038046822 
3.1200000000021597, -0.9006406666740709 
3.130000000002181, -0.903252595287482 
3.140000000002202, -0.9057689636333824 
3.150000000002223, -0.9080432954389301 
3.160000000002244, -0.9099489749869759 
3.1700000000022652, -0.9114079088548495 
3.1800000000022863, -0.9124061700146381 
3.1900000000023074, -0.912985243012101 
3.2000000000023285, -0.9132163641613185 
3.2100000000023496, -0.9131753241680174 
3.2200000000023707, -0.9129292514517962 
3.230000000002392, -0.9125371599997368 
3.240000000002413, -0.9120617741360896 
3.250000000002434, -0.9115900730692094 
3.260000000002455, -0.911258693274438 
3.2700000000024763, -0.9112742315025025 
3.2800000000024974, -0.9119101197800894 
3.2900000000025185, -0.9134623552384504 
3.3000000000025396, -0.9161670694696987 
3.3100000000025607, -0.9201132522304147 
3.3200000000025818, -0.9251923176216197 
3.330000000002603, -0.9311013379463766 
3.340000000002624, -0.9373889426881664 
3.350000000002645, -0.9435308884433496 
3.360000000002666, -0.949032062819032 
3.3700000000026873, -0.9535386989225003 
3.3800000000027084, -0.9569124865818741 
3.3900000000027295, -0.9592207402751602 
3.4000000000027506, -0.9606542108392977 
3.4100000000027717, -0.9614321369341738 
3.420000000002793, -0.961741575315504 
3.430000000002814, -0.9617176114692194 
3.440000000002835, -0.9614492932303851 
3.450000000002856, -0.9609977944127757 
3.460000000002877, -0.960422977137747 
3.4700000000028983, -0.9598217622486578 
3.4800000000029194, -0.9593811337190082 
3.4900000000029405, -0.9594338246368108 
3.5000000000029616, -0.9604745621401479 
3.5100000000029827, -0.9630747150340536 
3.520000000003004, -0.9676751691296788 
3.530000000003025, -0.9743442419878672 
3.540000000003046, -0.9826531319973976 
3.550000000003067, -0.9917559465514388 
3.5600000000030882, -1.000635952036085 
3.5700000000031094, -1.0084072374045498 
3.5800000000031305, -1.0145467459248545 
3.5900000000031516, -1.0189586621662339 
3.6000000000031727, -1.0218645876243775 
3.6100000000031938, -1.0236187506979115 
3.620000000003215, -1.0245615896539448 
3.630000000003236, -1.0249535605091185 
3.640000000003257, -1.0249686028594402 
3.650000000003278, -1.0247142920661692 
3.6600000000032993, -1.0242603801439059 
3.6700000000033204, -1.0236734776102199 
3.6800000000033415, -1.0230639810727795 
3.6900000000033626, -1.0226472287192707 
3.7000000000033837, -1.0227961403975663 
3.710000000003405, -1.0240230656572626 
3.720000000003426, -1.0268277311330523 
3.730000000003447, -1.0314494550359 
3.740000000003468, -1.0376906194437943 
3.750000000003489, -1.0449487727457734 
3.7600000000035103, -1.0524201224576877 
3.7700000000035314, -1.059337814964178 
3.7800000000035525, -1.065149724952707 
3.7900000000035736, -1.069602191235327 
3.8000000000035947, -1.0727219190207162 
3.810000000003616, -1.0747179702497314 
3.820000000003637, -1.07586158320959 
3.830000000003658, -1.0763994955773206 
3.840000000003679, -1.0765181867222025 
3.8500000000037002, -1.0763454796620506 
3.8600000000037213, -1.0759712529611547 
3.8700000000037424, -1.075478079003069 
3.8800000000037635, -1.0749792672685148 
3.8900000000037847, -1.0746564023926302 
3.9000000000038058, -1.0747697300375882 
3.910000000003827, -1.0756039866483895 
3.920000000003848, -1.0773508662428977 
3.930000000003869, -1.0800049476758955 
3.94000000000389, -1.0833588032670196 
3.9500000000039113, -1.0870904958592207 
3.9600000000039324, -1.090865072647239 
3.9700000000039535, -1.0943963199412103 
3.9800000000039746, -1.0974705243310494 
3.9900000000039957, -1.0999546661334325 
4.000000000004016, -1.1017996575491729 
4.010000000003993, -1.1030334902241028 
4.02000000000397, -1.1037387545675659 
4.030000000003946, -1.104021254685547 
4.040000000003923, -1.1039841063038653 
4.0500000000039, -1.1037169458029046 
4.0600000000038765, -1.1033008255688534 
4.070000000003853, -1.1028235385022955 
4.08000000000383, -1.1023957136160847 
4.090000000003807, -1.1021525090287496 
4.100000000003783, -1.1022271374936692 
4.11000000000376, -1.1027031700245797 
4.120000000003737, -1.1035791890156148 
4.130000000003713, -1.1047738938451983 
4.14000000000369, -1.1061629114977958 
4.150000000003667, -1.1076176110242983 
4.1600000000036434, -1.109027809225078 
4.17000000000362, -1.1103083189792313 
4.180000000003597, -1.1113966484301163 
4.1900000000035735, -1.1122488265183195 
4.20000000000355, -1.1128375582554157 
4.210000000003527, -1.1131532391742291 
4.220000000003504, -1.1132051640516782 
4.23000000000348, -1.1130200680202689 
4.240000000003457, -1.1126383437844092 
4.250000000003434, -1.1121112609808794 
4.26000000000341, -1.1115015395562786 
4.270000000003387, -1.1108849999685453 
4.280000000003364, -1.1103467214555858 
4.2900000000033405, -1.1099667063841552 
4.300000000003317, -1.1097991796863194 
4.310000000003294, -1.10985754768283 
4.320000000003271, -1.1101132147172046 
4.330000000003247, -1.1105062726144266 
4.340000000003224, -1.1109615234618029 
4.350000000003201, -1.1114040227771682 
4.360000000003177, -1.1117697935509319 
4.370000000003154, -1.1120101823890312 
4.380000000003131, -1.1120916655416717 
4.390000000003107, -1.1119938332882338 
4.400000000003084, -1.111707113095221 
4.410000000003061, -1.1112309366676596 
4.4200000000030375, -1.1105730653690664 
4.430000000003014, -1.1097505592553607 
4.440000000002991, -1.108792131049419 
4.450000000002968, -1.1077409593880378 
4.460000000002944, -1.106656345110075 
4.470000000002921, -1.105611722056389 
4.480000000002898, -1.1046866703701745 
4.490000000002874, -1.1039526257014063 
4.500000000002851, -1.1034548269703965 
4.510000000002828, -1.1031963288222344 
4.520000000002804, -1.10313319468258 
4.530000000002781, -1.1031868106663063 
4.540000000002758, -1.1032667869552308 
4.5500000000027345, -1.1032896855910823 
4.560000000002711, -1.1031854857305805 
4.570000000002688, -1.1028955292709275 
4.580000000002665, -1.1023701554731908 
4.590000000002641, -1.1015708953601557 
4.600000000002618, -1.100476296160649 
4.610000000002595, -1.0990868168773473 
4.620000000002571, -1.0974254916269717 
4.630000000002548, -1.0955356791058248 
4.640000000002525, -1.0934799905334014 
4.6500000000025015, -1.0913425587387244 
4.660000000002478, -1.0892322614757664 
4.670000000002455, -1.0872803655757592 
4.6800000000024315, -1.0856241471741468 
4.690000000002408, -1.0843722100758928 
4.700000000002385, -1.0835624956813068 
4.710000000002362, -1.0831415555346062 
4.720000000002338, -1.082986200633244 
4.730000000002315, -1.0829524156185335 
4.740000000002292, -1.0829146153537754 
4.750000000002268, -1.0827757368866664 
4.760000000002245, -1.0824555970243412 
4.770000000002222, -1.0818736975875078 
4.7800000000021985, -1.080938378982511 
4.790000000002175, -1.0795492428231364 
4.800000000002152, -1.0776154543528071 
4.810000000002129, -1.075084890029565 
4.820000000002105, -1.0719705755073232 
4.830000000002082, -1.0683617416899798 
4.840000000002059, -1.0644193789711425 
4.850000000002035, -1.0603657304417085 
4.860000000002012, -1.0564710050367048 
4.870000000001989, -1.0530255442866001 
4.880000000001965, -1.0502816378345656 
4.890000000001942, -1.0483730483873859 
4.900000000001919, -1.0472606049808113 
4.9100000000018955, -1.0467553920632284 
4.920000000001872, -1.0466087773932222 
4.930000000001849, -1.0466007598963762 
