t, s[1].omega / s[0].omega 
0, -0.7999681383012033 
0.009999999999999995, -0.7976871702257295 
0.019999999999999934, -0.7972755599304592 
0.029999999999999874, -0.7984025306553425 
0.04000000000000012, -0.8003638248097482 
0.050000000000000405, -0.8024777704560053 
0.06000000000000069, -0.8043224244636711 
0.07000000000000098, -0.8057369845156677 
0.08000000000000126, -0.8067189569056816 
0.09000000000000155, -0.8073283834573923 
0.10000000000000184, -0.8076313221760485 
0.11000000000000212, -0.8076739794247004 
0.12000000000000241, -0.8074719023430525 
0.130000000000002, -0.8070030868799917 
0.1400000000000009, -0.8061990564485443 
0.1499999999999998, -0.8049325084422131 
0.1599999999999987, -0.8030065661430447 
0.1699999999999976, -0.8001619384994569 
0.1799999999999965, -0.7961305103369377 
0.1899999999999954, -0.7907547981188747 
0.1999999999999943, -0.784133673110971 
0.2099999999999932, -0.776681452885265 
0.2199999999999921, -0.7690193707249267 
0.229999999999991, -0.7617669067842644 
0.2399999999999899, -0.7553788233646842 
0.2499999999999888, -0.7500954437640285 
0.2599999999999877, -0.7459731217892646 
0.2699999999999866, -0.7429396249862846 
0.2799999999999855, -0.7408450623136275 
0.2899999999999844, -0.7395023614885348 
0.2999999999999833, -0.7387187283398228 
0.3099999999999822, -0.7383184762309524 
0.3199999999999811, -0.7381562642258244 
0.32999999999998, -0.7381208510328039 
0.3399999999999789, -0.7381316548270519 
0.3499999999999778, -0.738131746911354 
0.35999999999997667, -0.7380808031093649 
0.36999999999997557, -0.7379505127425 
0.37999999999997447, -0.737723476320489 
0.38999999999997337, -0.7373947032083709 
0.39999999999997227, -0.736972788200337 
0.40999999999997117, -0.7364773239684276 
0.41999999999997006, -0.7359317000805327 
0.42999999999996896, -0.735354649950143 
0.43999999999996786, -0.7347555678354832 
0.44999999999996676, -0.7341359508358289 
0.45999999999996566, -0.733495135437064 
0.46999999999996456, -0.7328365559967358 
0.47999999999996346, -0.7321719696437683 
0.48999999999996235, -0.7315234745524594 
0.49999999999996125, -0.7309243897086732 
0.5099999999999602, -0.7304196620027489 
0.519999999999959, -0.7300654361185722 
0.529999999999958, -0.729926872983393 
0.5399999999999568, -0.730073686084041 
0.5499999999999557, -0.7305739371496716 
0.5599999999999546, -0.7314876231700976 
0.5699999999999535, -0.7328616230200169 
0.5799999999999524, -0.7347263056781813 
0.5899999999999513, -0.7370920309971315 
0.5999999999999502, -0.7399420475640606 
0.6099999999999491, -0.7432185302196678 
0.619999999999948, -0.746802869572474 
0.6299999999999469, -0.7505012063227952 
0.6399999999999458, -0.7540566036058476 
0.6499999999999447, -0.7572036736354191 
0.6599999999999436, -0.7597479724467338 
0.6699999999999425, -0.7616191414199242 
0.6799999999999414, -0.7628626307162613 
0.6899999999999403, -0.7635873453306325 
0.6999999999999392, -0.7639115973668178 
0.7099999999999381, -0.7639315447293433 
0.719999999999937, -0.763711323783732 
0.7299999999999359, -0.7632851161440805 
0.7399999999999348, -0.7626641605083867 
0.7499999999999337, -0.761847325886772 
0.7599999999999326, -0.7608390057115343 
0.7699999999999315, -0.7596826878665128 
0.7799999999999304, -0.7585211838982233 
0.7899999999999293, -0.7576877549729393 
0.7999999999999282, -0.757799398839414 
0.8099999999999271, -0.7597497457950729 
0.819999999999926, -0.7644309566452316 
0.8299999999999249, -0.7721392634620812 
0.8399999999999238, -0.7820736004851854 
0.8499999999999227, -0.7925832658752582 
0.8599999999999216, -0.8020769880625329 
0.8699999999999205, -0.8096933461300612 
0.8799999999999194, -0.8153038614364133 
0.8899999999999183, -0.8191901521396285 
0.8999999999999172, -0.8217571092115648 
0.9099999999999161, -0.8233779757826702 
0.919999999999915, -0.8243393801455097 
0.9299999999999139, -0.8248377072364063 
0.9399999999999128, -0.824993190215995 
0.9499999999999117, -0.8248643529207722 
0.9599999999999106, -0.8244554819834538 
0.9699999999999095, -0.823714140150838 
0.9799999999999084, -0.8225170923610883 
0.9899999999999073, -0.8206448731644617 
0.9999999999999062, -0.8177529005857457 
1.0099999999999052, -0.8133680022637328 
1.019999999999904, -0.8069722439598441 
1.029999999999903, -0.7982379631128161 
1.039999999999902, -0.7873591348704264 
1.0499999999999008, -0.7752149691285803 
1.0599999999998997, -0.763119304016649 
1.0699999999998986, -0.7522982683896243 
1.0799999999998975, -0.7434991202290961 
1.0899999999998964, -0.7369236573331427 
1.0999999999998953, -0.7323785234146024 
1.1099999999998942, -0.7294713618082765 
1.119999999999893, -0.7277631252927995 
1.129999999999892, -0.7268585854286301 
1.1399999999998909, -0.726445736397576 
1.1499999999998898, -0.7263008021944068 
1.1599999999998887, -0.7262744393525603 
1.1699999999998876, -0.726271179495997 
1.1799999999998865, -0.7262297084148229 
1.1899999999998854, -0.7261077056337172 
1.1999999999998843, -0.7258726180258626 
1.2099999999998832, -0.7254987251254211 
1.219999999999882, -0.7249699990261286 
1.229999999999881, -0.7242862853233152 
1.2399999999998799, -0.7234676374341126 
1.2499999999998788, -0.7225514088516307 
1.2599999999998777, -0.7215815535068038 
1.2699999999998766, -0.7205960822802373 
1.2799999999998755, -0.7196199952143696 
1.2899999999998744, -0.7186662594864086 
1.2999999999998733, -0.7177420300427944 
1.3099999999998722, -0.7168556455146656 
1.319999999999871, -0.7160215711739049 
1.32999999999987, -0.7152627435841487 
1.3399999999998689, -0.7146108803531395 
1.3499999999998678, -0.714105236842389 
1.3599999999998666, -0.7137899432724023 
1.3699999999998655, -0.7137101292995923 
1.3799999999998644, -0.7139075392658625 
1.3899999999998633, -0.71441678041961 
1.3999999999998622, -0.7152632268076686 
1.4099999999998611, -0.716462777434192 
1.41999999999986, -0.7180224099867807 
1.429999999999859, -0.7199392527097435 
1.4399999999998578, -0.7221952660408654 
1.4499999999998567, -0.7247454719672715 
1.4599999999998556, -0.7275014742190433 
1.4699999999998545, -0.730319566147241 
1.4799999999998534, -0.733009765686764 
1.4899999999998523, -0.7353765028123913 
1.4999999999998512, -0.7372765291624325 
1.5099999999998501, -0.73865693572335 
1.519999999999849, -0.739549056023926 
1.529999999999848, -0.7400309852448463 
1.5399999999998468, -0.740188476791779 
1.5499999999998457, -0.7400914946123109 
1.5599999999998446, -0.7397865216078909 
1.5699999999998435, -0.7392983659231998 
1.5799999999998424, -0.7386371872210297 
1.5899999999998413, -0.7378108822311888 
1.5999999999998402, -0.7368473722991666 
1.6099999999998391, -0.7358349972533256 
1.619999999999838, -0.734989312353427 
1.629999999999837, -0.7347420114705228 
1.6399999999998358, -0.7358059768466108 
1.6499999999998347, -0.7390948912683024 
1.6599999999998336, -0.745341850839436 
1.6699999999998325, -0.7544752195705591 
1.6799999999998314, -0.7652952052515345 
1.6899999999998303, -0.7760097351093432 
1.6999999999998292, -0.785209754958835 
1.709999999999828, -0.7923307924265285 
1.719999999999827, -0.7974587885315069 
1.729999999999826, -0.8009657895060249 
1.7399999999998248, -0.803266764523727 
1.7499999999998237, -0.804712514701882 
1.7599999999998226, -0.8055617903186617 
1.7699999999998215, -0.805987789132665 
1.7799999999998204, -0.8060938451566806 
1.7899999999998193, -0.8059264505374607 
1.7999999999998182, -0.8054808035556432 
1.809999999999817, -0.8046969081826436 
1.819999999999816, -0.8034454540931748 
1.8299999999998149, -0.8015056166142459 
1.8399999999998138, -0.7985466396116171 
1.8499999999998127, -0.7941463845196595 
1.8599999999998116, -0.787902339254284 
1.8699999999998105, -0.7796623136633346 
1.8799999999998094, -0.7697685792892266 
1.8899999999998083, -0.75908159108695 
1.8999999999998072, -0.748684106498586 
1.909999999999806, -0.7394817308646111 
1.919999999999805, -0.7319795891593741 
1.9299999999998039, -0.7262896633713967 
1.9399999999998028, -0.7222546306635553 
1.9499999999998017, -0.7195806062007166 
1.9599999999998006, -0.7179358381179822 
1.9699999999997995, -0.7170116294955766 
1.9799999999997984, -0.7165529338869414 
1.9899999999997973, -0.7163669637534991 
1.9999999999997962, -0.7163176928499085 
2.0099999999998173, -0.7163134043335512 
2.0199999999998384, -0.7162928988527338 
2.0299999999998595, -0.7162139849171792 
2.0399999999998806, -0.7160461797759217 
2.0499999999999017, -0.7157683281756182 
2.059999999999923, -0.7153704968712427 
2.069999999999944, -0.7148574777978565 
2.079999999999965, -0.7142495145693963 
2.089999999999986, -0.7135769923224067 
2.100000000000007, -0.7128704785138147 
2.1100000000000283, -0.7121517445046711 
2.1200000000000494, -0.711430816461599 
2.1300000000000705, -0.7107095870857165 
2.1400000000000916, -0.7099886301750945 
2.1500000000001127, -0.7092733702348158 
2.160000000000134, -0.7085778360777617 
2.170000000000155, -0.7079263748526436 
2.180000000000176, -0.7073543456349825 
2.190000000000197, -0.7069081931904836 
2.2000000000002182, -0.7066445099014083 
2.2100000000002393, -0.7066275000075468 
2.2200000000002604, -0.7069247807922323 
2.2300000000002815, -0.7076022775194595 
2.2400000000003026, -0.7087194098529547 
2.2500000000003237, -0.7103252664080195 
2.260000000000345, -0.7124549624507787 
2.270000000000366, -0.7151234331898564 
2.280000000000387, -0.7183127087621074 
2.290000000000408, -0.7219503292869954 
2.3000000000004293, -0.7258839394223272 
2.3100000000004504, -0.7298706351520242 
2.3200000000004715, -0.7336081864665217 
2.3300000000004926, -0.736815639454558 
2.3400000000005137, -0.7393226880165986 
2.3500000000005348, -0.7411053272764698 
2.360000000000556, -0.7422503483396599 
2.370000000000577, -0.7428889639323638 
2.380000000000598, -0.7431445872585177 
2.390000000000619, -0.7431086393139315 
2.4000000000006403, -0.7428360096551286 
2.4100000000006614, -0.7423486963774548 
2.4200000000006825, -0.7416412301899143 
2.4300000000007036, -0.7406867407671394 
2.4400000000007247, -0.7394464624213781 
2.450000000000746, -0.7378886744465543 
2.460000000000767, -0.7360242801341816 
2.470000000000788, -0.733958971939836 
2.480000000000809, -0.7319345681298872 
2.49000000000083, -0.7302891150703259 
2.5000000000008513, -0.7292830588355503 
2.5100000000008724, -0.7289268241311373 
2.5200000000008935, -0.7290843428293264 
2.5300000000009146, -0.729733722901558 
2.5400000000009357, -0.7309255018530548 
2.550000000000957, -0.7325456188361551 
2.560000000000978, -0.7343095122478492 
2.570000000000999, -0.7359385681513266 
2.58000000000102, -0.7372721366791823 
2.5900000000010412, -0.7382649766459972 
2.6000000000010624, -0.7389382187272081 
2.6100000000010835, -0.7393350867152296 
2.6200000000011046, -0.7394943731153669 
2.6300000000011257, -0.7394372263123679 
2.6400000000011468, -0.7391602427414916 
2.650000000001168, -0.7386302268780052 
2.660000000001189, -0.7377793726174848 
2.67000000000121, -0.7365039403639637 
2.680000000001231, -0.7346750599225798 
2.6900000000012523, -0.7321734936287029 
2.7000000000012734, -0.7289505047133531 
2.7100000000012945, -0.7250879259872338 
2.7200000000013156, -0.720807520702494 
2.7300000000013367, -0.7164080113785355 
2.740000000001358, -0.7121715766092134 
2.750000000001379, -0.7083013291903527 
2.7600000000014, -0.7049103329299224 
2.770000000001421, -0.7020420729081932 
2.780000000001442, -0.6996964414492268 
2.7900000000014633, -0.6978483499661657 
2.8000000000014844, -0.696457640642133 
2.8100000000015055, -0.6954737103669683 
2.8200000000015266, -0.6948384851553543 
2.8300000000015477, -0.6944898406254458 
2.840000000001569, -0.6943658339391796 
2.85000000000159, -0.6944089969069868 
2.860000000001611, -0.6945697232752168 
2.870000000001632, -0.6948082606558496 
2.8800000000016532, -0.6950954484271772 
2.8900000000016743, -0.6954125759676043 
2.9000000000016954, -0.6957503320037224 
2.9100000000017165, -0.69610609630407 
2.9200000000017377, -0.6964786994503982 
2.9300000000017588, -0.6968611230939634 
2.94000000000178, -0.6972340702979157 
2.950000000001801, -0.6975648190553239 
2.960000000001822, -0.697813881658794 
2.970000000001843, -0.697946821376035 
2.9800000000018643, -0.6979443605898571 
2.9900000000018854, -0.697805401612399 
3.0000000000019065, -0.6975435162790047 
3.0100000000019276, -0.6971817607495123 
3.0200000000019487, -0.6967504734196884 
3.03000000000197, -0.6962903888636716 
3.040000000001991, -0.695861749321777 
3.050000000002012, -0.6955595125564652 
3.060000000002033, -0.6955341524542586 
3.070000000002054, -0.69601575704812 
3.0800000000020753, -0.6973354154465274 
3.0900000000020964, -0.6999319281976812 
3.1000000000021175, -0.7043236083432023 
3.1100000000021386, -0.71101573505075 
3.1200000000021597, -0.7203135343062009 
3.130000000002181, -0.7320488044692087 
3.140000000002202, -0.7453459415077919 
3.150000000002223, -0.7586938744952976 
3.160000000002244, -0.7704859062831124 
3.1700000000022652, -0.7797120986190329 
3.1800000000022863, -0.786228703898505 
3.1900000000023074, -0.7904875971036281 
3.2000000000023285, -0.7931139053954092 
3.2100000000023496, -0.794646721629191 
3.2200000000023707, -0.7954655566226189 
3.230000000002392, -0.7958077577839427 
3.240000000002413, -0.7958059581086927 
3.250000000002434, -0.7955172775774548 
3.260000000002455, -0.7949379041661218 
3.2700000000024763, -0.7940028729307096 
3.2800000000024974, -0.7925706750121672 
3.2900000000025185, -0.7903911816564907 
3.3000000000025396, -0.7870579943615084 
3.3100000000025607, -0.7819621669048867 
3.3200000000025818, -0.7743099232118374 
3.330000000002603, -0.7633414373706571 
3.340000000002624, -0.7488759802447593 
3.350000000002645, -0.7319554733933813 
3.360000000002666, -0.7148329891780227 
3.3700000000026873, -0.6999261816581674 
3.3800000000027084, -0.6886335275566339 
3.3900000000027295, -0.6810531690308552 
3.4000000000027506, -0.6764795003729291 
3.4100000000027717, -0.6739940126528844 
3.420000000002793, -0.672802339182201 
3.430000000002814, -0.6723350397865637 
3.440000000002835, -0.6722279680859645 
3.450000000002856, -0.6722659153439219 
3.460000000002877, -0.6723281816102908 
3.4700000000028983, -0.6723477956807854 
3.4800000000029194, -0.6722845696681093 
3.4900000000029405, -0.672108949119096 
3.5000000000029616, -0.6717940035776548 
3.5100000000029827, -0.6713143300615343 
3.520000000003004, -0.6706513716208746 
3.530000000003025, -0.6698031696057142 
3.540000000003046, -0.6687929094647558 
3.550000000003067, -0.6676686063999587 
3.5600000000030882, -0.6664909711837 
3.5700000000031094, -0.665315780120663 
3.5800000000031305, -0.6641812842218273 
3.5900000000031516, -0.6631061636417783 
3.6000000000031727, -0.6620958179267854 
3.6100000000031938, -0.6611513587110289 
3.620000000003215, -0.6602769688441775 
3.630000000003236, -0.6594841861838429 
3.640000000003257, -0.6587936595033985 
3.650000000003278, -0.6582353825415679 
3.6600000000032993, -0.6578480011064185 
3.6700000000033204, -0.6576773632266215 
3.6800000000033415, -0.6577744363920648 
3.6900000000033626, -0.6581929514984495 
3.7000000000033837, -0.6589873072963335 
3.710000000003405, -0.6602110335597945 
3.720000000003426, -0.6619152683181767 
3.730000000003447, -0.6641452742111255 
3.740000000003468, -0.6669313403432383 
3.750000000003489, -0.6702695908657509 
3.7600000000035103, -0.6740909953108557 
3.7700000000035314, -0.6782274268880764 
3.7800000000035525, -0.6824014564057794 
3.7900000000035736, -0.6862734481149334 
3.8000000000035947, -0.689545266376388 
3.810000000003616, -0.6920585490460156 
3.820000000003637, -0.693816933584532 
3.830000000003658, -0.6949313260343268 
3.840000000003679, -0.695544994326452 
3.8500000000037002, -0.6957831191552818 
3.8600000000037213, -0.6957329023365357 
3.8700000000037424, -0.6954411898484336 
3.8800000000037635, -0.6949170075442689 
3.8900000000037847, -0.6941320337900425 
3.9000000000038058, -0.6930157727066402 
3.910000000003827, -0.6914433366624092 
3.920000000003848, -0.6892132556552683 
3.930000000003869, -0.6860120849517409 
3.94000000000389, -0.6813674465547439 
3.9500000000039113, -0.6746220914809484 
3.9600000000039324, -0.6650529334145244 
3.9700000000039535, -0.6523436849242179 
3.9800000000039746, -0.6373200466554598 
3.9900000000039957, -0.6220916904579564 
4.000000000004016, -0.6089713137656435 
4.010000000003993, -0.5992015631533639 
4.02000000000397, -0.5927427836631806 
4.030000000003946, -0.5888646882081041 
4.040000000003923, -0.58672835949928 
4.0500000000039, -0.5856580109388566 
4.0600000000038765, -0.5851902345731503 
4.070000000003853, -0.5850347467370891 
4.08000000000383, -0.5850195453245652 
4.090000000003807, -0.5850458135462224 
4.100000000003783, -0.5850567425057387 
4.11000000000376, -0.5850179142558123 
4.120000000003737, -0.5849061359275519 
4.130000000003713, -0.5847045535108056 
4.14000000000369, -0.5844027534507555 
4.150000000003667, -0.5840004181570932 
4.1600000000036434, -0.5835116361821258 
4.17000000000362, -0.582965469950996 
4.180000000003597, -0.5823995996583918 
4.1900000000035735, -0.5818486284323795 
4.20000000000355, -0.5813331211695945 
4.210000000003527, -0.5808552052759696 
4.220000000003504, -0.5804021964898001 
4.23000000000348, -0.5799552481766185 
4.240000000003457, -0.5794982400057944 
4.250000000003434, -0.579023457222068 
4.26000000000341, -0.5785336347723282 
4.270000000003387, -0.5780423194127635 
4.280000000003364, -0.5775750211898163 
4.2900000000033405, -0.5771729210144076 
4.300000000003317, -0.5769001287288071 
4.310000000003294, -0.5768551290730639 
4.320000000003271, -0.5771869104744121 
4.330000000003247, -0.5781157894102102 
4.340000000003224, -0.5799571269033862 
4.350000000003201, -0.583140929843791 
4.360000000003177, -0.5882079718635805 
4.370000000003154, -0.5957400320905182 
4.380000000003131, -0.6061579167661252 
4.390000000003107, -0.6193525237304163 
4.400000000003084, -0.6343070858745626 
4.410000000003061, -0.6491580461301913 
4.4200000000030375, -0.6619808731019357 
4.430000000003014, -0.6717291561498661 
4.440000000002991, -0.6784463023633677 
4.450000000002968, -0.6827820823230516 
4.460000000002944, -0.6854680431655615 
4.470000000002921, -0.6870760107799083 
4.480000000002898, -0.6879870933925234 
4.490000000002874, -0.6884341686117306 
4.500000000002851, -0.6885484019877115 
4.510000000002828, -0.6883907690866804 
4.520000000002804, -0.6879679084961983 
4.530000000002781, -0.6872351392949677 
4.540000000002758, -0.6860894147108079 
4.5500000000027345, -0.6843568210742047 
4.560000000002711, -0.6817870928524087 
4.570000000002688, -0.678083088737172 
4.580000000002665, -0.6730025888307287 
4.590000000002641, -0.6665311429419164 
4.600000000002618, -0.6590189317714696 
4.610000000002595, -0.6511238132892205 
4.620000000002571, -0.6435598826597747 
4.630000000002548, -0.6368506428182255 
4.640000000002525, -0.6312445044000228 
4.6500000000025015, -0.6267693215090259 
4.660000000002478, -0.6233272861607979 
4.670000000002455, -0.6207693133616781 
4.6800000000024315, -0.6189373676568604 
4.690000000002408, -0.6176839601396373 
4.700000000002385, -0.6168795832452435 
4.710000000002362, -0.6164148125859752 
4.720000000002338, -0.6162001953032552 
4.730000000002315, -0.6161650781556356 
4.740000000002292, -0.6162558252876871 
4.750000000002268, -0.6164337991751984 
4.760000000002245, -0.6166735172031435 
4.770000000002222, -0.6169612151484981 
4.7800000000021985, -0.617293491061355 
4.790000000002175, -0.6176749153087159 
4.800000000002152, -0.6181131009965068 
4.810000000002129, -0.6186106156761483 
4.820000000002105, -0.6191555448370447 
4.830000000002082, -0.6197153277102544 
4.840000000002059, -0.6202391806313154 
4.850000000002035, -0.6206705825532741 
4.860000000002012, -0.6209640350335766 
4.870000000001989, -0.6210962633567533 
4.880000000001965, -0.6210664724973951 
4.890000000001942, -0.6208886592697417 
4.900000000001919, -0.62058282899716 
4.9100000000018955, -0.6201699808884613 
4.920000000001872, -0.6196725172012238 
4.930000000001849, -0.6191205120407269 
