t, s[1].omega / s[0].omega 
0, -1.0199979370011245 
0.009999999999999995, -1.0197090365976054 
0.019999999999999934, -1.0194638004565562 
0.029999999999999874, -1.019340575881064 
0.04000000000000012, -1.019056662664912 
0.050000000000000405, -1.0187349802046557 
0.06000000000000069, -1.018597360488504 
0.07000000000000098, -1.0183240952419064 
0.08000000000000126, -1.0179455428243585 
0.09000000000000155, -1.0177619782949214 
0.10000000000000184, -1.0175123780984587 
0.11000000000000212, -1.0170980567748948 
0.12000000000000241, -1.0168337336559836 
0.130000000000002, -1.0166200462918686 
0.1400000000000009, -1.016188023126461 
0.1499999999999998, -1.0158208690775943 
0.1599999999999987, -1.0156362447000262 
0.1699999999999976, -1.015208770713517 
0.1799999999999965, -1.0147394067569833 
0.1899999999999954, -1.0145463955039729 
0.1999999999999943, -1.0141555010116707 
0.2099999999999932, -1.0136048526401762 
0.2199999999999921, -1.013345028466307 
0.229999999999991, -1.013021934385643 
0.2399999999999899, -1.0124217726640568 
0.2499999999999888, -1.0120392505707838 
0.2599999999999877, -1.0117919742074764 
0.2699999999999866, -1.0111848016195482 
0.2799999999999855, -1.0106500328078787 
0.2899999999999844, -1.0104449498062766 
0.2999999999999833, -1.0098867570340633 
0.3099999999999822, -1.0092119591357662 
0.3199999999999811, -1.008975597003929 
0.32999999999998, -1.0085197404082544 
0.3399999999999789, -1.0077543333748764 
0.3499999999999778, -1.0073980536859926 
0.35999999999997667, -1.007066978374151 
0.36999999999997557, -1.0062819989435126 
0.37999999999997447, -1.005740877376211 
0.38999999999997337, -1.0055063583708101 
0.39999999999997227, -1.0047850259143234 
0.40999999999997117, -1.0040530202757276 
0.41999999999997006, -1.003837038518515 
0.42999999999996896, -1.0032527555580684 
0.43999999999996786, -1.0023926343190905 
0.44999999999996676, -1.0020864515802779 
0.45999999999996566, -1.001670837384299 
0.46999999999996456, -1.0007836614516803 
0.47999999999996346, -1.00029467177892 
0.48999999999996235, -1.000021077267453 
0.49999999999996125, -0.9992106324855553 
0.5099999999999602, -0.9985164701419919 
0.519999999999959, -0.9983063295925421 
0.529999999999958, -0.9976533441105904 
0.5399999999999568, -0.9968208035322504 
0.5499999999999557, -0.9965611963677997 
0.5599999999999546, -0.9960976038924839 
0.5699999999999535, -0.9952414429383919 
0.5799999999999524, -0.9948303856837192 
0.5899999999999513, -0.9945305340635207 
0.5999999999999502, -0.9937544980524471 
0.6099999999999491, -0.993163734457828 
0.619999999999948, -0.9929534732578129 
0.6299999999999469, -0.992327459892193 
0.6399999999999458, -0.9916198951203928 
0.6499999999999447, -0.9913937031947045 
0.6599999999999436, -0.9909432413980686 
0.6699999999999425, -0.9902240417788937 
0.6799999999999414, -0.9898878730358296 
0.6899999999999403, -0.9895920755656559 
0.6999999999999392, -0.9889450003731389 
0.7099999999999381, -0.9884738356548229 
0.719999999999937, -0.9882712516874582 
0.7299999999999359, -0.9877457225819251 
0.7399999999999348, -0.9871924124132997 
0.7499999999999337, -0.9869937754303221 
0.7599999999999326, -0.9866077768644239 
0.7699999999999315, -0.9860544274634195 
0.7799999999999304, -0.9857827336623256 
0.7899999999999293, -0.9855228297122544 
0.7999999999999282, -0.9850292196943031 
0.8099999999999271, -0.9846649125413702 
0.819999999999926, -0.9844864796705237 
0.8299999999999249, -0.984085275211729 
0.8399999999999238, -0.9836674024609771 
0.8499999999999227, -0.9835019238988812 
0.8599999999999216, -0.983205557820196 
0.8699999999999205, -0.9827933834970979 
0.8799999999999194, -0.982581816263461 
0.8899999999999183, -0.9823827647991753 
0.8999999999999172, -0.9820216200146658 
0.9099999999999161, -0.9817460722269854 
0.919999999999915, -0.9816140116733629 
0.9299999999999139, -0.9813302766551425 
0.9399999999999128, -0.9810150298190071 
0.9499999999999117, -0.9809002607195422 
0.9599999999999106, -0.9807041286722561 
0.9699999999999095, -0.9803945201419343 
0.9799999999999084, -0.9802497986577029 
0.9899999999999073, -0.9801366338273885 
0.9999999999999062, -0.9798783071275098 
1.0099999999999052, -0.9796797309966695 
1.019999999999904, -0.9796280315063899 
1.029999999999903, -0.979452913441041 
1.039999999999902, -0.9792112416150273 
1.0499999999999008, -0.9791824228289564 
1.0599999999998997, -0.9791042924939162 
1.0699999999998986, -0.978864514971781 
1.0799999999998975, -0.9788093040660337 
1.0899999999998964, -0.978826329535437 
1.0999999999998953, -0.9786512146641531 
1.1099999999998942, -0.978527980432941 
1.119999999999893, -0.9786219167230862 
1.129999999999892, -0.9785631696637721 
1.1399999999998909, -0.9783729660168936 
1.1499999999998898, -0.978500951652015 
1.1599999999998887, -0.9785892019866372 
1.1699999999998876, -0.9783955193481974 
1.1799999999998865, -0.9784791106689208 
1.1899999999998854, -0.9787236728053779 
1.1999999999998843, -0.9786257327537307 
1.2099999999998832, -0.9785877384286428 
1.219999999999882, -0.9789669794533553 
1.229999999999881, -0.9790585868530679 
1.2399999999998799, -0.978901378660903 
1.2499999999998788, -0.9793317824103241 
1.2599999999998777, -0.9796922357245036 
1.2699999999998766, -0.9795261178224116 
1.2799999999998755, -0.9798440194003024 
1.2899999999998744, -0.9805201977726166 
1.2999999999998733, -0.9804995091488458 
1.3099999999998722, -0.9805689306302949 
1.319999999999871, -0.9815190989725442 
1.32999999999987, -0.9818133115704063 
1.3399999999998689, -0.9816710246566377 
1.3499999999998678, -0.9826769287905681 
1.3599999999998666, -0.9834726547748002 
1.3699999999998655, -0.9833147729473768 
1.3799999999998644, -0.9840250785499214 
1.3899999999998633, -0.9854464593530411 
1.3999999999998622, -0.9854840449237384 
1.4099999999998611, -0.9856983990239202 
1.41999999999986, -0.987621817044663 
1.429999999999859, -0.988113990708137 
1.4399999999998578, -0.9879777355752077 
1.4499999999998567, -0.9898775694518721 
1.4599999999998556, -0.9911431215671453 
1.4699999999998545, -0.990970266754767 
1.4799999999998534, -0.9922289833223941 
1.4899999999998523, -0.9944254417451193 
1.4999999999998512, -0.9944517914837793 
1.5099999999998501, -0.9948803976182571 
1.519999999999849, -0.997687350561747 
1.529999999999848, -0.9981816800575865 
1.5399999999998468, -0.9980892486747331 
1.5499999999998457, -1.0006802882659225 
1.5599999999998446, -1.001951120404749 
1.5699999999998435, -1.0017532770996114 
1.5799999999998424, -1.0034334008058348 
1.5899999999998413, -1.0055250236923858 
1.5999999999998402, -1.0054591961629504 
1.6099999999998391, -1.006151588519324 
1.619999999999838, -1.0086517305302156 
1.629999999999837, -1.0089000976560223 
1.6399999999998358, -1.0089547734209625 
1.6499999999998347, -1.011193077572427 
1.6599999999998336, -1.0119198790957962 
1.6699999999998325, -1.011742501847702 
1.6799999999998314, -1.0132591793014003 
1.6899999999998303, -1.0144350903768555 
1.6999999999998292, -1.0142752080762019 
1.709999999999828, -1.0150341381212555 
1.719999999999827, -1.0164039033068069 
1.729999999999826, -1.016393293466594 
1.7399999999998248, -1.016603007121085 
1.7499999999998237, -1.017851148238872 
1.7599999999998226, -1.0180661309753625 
1.7699999999998215, -1.0179786129503288 
1.7799999999998204, -1.0188980296567276 
1.7899999999998193, -1.0193224386151716 
1.7999999999998182, -1.0191381146785674 
1.809999999999817, -1.019677053744948 
1.819999999999816, -1.0202037944167928 
1.8299999999998149, -1.0200485050878372 
1.8399999999998138, -1.0202579716782811 
1.8499999999998127, -1.0207613392099468 
1.8599999999998116, -1.0206991394726157 
1.8699999999998105, -1.0206730740772825 
1.8799999999998094, -1.021068081094904 
1.8899999999998083, -1.0211064859287935 
1.8999999999998072, -1.0209451313240023 
1.909999999999806, -1.0211965698848091 
1.919999999999805, -1.0212975462017873 
1.9299999999998039, -1.021088634653242 
1.9399999999998028, -1.0211892370015205 
1.9499999999998017, -1.0213014340648288 
1.9599999999998006, -1.0211069765852685 
1.9699999999997995, -1.0210666131941533 
1.9799999999997984, -1.021152524821365 
1.9899999999997973, -1.02099918170189 
1.9999999999997962, -1.0208443223068715 
2.0099999999998173, -1.0208852915120894 
2.0199999999998384, -1.020767850490511 
2.0299999999998595, -1.0205373345700643 
2.0399999999998806, -1.0205206552592012 
2.0499999999999017, -1.0204207750939385 
2.059999999999923, -1.0201559998991567 
2.069999999999944, -1.020066549167708 
2.079999999999965, -1.0199706201010303 
2.089999999999986, -1.019702477342288 
2.100000000000007, -1.0195287673716336 
2.1100000000000283, -1.019431673899196 
2.1200000000000494, -1.0191728141841168 
2.1300000000000705, -1.0189168157859294 
2.1400000000000916, -1.0188112887250167 
2.1500000000001127, -1.0185629897940551 
2.160000000000134, -1.0182418638912911 
2.170000000000155, -1.0181074528963518 
2.180000000000176, -1.017873148436679 
2.190000000000197, -1.0175109243896052 
2.2000000000002182, -1.017317119186802 
2.2100000000002393, -1.0171064100018752 
2.2200000000002604, -1.0167233766271793 
2.2300000000002815, -1.016443825179468 
2.2400000000003026, -1.0162616580139432 
2.2500000000003237, -1.0158732802535058 
2.260000000000345, -1.0154991437591319 
2.270000000000366, -1.0153290586603696 
2.280000000000387, -1.014954887213819 
2.290000000000408, -1.0144983847334297 
2.3000000000004293, -1.0142982955286217 
2.3100000000004504, -1.0139650256177213 
2.3200000000004715, -1.0134509431837477 
2.3300000000004926, -1.0131686521223204 
2.3400000000005137, -1.0128976843486164 
2.3500000000005348, -1.01235542522152 
2.360000000000556, -1.0119511674920265 
2.370000000000577, -1.011737557242591 
2.380000000000598, -1.01120497109506 
2.390000000000619, -1.0106695802906627 
2.4000000000006403, -1.0104691396487528 
2.4100000000006614, -1.0099934563740716 
2.4200000000006825, -1.0093528945705996 
2.4300000000007036, -1.0090923123324875 
2.4400000000007247, -1.008713174380724 
2.450000000000746, -1.0080159092957595 
2.460000000000767, -1.0076225445920892 
2.470000000000788, -1.007347310796102 
2.480000000000809, -1.0066546168298065 
2.49000000000083, -1.0060902208763092 
2.5000000000008513, -1.0058785625971873 
2.5100000000008724, -1.0052597168793163 
2.5200000000008935, -1.0045428150390636 
2.5300000000009146, -1.0043115397462703 
2.5400000000009357, -1.003822499181103 
2.550000000000957, -1.0030210477414647 
2.560000000000978, -1.002672215329467 
2.570000000000999, -1.0023286302052208 
2.58000000000102, -1.0015294957666676 
2.5900000000010412, -1.0009985533767516 
2.6000000000010624, -1.0007630201044315 
2.6100000000010835, -1.0000517008925598 
2.6200000000011046, -0.9993458663994078 
2.6300000000011257, -0.9991340479261914 
2.6400000000011468, -0.9985737279916016 
2.650000000001168, -0.9977710648826205 
2.660000000001189, -0.9974752147013679 
2.67000000000121, -0.9970838539172505 
2.680000000001231, -0.9962858809514146 
2.6900000000012523, -0.9958279915052397 
2.7000000000012734, -0.9955709296695197 
2.7100000000012945, -0.9948640216911409 
2.7200000000013156, -0.9942438414758558 
2.7300000000013367, -0.9940413483025018 
2.740000000001358, -0.9934825725479497 
2.750000000001379, -0.9927760950164152 
2.7600000000014, -0.9925245691177051 
2.770000000001421, -0.9921296303327862 
2.780000000001442, -0.9914334016760014 
2.7900000000014633, -0.9910565850758941 
2.8000000000014844, -0.9907969151421567 
2.8100000000015055, -0.9901826100480993 
2.8200000000015266, -0.9896779050553682 
2.8300000000015477, -0.9894852886246144 
2.840000000001569, -0.9889954128693351 
2.85000000000159, -0.9884275279426646 
2.860000000001611, -0.9882120430069213 
2.870000000001632, -0.9878587674400217 
2.8800000000016532, -0.9873059256354936 
2.8900000000016743, -0.9870025124691069 
2.9000000000016954, -0.9867659684163653 
2.9100000000017165, -0.9862809837840185 
2.9200000000017377, -0.9858863336167644 
2.9300000000017588, -0.9857143757012973 
2.94000000000178, -0.9853262033649608 
2.950000000001801, -0.9848893787626368 
2.960000000001822, -0.984710717568211 
2.970000000001843, -0.9844283645397421 
2.9800000000018643, -0.9840082638136228 
2.9900000000018854, -0.9837708984082089 
3.0000000000019065, -0.9835819222949457 
3.0100000000019276, -0.9832196089194034 
3.0200000000019487, -0.9829172708598586 
3.03000000000197, -0.9827846112411193 
3.040000000001991, -0.9825026130751353 
3.050000000002012, -0.982168772756676 
3.060000000002033, -0.9820389730021721 
3.070000000002054, -0.9818442991096242 
3.0800000000020753, -0.9815263604488575 
3.0900000000020964, -0.9813558152509595 
3.1000000000021175, -0.9812400525606738 
3.1100000000021386, -0.980979516505771 
3.1200000000021597, -0.9807540259230675 
3.130000000002181, -0.9806904770537833 
3.140000000002202, -0.9805127205461763 
3.150000000002223, -0.9802532628870003 
3.160000000002244, -0.9801996041792639 
3.1700000000022652, -0.9801130280159693 
3.1800000000022863, -0.9798681127374034 
3.1900000000023074, -0.9797778967874279 
3.2000000000023285, -0.9797761747609778 
3.2100000000023496, -0.9796020108098766 
3.2200000000023707, -0.9794455489501701 
3.230000000002392, -0.9795060434361446 
3.240000000002413, -0.9794427048569703 
3.250000000002434, -0.9792344767203497 
3.260000000002455, -0.9793117687749298 
3.2700000000024763, -0.9793784443162162 
3.2800000000024974, -0.9791849614609623 
3.2900000000025185, -0.9792083082899441 
3.3000000000025396, -0.9794040982581989 
3.3100000000025607, -0.9793130332934566 
3.3200000000025818, -0.9792264221809891 
3.330000000002603, -0.9795233041059512 
3.340000000002624, -0.9796088626234771 
3.350000000002645, -0.9794326041587471 
3.360000000002666, -0.9797504678314991 
3.3700000000026873, -0.9800664711500536 
3.3800000000027084, -0.979908250306477 
3.3900000000027295, -0.9801106309393357 
3.4000000000027506, -0.9806763239145718 
3.4100000000027717, -0.9806731503476626 
3.420000000002793, -0.9806654306940338 
3.430000000002814, -0.9814254300418384 
3.440000000002835, -0.9817183005014074 
3.450000000002856, -0.9815557267001098 
3.460000000002877, -0.9823193200785405 
3.4700000000028983, -0.9830443953440213 
3.4800000000029194, -0.9829043634526651 
3.4900000000029405, -0.9833970056726037 
3.5000000000029616, -0.9846196016749825 
3.5100000000029827, -0.9846952342705618 
3.520000000003004, -0.9847857086325168 
3.530000000003025, -0.9863622797396785 
3.540000000003046, -0.9868896826553534 
3.550000000003067, -0.9867272124272936 
3.5600000000030882, -0.98821349206566 
3.5700000000031094, -0.9894495241940046 
3.5800000000031305, -0.9893028771672244 
3.5900000000031516, -0.9902206467495915 
3.6000000000031727, -0.9922560313842529 
3.6100000000031938, -0.9923480528135457 
3.620000000003215, -0.9925844160028072 
3.630000000003236, -0.9950841913392725 
3.640000000003257, -0.9956961697395557 
3.650000000003278, -0.9955480397548211 
3.6600000000032993, -0.9977624497941473 
3.6700000000033204, -0.9991832888061926 
3.6800000000033415, -0.9990057719990083 
3.6900000000033626, -1.0003533245195149 
3.7000000000033837, -1.0025860264979023 
3.710000000003405, -1.002593885582197 
3.720000000003426, -1.0030552511966522 
3.730000000003447, -1.0056386375678605 
3.740000000003468, -1.0060418862282492 
3.750000000003489, -1.0059838253023157 
3.7600000000035103, -1.0082042378860576 
3.7700000000035314, -1.0091793220025533 
3.7800000000035525, -1.0089854862787568 
3.7900000000035736, -1.0103996101861545 
3.8000000000035947, -1.0118781816807456 
3.810000000003616, -1.0117653627656897 
3.820000000003637, -1.0123911831660262 
3.830000000003658, -1.0140475874484798 
3.840000000003679, -1.0141470871740985 
3.8500000000037002, -1.0142453715823643 
3.8600000000037213, -1.015694386006712 
3.8700000000037424, -1.0160858384909202 
3.8800000000037635, -1.0159424555592687 
3.8900000000037847, -1.0169511835786877 
3.9000000000038058, -1.0175906594003505 
3.910000000003827, -1.0174099842293838 
3.920000000003848, -1.0179502361609332 
3.930000000003869, -1.0186874533236665 
3.94000000000389, -1.0185858956964027 
3.9500000000039113, -1.0187536317575947 
3.9600000000039324, -1.0194275394846692 
3.9700000000039535, -1.0194596084624916 
3.9800000000039746, -1.0193893999042765 
3.9900000000039957, -1.019898602788854 
4.000000000004016, -1.0200546333468274 
4.010000000003993, -1.0198736302895008 
4.02000000000397, -1.0201818877251656 
4.030000000003946, -1.0204024304117223 
4.040000000003923, -1.020208924616807 
4.0500000000039, -1.0203207621599897 
4.0600000000038765, -1.020537943391064 
4.070000000003853, -1.0203904922747715 
4.08000000000383, -1.0203375079462722 
4.090000000003807, -1.0205054181759288 
4.100000000003783, -1.0204189491106628 
4.11000000000376, -1.0202503503161398 
4.120000000003737, -1.0203467205380197 
4.130000000003713, -1.020303035443454 
4.14000000000369, -1.0200744521624452 
4.150000000003667, -1.020085547009808 
4.1600000000036434, -1.0200567163788723 
4.17000000000362, -1.0198168242160983 
4.180000000003597, -1.0197327206277857 
4.1900000000035735, -1.0196989883772827 
4.20000000000355, -1.0194758064757452 
4.210000000003527, -1.0192979438696426 
4.220000000003504, -1.0192490998344501 
4.23000000000348, -1.019047251387219 
4.240000000003457, -1.018793143843259 
4.250000000003434, -1.0187169571869552 
4.26000000000341, -1.0185305043696127 
4.270000000003387, -1.0182285306384573 
4.280000000003364, -1.0181036047741536 
4.2900000000033405, -1.0179302214725516 
4.300000000003317, -1.0176076733144763 
4.310000000003294, -1.0174105331219125 
4.320000000003271, -1.0172531179793458 
4.330000000003247, -1.016926930812837 
4.340000000003224, -1.0166454308492132 
4.350000000003201, -1.0165001510496938 
4.360000000003177, -1.0161800917586243 
4.370000000003154, -1.0158209259297497 
4.380000000003131, -1.015664586191355 
4.390000000003107, -1.015363706752692 
4.400000000003084, -1.0149477688086361 
4.410000000003061, -1.014740928750933 
4.4200000000030375, -1.014477160655385 
4.430000000003014, -1.0140282769053333 
4.440000000002991, -1.0137325215478121 
4.450000000002968, -1.0135158389521333 
4.460000000002944, -1.0130572458142921 
4.470000000002921, -1.0126531587159093 
4.480000000002898, -1.0124671094888746 
4.490000000002874, -1.012028089888394 
4.500000000002851, -1.0115243496976547 
4.510000000002828, -1.0113204888238219 
4.520000000002804, -1.0109363126433193 
4.530000000002781, -1.0103631762579668 
4.540000000002758, -1.0100783965476372 
4.5500000000027345, -1.0097747840623668 
4.560000000002711, -1.0091718714242508 
4.570000000002688, -1.0087564338057098 
4.580000000002665, -1.0085279353178584 
4.590000000002641, -1.007943315940792 
4.600000000002618, -1.007384646003367 
4.610000000002595, -1.0071828177737687 
4.620000000002571, -1.0066704715305532 
4.630000000002548, -1.0060008237087923 
4.640000000002525, -1.0057454160049617 
4.6500000000025015, -1.0053458235644408 
4.660000000002478, -1.0046252048229978 
4.670000000002455, -1.0042380378675304 
4.6800000000024315, -1.0039548729313423 
4.690000000002408, -1.0032524018828848 
4.700000000002385, -1.0026967490365848 
4.710000000002362, -1.0024851556326315 
4.720000000002338, -1.0018701282586113 
4.730000000002315, -1.001173075065119 
4.740000000002292, -1.0009470002310452 
4.750000000002268, -1.0004691250041886 
4.760000000002245, -0.9997066320531819 
4.770000000002222, -0.9993704198938121 
4.7800000000021985, -0.9990381524690232 
4.790000000002175, -0.9982955376114399 
4.800000000002152, -0.9977948867950622 
4.810000000002129, -0.9975671713664125 
4.820000000002105, -0.9969184924161283 
4.830000000002082, -0.9962730631937693 
4.840000000002059, -0.9960662742969968 
4.850000000002035, -0.9955606627256963 
4.860000000002012, -0.9948502724252629 
4.870000000001989, -0.9945658726326069 
4.880000000001965, -0.9942126816290856 
4.890000000001942, -0.9935247306259727 
4.900000000001919, -0.9931027473013021 
4.9100000000018955, -0.9928669008309633 
4.920000000001872, -0.9922670468937531 
4.930000000001849, -0.9917213370175894 
