t, s[1].omega / s[0].omega 
0, -0.6001548764976946 
0.009999999999999995, -0.6149063264412178 
0.019999999999999934, -0.6269571856843901 
0.029999999999999874, -0.6356504622397654 
0.04000000000000012, -0.6414955187380916 
0.050000000000000405, -0.6453242458929455 
0.06000000000000069, -0.647819212671485 
0.07000000000000098, -0.6494367559349157 
0.08000000000000126, -0.6504643124390117 
0.09000000000000155, -0.6510809890347283 
0.10000000000000184, -0.6513963988906059 
0.11000000000000212, -0.6514725786151713 
0.12000000000000241, -0.6513354672235556 
0.130000000000002, -0.6509799595274011 
0.1400000000000009, -0.6503713881293807 
0.1499999999999998, -0.6494470794868178 
0.1599999999999987, -0.6481241537559567 
0.1699999999999976, -0.6463218189026587 
0.1799999999999965, -0.644001661349787 
0.1899999999999954, -0.6412117219705847 
0.1999999999999943, -0.6381008950063468 
0.2099999999999932, -0.6348810204482761 
0.2199999999999921, -0.6317580892769964 
0.229999999999991, -0.6288795580072298 
0.2399999999999899, -0.6263217899146235 
0.2499999999999888, -0.6241067391957938 
0.2599999999999877, -0.6222263307373476 
0.2699999999999866, -0.6206614181475605 
0.2799999999999855, -0.6193922777246291 
0.2899999999999844, -0.6184025289306972 
0.2999999999999833, -0.6176793442330419 
0.3099999999999822, -0.6172122156076645 
0.3199999999999811, -0.6169917049929835 
0.32999999999998, -0.6170089274489722 
0.3399999999999789, -0.617256015971377 
0.3499999999999778, -0.6177274383061284 
0.35999999999997667, -0.6184217252254689 
0.36999999999997557, -0.6193428441855972 
0.37999999999997447, -0.6204999990275112 
0.38999999999997337, -0.6219040514643289 
0.39999999999997227, -0.6235584534882925 
0.40999999999997117, -0.6254436937416765 
0.41999999999997006, -0.6274984657230007 
0.42999999999996896, -0.6296082245660292 
0.43999999999996786, -0.6316166424842667 
0.44999999999996676, -0.63336575349262 
0.45999999999996566, -0.634745545926952 
0.46999999999996456, -0.635719965223436 
0.47999999999996346, -0.6363157930740985 
0.48999999999996235, -0.6365907817320258 
0.49999999999996125, -0.6366042232464018 
0.5099999999999602, -0.6364000091110472 
0.519999999999959, -0.6360000765506886 
0.529999999999958, -0.6354026295764095 
0.5399999999999568, -0.6345808105380653 
0.5499999999999557, -0.6334792332324283 
0.5599999999999546, -0.6320061417631777 
0.5699999999999535, -0.6300170478190905 
0.5799999999999524, -0.6272807811549032 
0.5899999999999513, -0.62341510440362 
0.5999999999999502, -0.6178043340485793 
0.6099999999999491, -0.6096324939378621 
0.619999999999948, -0.5983392325466619 
0.6299999999999469, -0.5845093308393111 
0.6399999999999458, -0.5701797023453896 
0.6499999999999447, -0.5577017453765378 
0.6599999999999436, -0.5483473194093829 
0.6699999999999425, -0.5420969625625134 
0.6799999999999414, -0.5382646486230225 
0.6899999999999403, -0.5360725943025629 
0.6999999999999392, -0.5349009869694332 
0.7099999999999381, -0.5343256232565041 
0.719999999999937, -0.534078471984875 
0.7299999999999359, -0.5339976463454934 
0.7399999999999348, -0.5339876256122451 
0.7499999999999337, -0.5339922051888937 
0.7599999999999326, -0.5339776371971058 
0.7699999999999315, -0.5339231301425647 
0.7799999999999304, -0.5338167026424275 
0.7899999999999293, -0.533654938847205 
0.7999999999999282, -0.5334448867638928 
0.8099999999999271, -0.5332053303414026 
0.819999999999926, -0.5329642447567273 
0.8299999999999249, -0.5327510496858544 
0.8399999999999238, -0.532585956996362 
0.8499999999999227, -0.532471407948334 
0.8599999999999216, -0.5323900942024887 
0.8699999999999205, -0.5323108501638376 
0.8799999999999194, -0.5321995784416725 
0.8899999999999183, -0.5320296318704896 
0.8999999999999172, -0.5317870282658628 
0.9099999999999161, -0.5314699467298192 
0.919999999999915, -0.5310854598002197 
0.9299999999999139, -0.5306470409311074 
0.9399999999999128, -0.5301751461860571 
0.9499999999999117, -0.5297021662876954 
0.9599999999999106, -0.5292831143818229 
0.9699999999999095, -0.5290142300888451 
0.9799999999999084, -0.5290622191079282 
0.9899999999999073, -0.5297046535894167 
0.9999999999999062, -0.5313708134896931 
1.0099999999999052, -0.5346393177570424 
1.019999999999904, -0.5400864985088353 
1.029999999999903, -0.5478522309143187 
1.039999999999902, -0.5570439691590872 
1.0499999999999008, -0.5657339241682744 
1.0599999999998997, -0.5721803181152342 
1.0699999999998986, -0.5760808152078997 
1.0799999999998975, -0.5782716203778541 
1.0899999999998964, -0.5796493096952764 
1.0999999999998953, -0.5806879823151141 
1.1099999999998942, -0.5815403514197327 
1.119999999999893, -0.5822318596133745 
1.129999999999892, -0.5827625575708807 
1.1399999999998909, -0.5831364484272579 
1.1499999999998898, -0.583362222056716 
1.1599999999998887, -0.5834476565262696 
1.1699999999998876, -0.5833947123330974 
1.1799999999998865, -0.583196653998633 
1.1899999999998854, -0.5828375628309395 
1.1999999999998843, -0.582295277585216 
1.2099999999998832, -0.5815493250429287 
1.219999999999882, -0.5805939387511636 
1.229999999999881, -0.5794516417190133 
1.2399999999998799, -0.5781779914628797 
1.2499999999998788, -0.5768503751561499 
1.2599999999998777, -0.5755452383770605 
1.2699999999998766, -0.5743175934466862 
1.2799999999998755, -0.5731933923007863 
1.2899999999998744, -0.5721747046041249 
1.2999999999998733, -0.571250998040063 
1.3099999999998722, -0.5704100301334629 
1.319999999999871, -0.5696452255837421 
1.32999999999987, -0.568959524087588 
1.3399999999998689, -0.5683672236206696 
1.3499999999998678, -0.5678954204699669 
1.3599999999998666, -0.5675860270769821 
1.3699999999998655, -0.5674987345435889 
1.3799999999998644, -0.5677149540519149 
1.3899999999998633, -0.5683426416755941 
1.3999999999998622, -0.5695217026382517 
1.4099999999998611, -0.5714288939523138 
1.41999999999986, -0.5742789669449462 
1.429999999999859, -0.5783140364918105 
1.4399999999998578, -0.5837652908222614 
1.4499999999998567, -0.5907644577347296 
1.4599999999998556, -0.599195206931413 
1.4699999999998545, -0.608539380323647 
1.4799999999998534, -0.6178770443180142 
1.4899999999998523, -0.6261812645243633 
1.4999999999998512, -0.6327620999551232 
1.5099999999998501, -0.6374832380044494 
1.519999999999849, -0.6406188679294038 
1.529999999999848, -0.6425798862699035 
1.5399999999998468, -0.6437320803860261 
1.5499999999998457, -0.6443376101858511 
1.5599999999998446, -0.6445610976415229 
1.5699999999998435, -0.6444916884781874 
1.5799999999998424, -0.6441602782243194 
1.5899999999998413, -0.6435463567224853 
1.5999999999998402, -0.6425738332010849 
1.6099999999998391, -0.641096754495687 
1.619999999999838, -0.638879924542459 
1.629999999999837, -0.6355923972434308 
1.6399999999998358, -0.6308560822994586 
1.6499999999998347, -0.6244028257074503 
1.6599999999998336, -0.6163206010088171 
1.6699999999998325, -0.6072008557149225 
1.6799999999998314, -0.5979708423121111 
1.6899999999998303, -0.589498354043615 
1.6999999999998292, -0.5823027014484183 
1.709999999999828, -0.5765305062243959 
1.719999999999827, -0.5720864424986527 
1.729999999999826, -0.5687708997504968 
1.7399999999998248, -0.5663659825271594 
1.7499999999998237, -0.5646745230623614 
1.7599999999998226, -0.5635320816952522 
1.7699999999998215, -0.5628070282003012 
1.7799999999998204, -0.5623966387280749 
1.7899999999998193, -0.5622225427469787 
1.7999999999998182, -0.5622266458453444 
1.809999999999817, -0.562367823295179 
1.819999999999816, -0.5626194470448976 
1.8299999999998149, -0.5629676935900264 
1.8399999999998138, -0.5634102918752208 
1.8499999999998127, -0.5639547992197742 
1.8599999999998116, -0.564614843204516 
1.8699999999998105, -0.5654026664616787 
1.8799999999998094, -0.5663175932471093 
1.8899999999998083, -0.5673331488949842 
1.8999999999998072, -0.5683896421372084 
1.909999999999806, -0.5694005343526042 
1.919999999999805, -0.5702746668295892 
1.9299999999998039, -0.5709436190956538 
1.9399999999998028, -0.5713772173805747 
1.9499999999998017, -0.5715798358673361 
1.9599999999998006, -0.571574743976963 
1.9699999999997995, -0.5713879955503061 
1.9799999999997984, -0.5710378143900091 
1.9899999999997973, -0.5705293289306728 
1.9999999999997962, -0.5698520943054153 
2.0099999999998173, -0.5689778287894449 
2.0199999999998384, -0.5678558431506097 
2.0299999999998595, -0.5664018878635101 
2.0399999999998806, -0.5644705997414794 
2.0499999999999017, -0.5617918639752792 
2.059999999999923, -0.5578514835029877 
2.069999999999944, -0.5517707064651183 
2.079999999999965, -0.5424746944727615 
2.089999999999986, -0.5295545849594332 
2.100000000000007, -0.5143282146491808 
2.1100000000000283, -0.49947488100096366 
2.1200000000000494, -0.4872441414700909 
2.1300000000000705, -0.4783826837278208 
2.1400000000000916, -0.4724946510571998 
2.1500000000001127, -0.46879707030512724 
2.160000000000134, -0.46656518178172074 
2.170000000000155, -0.4652635485810048 
2.180000000000176, -0.4645344891402409 
2.190000000000197, -0.4641506668014809 
2.2000000000002182, -0.46397130080171534 
2.2100000000002393, -0.4639105677294725 
2.2200000000002604, -0.4639170115264569 
2.2300000000002815, -0.46396103588054205 
2.2400000000003026, -0.46402802652248215 
2.2500000000003237, -0.4641153039487203 
2.260000000000345, -0.4642312893427449 
2.270000000000366, -0.46439492430974383 
2.280000000000387, -0.46463300949717556 
2.290000000000408, -0.4649735741932849 
2.3000000000004293, -0.46543512827199984 
2.3100000000004504, -0.46601427835516984 
2.3200000000004715, -0.46667693325817466 
2.3300000000004926, -0.46735972338701204 
2.3400000000005137, -0.46798503869794167 
2.3500000000005348, -0.4684839652419225 
2.360000000000556, -0.4688139016504322 
2.370000000000577, -0.46896150047605795 
2.380000000000598, -0.46893307002398954 
2.390000000000619, -0.4687409946684481 
2.4000000000006403, -0.46839234675063446 
2.4100000000006614, -0.4678806099602892 
2.4200000000006825, -0.46717801598049685 
2.4300000000007036, -0.46622435140687857 
2.4400000000007247, -0.46490632008176425 
2.450000000000746, -0.4630185637169286 
2.460000000000767, -0.4601960884495096 
2.470000000000788, -0.45582448010335275 
2.480000000000809, -0.44901291258334347 
2.49000000000083, -0.4388743298347566 
2.5000000000008513, -0.42531872261726134 
2.5100000000008724, -0.40978740242619355 
2.5200000000008935, -0.3947228451752878 
2.5300000000009146, -0.3820561365273033 
2.5400000000009357, -0.37242545165742297 
2.550000000000957, -0.36552638926529796 
2.560000000000978, -0.3607283622741372 
2.570000000000999, -0.3574318085721163 
2.58000000000102, -0.35517843444759795 
2.5900000000010412, -0.35364909383666554 
2.6000000000010624, -0.35263154018450676 
2.6100000000010835, -0.35198903057014214 
2.6200000000011046, -0.35163725494908693 
2.6300000000011257, -0.351529405112127 
2.6400000000011468, -0.3516476243592175 
2.650000000001168, -0.351999300476348 
2.660000000001189, -0.35261716301411195 
2.67000000000121, -0.3535623770042772 
2.680000000001231, -0.3549294073506278 
2.6900000000012523, -0.35684972573184737 
2.7000000000012734, -0.3594873359339771 
2.7100000000012945, -0.36301176708305927 
2.7200000000013156, -0.36752760142202096 
2.7300000000013367, -0.37295299842327057 
2.740000000001358, -0.3789043789583196 
2.750000000001379, -0.3847298484223683 
2.7600000000014, -0.3897691032983748 
2.770000000001421, -0.3936538836509213 
2.780000000001442, -0.39638106389837546 
2.7900000000014633, -0.39816418634724426 
2.8000000000014844, -0.39925955263238044 
2.8100000000015055, -0.39987581203453193 
2.8200000000015266, -0.4001542664762966 
2.8300000000015477, -0.40017833325777136 
2.840000000001569, -0.399987612584359 
2.85000000000159, -0.39958877163564327 
2.860000000001611, -0.3989636061811451 
2.870000000001632, -0.39807814228219096 
2.8800000000016532, -0.39689802063665885 
2.8900000000016743, -0.39541306069676696 
2.9000000000016954, -0.393664471029143 
2.9100000000017165, -0.3917557096910627 
2.9200000000017377, -0.389830117132678 
2.9300000000017588, -0.3880241834702534 
2.94000000000178, -0.38642773160619276 
2.950000000001801, -0.38507250234511037 
2.960000000001822, -0.3839448235991528 
2.970000000001843, -0.3830065507106686 
2.9800000000018643, -0.3822131514332533 
2.9900000000018854, -0.3815253327425651 
3.0000000000019065, -0.3809147247769779 
3.0100000000019276, -0.38036564682872787 
3.0200000000019487, -0.3798753375721383 
3.03000000000197, -0.3794547983450306 
3.040000000001991, -0.37913199956448124 
3.050000000002012, -0.3789590870034921 
3.060000000002033, -0.3790255936770083 
3.070000000002054, -0.37948023221734745 
3.0800000000020753, -0.3805632451108214 
3.0900000000020964, -0.3826449695653387 
3.1000000000021175, -0.38624171413328745 
3.1100000000021386, -0.3919146067002257 
3.1200000000021597, -0.39986096470661664 
3.130000000002181, -0.40911523287994767 
3.140000000002202, -0.41711063536889154 
3.150000000002223, -0.42113278231193974 
3.160000000002244, -0.42081981113587696 
3.1700000000022652, -0.4181489164339485 
3.1800000000022863, -0.4151946204683189 
3.1900000000023074, -0.4129233807154334 
3.2000000000023285, -0.41145895237756197 
3.2100000000023496, -0.41061295186159874 
3.2200000000023707, -0.41016678168719906 
3.230000000002392, -0.4099554548241402 
3.240000000002413, -0.4098716442085718 
3.250000000002434, -0.40985015300379246 
3.260000000002455, -0.40985283776486997 
3.2700000000024763, -0.4098582711149996 
3.2800000000024974, -0.4098559459967171 
3.2900000000025185, -0.409844031788707 
3.3000000000025396, -0.40982960838541826 
3.3100000000025607, -0.40982993057542866 
3.3200000000025818, -0.40987261273363973 
3.330000000002603, -0.40999242096273764 
3.340000000002624, -0.41022342644222576 
3.350000000002645, -0.4105874124254603 
3.360000000002666, -0.41108166898291454 
3.3700000000026873, -0.4116712698521554 
3.3800000000027084, -0.412291843140223 
3.3900000000027295, -0.4128654858189281 
3.4000000000027506, -0.4133235415363233 
3.4100000000027717, -0.4136232386067806 
3.420000000002793, -0.41374974669889325 
3.430000000002814, -0.41370635042106657 
3.440000000002835, -0.4135009719806632 
3.450000000002856, -0.41313451504119636 
3.460000000002877, -0.4125913737989807 
3.4700000000028983, -0.4118291160868884 
3.4800000000029194, -0.41076264796541484 
3.4900000000029405, -0.4092369518939175 
3.5000000000029616, -0.40698329836108743 
3.5100000000029827, -0.4035661027148576 
3.520000000003004, -0.3983740126772371 
3.530000000003025, -0.39079590202677383 
3.540000000003046, -0.38070632097107715 
3.550000000003067, -0.36896859888293376 
3.5600000000030882, -0.35722579247503816 
3.5700000000031094, -0.34695993828961985 
3.5800000000031305, -0.3388298029200097 
3.5900000000031516, -0.33276668922825536 
3.6000000000031727, -0.328377274398404 
3.6100000000031938, -0.3252324163851827 
3.620000000003215, -0.3229818576606367 
3.630000000003236, -0.321372335209685 
3.640000000003257, -0.32023226889055395 
3.650000000003278, -0.3194515372439025 
3.6600000000032993, -0.31896542208572226 
3.6700000000033204, -0.3187443690285723 
3.6800000000033415, -0.3187891933896152 
3.6900000000033626, -0.31913128974847726 
3.7000000000033837, -0.3198379079959913 
3.710000000003405, -0.3210230772358594 
3.720000000003426, -0.32286471655509696 
3.730000000003447, -0.32562642716560053 
3.740000000003468, -0.32967469315003084 
3.750000000003489, -0.33546149372367623 
3.7600000000035103, -0.3434045303798253 
3.7700000000035314, -0.35357999883220653 
3.7800000000035525, -0.36529038830125393 
3.7900000000035736, -0.3769643473149883 
3.8000000000035947, -0.3868760415719029 
3.810000000003616, -0.3941480568041199 
3.820000000003637, -0.39894750891876896 
3.830000000003658, -0.40193220805149243 
3.840000000003679, -0.40374130645161665 
3.8500000000037002, -0.40482203059128247 
3.8600000000037213, -0.4054467636084996 
3.8700000000037424, -0.40577138252064004 
3.8800000000037635, -0.4058813518420964 
3.8900000000037847, -0.4058198704647544 
3.9000000000038058, -0.4056040526630179 
3.910000000003827, -0.40523535971705227 
3.920000000003848, -0.40470893636727767 
3.930000000003869, -0.40402462836630837 
3.94000000000389, -0.4031992263724872 
3.9500000000039113, -0.40227488837799336 
3.9600000000039324, -0.40131653745982776 
3.9700000000039535, -0.4003962650358911 
3.9800000000039746, -0.39957254726356606 
3.9900000000039957, -0.39887578474525975 
4.000000000004016, -0.39830568615606604 
4.010000000003993, -0.39783833773114113 
4.02000000000397, -0.3974378271960494 
4.030000000003946, -0.3970677108146092 
4.040000000003923, -0.3966989506758937 
4.0500000000039, -0.3963130037845722 
4.0600000000038765, -0.39590109696935594 
4.070000000003853, -0.395462006938323 
4.08000000000383, -0.3950004313179292 
4.090000000003807, -0.39452711958226755 
4.100000000003783, -0.39406113536323406 
4.11000000000376, -0.39363381387903373 
4.120000000003737, -0.3932917748509304 
4.130000000003713, -0.39308917928590753 
4.14000000000369, -0.3930399982946488 
4.150000000003667, -0.3929639443414382 
4.1600000000036434, -0.3921484087768021 
4.17000000000362, -0.3889804874602683 
4.180000000003597, -0.38139235258043913 
4.1900000000035735, -0.368866759427925 
4.20000000000355, -0.35389002060510305 
4.210000000003527, -0.3400587067424269 
4.220000000003504, -0.32937632382520665 
4.23000000000348, -0.32195403106945514 
4.240000000003457, -0.3170657160297615 
4.250000000003434, -0.3139190540136568 
4.26000000000341, -0.3119114025539787 
4.270000000003387, -0.31064034741142893 
4.280000000003364, -0.3098517998158552 
4.2900000000033405, -0.3093901022606032 
4.300000000003317, -0.30916311154201026 
4.310000000003294, -0.309120566760552 
4.320000000003271, -0.30924188183612566 
4.330000000003247, -0.30953034291277437 
4.340000000003224, -0.3100117265757267 
4.350000000003201, -0.3107358855347315 
4.360000000003177, -0.31177964229895755 
4.370000000003154, -0.3132480516598183 
4.380000000003131, -0.315268094592368 
4.390000000003107, -0.31796392522181144 
4.400000000003084, -0.32139989193577206 
4.410000000003061, -0.32549164626822136 
4.4200000000030375, -0.3299345935563708 
4.430000000003014, -0.3342478237175184 
4.440000000002991, -0.33796570744896137 
4.450000000002968, -0.34083567528101233 
4.460000000002944, -0.34285619348680085 
4.470000000002921, -0.34417365363558 
4.480000000002898, -0.3449655993129432 
4.490000000002874, -0.34537816740644856 
4.500000000002851, -0.3455101503285659 
4.510000000002828, -0.34541748823788077 
4.520000000002804, -0.3451220827082045 
4.530000000002781, -0.34461983655502415 
4.540000000002758, -0.3438889308900884 
4.5500000000027345, -0.3429021296310478 
4.560000000002711, -0.34164646196990567 
4.570000000002688, -0.34014757487061176 
4.580000000002665, -0.33848518763750024 
4.590000000002641, -0.3367824297474626 
4.600000000002618, -0.33516864951691044 
4.610000000002595, -0.33373918442938855 
4.620000000002571, -0.33253644399267873 
4.630000000002548, -0.33155538177288657 
4.640000000002525, -0.3307609642764731 
4.6500000000025015, -0.3301060200350693 
4.660000000002478, -0.3295444255665215 
4.670000000002455, -0.3290387156353675 
4.6800000000024315, -0.3285628599292083 
4.690000000002408, -0.32810183614981486 
4.700000000002385, -0.3276499876409603 
4.710000000002362, -0.327209821385277 
4.720000000002338, -0.326792187890739 
4.730000000002315, -0.326417976539258 
4.740000000002292, -0.3261201016762009 
4.750000000002268, -0.3259406937251728 
4.760000000002245, -0.3259071057538676 
4.770000000002222, -0.3259428295999042 
4.7800000000021985, -0.32562834191707873 
4.790000000002175, -0.3237726938970547 
4.800000000002152, -0.3182216943378945 
4.810000000002129, -0.3071124573694338 
4.820000000002105, -0.29142918881454394 
4.830000000002082, -0.2750571871375059 
4.840000000002059, -0.2614223970038608 
4.850000000002035, -0.2515552208951368 
4.860000000002012, -0.24490513792746152 
4.870000000001989, -0.24054269979019502 
4.880000000001965, -0.23769303930337454 
