t, s[1].omega / s[0].omega 
0, -1.2799973792561508 
0.009999999999999995, -1.2795699969384517 
0.019999999999999934, -1.2788189747655894 
0.029999999999999874, -1.2777571888982506 
0.04000000000000012, -1.2764120556199825 
0.050000000000000405, -1.2748327540021023 
0.06000000000000069, -1.2730971973909113 
0.07000000000000098, -1.2713185838754977 
0.08000000000000126, -1.2696522761047233 
0.09000000000000155, -1.2682865958251983 
0.10000000000000184, -1.2673788813311453 
0.11000000000000212, -1.266949995191274 
0.12000000000000241, -1.2668490114733026 
0.130000000000002, -1.26684077384957 
0.1400000000000009, -1.2667070287942308 
0.1499999999999998, -1.266263298039363 
0.1599999999999987, -1.265308739150365 
0.1699999999999976, -1.2635599431991547 
0.1799999999999965, -1.2606014739034626 
0.1899999999999954, -1.2558830032265873 
0.1999999999999943, -1.2487951581357213 
0.2099999999999932, -1.2388300484262538 
0.2199999999999921, -1.225798974137334 
0.229999999999991, -1.210100768641847 
0.2399999999999899, -1.1930416684759013 
0.2499999999999888, -1.1769672684761974 
0.2599999999999877, -1.164583381672971 
0.2699999999999866, -1.1573639078512215 
0.2799999999999855, -1.1545945715088015 
0.2899999999999844, -1.1543252585252808 
0.2999999999999833, -1.154893773743335 
0.3099999999999822, -1.155448970888147 
0.3199999999999811, -1.1556896417793188 
0.32999999999998, -1.1555166160163592 
0.3399999999999789, -1.1548213376631786 
0.3499999999999778, -1.1533493178846066 
0.35999999999997667, -1.150532896396181 
0.36999999999997557, -1.1451883737373723 
0.37999999999997447, -1.1349818306099455 
0.38999999999997337, -1.1157463980817188 
0.39999999999997227, -1.0815098914091728 
0.40999999999997117, -1.0274767524659583 
0.41999999999997006, -0.9568404932678712 
0.42999999999996896, -0.883885841297365 
0.43999999999996786, -0.8246946196197591 
0.44999999999996676, -0.7858397282078876 
0.45999999999996566, -0.7644404188172746 
0.46999999999996456, -0.7544045013245633 
0.47999999999996346, -0.7505468300256721 
0.48999999999996235, -0.7495847105932623 
0.49999999999996125, -0.7497607296826595 
0.5099999999999602, -0.7502438147976848 
0.519999999999959, -0.7506825313916923 
0.529999999999958, -0.7509422337821838 
0.5399999999999568, -0.7509683123541884 
0.5499999999999557, -0.7507190173356786 
0.5599999999999546, -0.7501324099596087 
0.5699999999999535, -0.749111708657374 
0.5799999999999524, -0.7475291242040304 
0.5899999999999513, -0.7452585895737586 
0.5999999999999502, -0.7422416080078403 
0.6099999999999491, -0.738556760498168 
0.619999999999948, -0.7344311324877286 
0.6299999999999469, -0.7301654606133925 
0.6399999999999458, -0.726027772603753 
0.6499999999999447, -0.7221921298804485 
0.6599999999999436, -0.7187405739882294 
0.6699999999999425, -0.7156970430924569 
0.6799999999999414, -0.7130611838009825 
0.6899999999999403, -0.7108287560390555 
0.6999999999999392, -0.7089985774425381 
0.7099999999999381, -0.7075706029924856 
0.719999999999937, -0.7065400483803235 
0.7299999999999359, -0.7058915070456422 
0.7399999999999348, -0.7055958013940639 
0.7499999999999337, -0.7056108973987267 
0.7599999999999326, -0.7058866411706838 
0.7699999999999315, -0.7063717798957757 
0.7799999999999304, -0.7070212427809257 
0.7899999999999293, -0.7078019903615786 
0.7999999999999282, -0.7086961892718645 
0.8099999999999271, -0.7097003138805695 
0.819999999999926, -0.7108183350567134 
0.8299999999999249, -0.7120479745387827 
0.8399999999999238, -0.713362539977145 
0.8499999999999227, -0.7146966721604298 
0.8599999999999216, -0.7159484395756023 
0.8699999999999205, -0.7170047042915343 
0.8799999999999194, -0.7177787179221727 
0.8899999999999183, -0.7182349914364384 
0.8999999999999172, -0.7183869986409758 
0.9099999999999161, -0.7182771828700211 
0.919999999999915, -0.7179584346599842 
0.9299999999999139, -0.717488905887799 
0.9399999999999128, -0.7169436617974478 
0.9499999999999117, -0.7164453708473688 
0.9599999999999106, -0.7162192416816723 
0.9699999999999095, -0.7166790857081018 
0.9799999999999084, -0.7185459549755018 
0.9899999999999073, -0.722981936253382 
0.9999999999999062, -0.7316823477335499 
1.0099999999999052, -0.7468014577175117 
1.019999999999904, -0.7704904225149456 
1.029999999999903, -0.803789611086023 
1.039999999999902, -0.8449912720350538 
1.0499999999999008, -0.8887445273257191 
1.0599999999998997, -0.9278864640134075 
1.0699999999998986, -0.9574352307976574 
1.0799999999998975, -0.9767534628134988 
1.0899999999998964, -0.9881405412671664 
1.0999999999998953, -0.9944236382593982 
1.1099999999998942, -0.9977296351368604 
1.119999999999893, -0.9993540773539191 
1.129999999999892, -1.0000036489274213 
1.1399999999998909, -1.000032909555366 
1.1499999999998898, -0.9995949004963978 
1.1599999999998887, -0.9987286077831236 
1.1699999999998876, -0.9974301765127291 
1.1799999999998865, -0.9957780893841802 
1.1899999999998854, -0.9942304619677487 
1.1999999999998843, -0.9942304455880049 
1.2099999999998832, -0.999004804331123 
1.219999999999882, -1.0136201312388853 
1.229999999999881, -1.0426343250286465 
1.2399999999998799, -1.085472671170838 
1.2499999999998788, -1.1342014138478291 
1.2599999999998777, -1.1781095947613083 
1.2699999999998766, -1.210682103735683 
1.2799999999998755, -1.2315034859856282 
1.2899999999998744, -1.2434823252157554 
1.2999999999998733, -1.249892833589602 
1.3099999999998722, -1.2531212743746374 
1.319999999999871, -1.2545972547594428 
1.32999999999987, -1.255092695960164 
1.3399999999998689, -1.2550058235200146 
1.3499999999998678, -1.2545599359071544 
1.3599999999998666, -1.253955061861071 
1.3699999999998655, -1.253504242888305 
1.3799999999998644, -1.2536925750478527 
1.3899999999998633, -1.2550047231193537 
1.3999999999998622, -1.2575670132728636 
1.4099999999998611, -1.261020562353531 
1.41999999999986, -1.2647987609151494 
1.429999999999859, -1.2684424646510006 
1.4399999999998578, -1.2716905434559749 
1.4499999999998567, -1.2744260870590212 
1.4599999999998556, -1.2766075550409643 
1.4699999999998545, -1.2782285500575445 
1.4799999999998534, -1.2793035091576037 
1.4899999999998523, -1.279866954406108 
1.4999999999998512, -1.2799741955677018 
1.5099999999998501, -1.2796976590729687 
1.519999999999849, -1.2791225405868638 
1.529999999999848, -1.278347730865188 
1.5399999999998468, -1.2774882111409729 
1.5499999999998457, -1.276665456809138 
1.5599999999998446, -1.2759836250607035 
1.5699999999998435, -1.2755120871071521 
1.5799999999998424, -1.2752826852606935 
1.5899999999998413, -1.2752796698476556 
1.5999999999998402, -1.2754237338559922 
1.6099999999998391, -1.275584657941733 
1.619999999999838, -1.275619789575369 
1.629999999999837, -1.2753981685916995 
1.6399999999998358, -1.2747973935717691 
1.6499999999998347, -1.273693817540395 
1.6599999999998336, -1.2719651894911823 
1.6699999999998325, -1.2695064054667236 
1.6799999999998314, -1.266245648943201 
1.6899999999998303, -1.2621518892591845 
1.6999999999998292, -1.2572431216264586 
1.709999999999828, -1.251620698159934 
1.719999999999827, -1.2455520685203971 
1.729999999999826, -1.2395779317566693 
1.7399999999998248, -1.2345009575093462 
1.7499999999998237, -1.23105236438955 
1.7599999999998226, -1.2293809968002072 
1.7699999999998215, -1.2289672463670276 
1.7799999999998204, -1.2290899098490728 
1.7899999999998193, -1.2292355165481903 
1.7999999999998182, -1.2291347259179308 
1.809999999999817, -1.2286147092734647 
1.819999999999816, -1.2274406500255486 
1.8299999999998149, -1.2251516158727536 
1.8399999999998138, -1.2208229446247318 
1.8499999999998127, -1.2126961615467216 
1.8599999999998116, -1.1977609948641443 
1.8699999999998105, -1.1718431079761513 
1.8799999999998094, -1.1314572737571873 
1.8899999999998083, -1.078030568616037 
1.8999999999998072, -1.020854500071072 
1.909999999999806, -0.9726619473492655 
1.919999999999805, -0.9408155435062909 
1.9299999999998039, -0.9243729602675168 
1.9399999999998028, -0.9180833172869862 
1.9499999999998017, -0.91685898627659 
1.9599999999998006, -0.9175069013653359 
1.9699999999997995, -0.9185116395909821 
1.9799999999997984, -0.9193146492456249 
1.9899999999997973, -0.9197688816412825 
1.9999999999997962, -0.9198523092885775 
2.0099999999998173, -0.919539731855456 
2.0199999999998384, -0.9187392574694464 
2.0299999999998595, -0.9172391612525947 
2.0399999999998806, -0.9146402855289887 
2.0499999999999017, -0.9102809713457696 
2.059999999999923, -0.9032244647204866 
2.069999999999944, -0.8924669518469998 
2.079999999999965, -0.8774864357644928 
2.089999999999986, -0.8588701551742043 
2.100000000000007, -0.8383724598434549 
2.1100000000000283, -0.8181989314278825 
2.1200000000000494, -0.8001569955713915 
2.1300000000000705, -0.7852745058947251 
2.1400000000000916, -0.7738585663876603 
2.1500000000001127, -0.7657097599102476 
2.160000000000134, -0.7603278399919561 
2.170000000000155, -0.757078170463151 
2.180000000000176, -0.7553233629284879 
2.190000000000197, -0.7545147479024801 
2.2000000000002182, -0.754235438164598 
2.2100000000002393, -0.7541994244631354 
2.2200000000002604, -0.7542239124899146 
2.2300000000002815, -0.7541940659281531 
2.2400000000003026, -0.7540331709492655 
2.2500000000003237, -0.7536844320165407 
2.260000000000345, -0.7531064491709573 
2.270000000000366, -0.7522808305738222 
2.280000000000387, -0.7512242592680552 
2.290000000000408, -0.7499916030731915 
2.3000000000004293, -0.7486609655124074 
2.3100000000004504, -0.7473071560572375 
2.3200000000004715, -0.7459806906839788 
2.3300000000004926, -0.7447033601007196 
2.3400000000005137, -0.7434781573823537 
2.3500000000005348, -0.7423044131598507 
2.360000000000556, -0.7411902634640387 
2.370000000000577, -0.7401592463525202 
2.380000000000598, -0.7392514413500255 
2.390000000000619, -0.7385205234557958 
2.4000000000006403, -0.7380276184358888 
2.4100000000006614, -0.7378328412705464 
2.4200000000006825, -0.7379863561019379 
2.4300000000007036, -0.7385216525712527 
2.4400000000007247, -0.7394533342753769 
2.450000000000746, -0.740780031189927 
2.460000000000767, -0.7424910042293467 
2.470000000000788, -0.7445734220825143 
2.480000000000809, -0.747016285699494 
2.49000000000083, -0.749806443984134 
2.5000000000008513, -0.752912757443015 
2.5100000000008724, -0.7562585547664022 
2.5200000000008935, -0.7596932512582267 
2.5300000000009146, -0.7629889401157748 
2.5400000000009357, -0.7658880129455761 
2.550000000000957, -0.768190279778436 
2.560000000000978, -0.769819307673457 
2.570000000000999, -0.7708189743143424 
2.58000000000102, -0.7712974623372391 
2.5900000000010412, -0.7713698817690715 
2.6000000000010624, -0.7711284637721172 
2.6100000000010835, -0.7706402826771206 
2.6200000000011046, -0.7699655912092223 
2.6300000000011257, -0.7691984837863147 
2.6400000000011468, -0.768544835654142 
2.650000000001168, -0.7684643915291128 
2.660000000001189, -0.7699045739058775 
2.67000000000121, -0.7746180316459992 
2.680000000001231, -0.7854397238714872 
2.6900000000012523, -0.8061559512247347 
2.7000000000012734, -0.8402860289869654 
2.7100000000012945, -0.8882667135555466 
2.7200000000013156, -0.9444496336237889 
2.7300000000013367, -0.9981544546855252 
2.740000000001358, -1.0401657628271885 
2.750000000001379, -1.0679009708339886 
2.7600000000014, -1.0841097727490525 
2.770000000001421, -1.092891308547805 
2.780000000001442, -1.0974299002632584 
2.7900000000014633, -1.0996575329351497 
2.8000000000014844, -1.1006137443700517 
2.8100000000015055, -1.1008200086403936 
2.8200000000015266, -1.1005196492506517 
2.8300000000015477, -1.099819334945654 
2.840000000001569, -1.0988035769529638 
2.85000000000159, -1.0977056322740932 
2.860000000001611, -1.0972071721796481 
2.870000000001632, -1.0987748660992591 
2.8800000000016532, -1.1045289239177971 
2.8900000000016743, -1.1160803036398024 
2.9000000000016954, -1.1330351025967105 
2.9100000000017165, -1.1529098093520749 
2.9200000000017377, -1.1725923933161142 
2.9300000000017588, -1.1897260698863135 
2.94000000000178, -1.2031492218223048 
2.950000000001801, -1.2127236402363972 
2.960000000001822, -1.2189771541993075 
2.970000000001843, -1.222723560427406 
2.9800000000018643, -1.2247554549098107 
2.9900000000018854, -1.225684109023435 
3.0000000000019065, -1.2259174537881798 
3.0100000000019276, -1.2257135203560474 
3.0200000000019487, -1.2252597400863499 
3.03000000000197, -1.2247555149806175 
3.040000000001991, -1.224467640635178 
3.050000000002012, -1.2246952146652779 
3.060000000002033, -1.2256231809567255 
3.070000000002054, -1.2271987999911487 
3.0800000000020753, -1.2291811573963398 
3.0900000000020964, -1.2312945568694573 
3.1000000000021175, -1.2333277318255016 
3.1100000000021386, -1.2351475173237592 
3.1200000000021597, -1.236677959449828 
3.130000000002181, -1.2378786349899107 
3.140000000002202, -1.2387293031137978 
3.150000000002223, -1.239221425437255 
3.160000000002244, -1.2393565964641502 
3.1700000000022652, -1.239149574476444 
3.1800000000022863, -1.2386318810117363 
3.1900000000023074, -1.2378541314161267 
3.2000000000023285, -1.236888067236391 
3.2100000000023496, -1.2358267175254087 
3.2200000000023707, -1.2347768911485955 
3.230000000002392, -1.2338439884111845 
3.240000000002413, -1.2331186407783647 
3.250000000002434, -1.232663764463486 
3.260000000002455, -1.2324881058168917 
3.2700000000024763, -1.2325214365853703 
3.2800000000024974, -1.2326292320465035 
3.2900000000025185, -1.2326591077569078 
3.3000000000025396, -1.232471892841772 
3.3100000000025607, -1.231939934955328 
3.3200000000025818, -1.230933805932502 
3.330000000002603, -1.2293211975043843 
3.340000000002624, -1.2269842759716547 
3.350000000002645, -1.223843680311687 
3.360000000002666, -1.2198723884213751 
3.3700000000026873, -1.2150980882815146 
3.3800000000027084, -1.2096141191500034 
3.3900000000027295, -1.2036238666211159 
3.4000000000027506, -1.1975194894324794 
3.4100000000027717, -1.1919283576111614 
3.420000000002793, -1.187575951085392 
3.430000000002814, -1.1849045916941123 
3.440000000002835, -1.1837630124187342 
3.450000000002856, -1.1835599370097731 
3.460000000002877, -1.1836891446765179 
3.4700000000028983, -1.183760085062357 
3.4800000000029194, -1.183559637603534 
3.4900000000029405, -1.1829204890896996 
3.5000000000029616, -1.181592088826332 
3.5100000000029827, -1.1791046562544731 
3.520000000003004, -1.1745926239293338 
3.530000000003025, -1.166594004538929 
3.540000000003046, -1.1529937560805674 
3.550000000003067, -1.1315045348756758 
3.5600000000030882, -1.1010412524275441 
3.5700000000031094, -1.0635187510378015 
3.5800000000031305, -1.0243803761724979 
3.5900000000031516, -0.9904495779672736 
3.6000000000031727, -0.9663283471235264 
3.6100000000031938, -0.9524854618398019 
3.620000000003215, -0.946329097522075 
3.630000000003236, -0.9445477339015464 
3.640000000003257, -0.9446561549811628 
3.650000000003278, -0.9452883967610914 
3.6600000000032993, -0.9458570680151958 
3.6700000000033204, -0.9461601540086084 
3.6800000000033415, -0.946130803433161 
3.6900000000033626, -0.94570839492813 
3.7000000000033837, -0.944766705268972 
3.710000000003405, -0.943053202700091 
3.720000000003426, -0.9401206876016982 
3.730000000003447, -0.9352722917145323 
3.740000000003468, -0.9276092857619238 
3.750000000003489, -0.9163231052027921 
3.7600000000035103, -0.9012355589359687 
3.7700000000035314, -0.8832129205898843 
3.7800000000035525, -0.8639814005339119 
3.7900000000035736, -0.845448948411982 
3.8000000000035947, -0.829104735887201 
3.810000000003616, -0.8157971263369246 
3.820000000003637, -0.8057788448170105 
3.830000000003658, -0.7988422108351154 
3.840000000003679, -0.79447443735151 
3.8500000000037002, -0.792021464546826 
3.8600000000037213, -0.7908390760683184 
3.8700000000037424, -0.7903962345362707 
3.8800000000037635, -0.7903126363814751 
3.8900000000037847, -0.790343237803061 
3.9000000000038058, -0.7903380743124121 
3.910000000003827, -0.7902011475245789 
3.920000000003848, -0.7898606276023786 
3.930000000003869, -0.7892548511540826 
3.94000000000389, -0.7883353325182416 
3.9500000000039113, -0.787083646790154 
3.9600000000039324, -0.7855298265107924 
3.9700000000039535, -0.7837535631200342 
3.9800000000039746, -0.7818602793779218 
3.9900000000039957, -0.7799467551058437 
4.000000000004016, -0.7780791625152365 
4.010000000003993, -0.7762924268068969 
4.02000000000397, -0.7746035796764922 
4.030000000003946, -0.7730274066441922 
4.040000000003923, -0.7715869438402134 
4.0500000000039, -0.7703167488330458 
4.0600000000038765, -0.7692599205879348 
4.070000000003853, -0.7684608812667063 
4.08000000000383, -0.7679563504931414 
4.090000000003807, -0.7677672505066777 
4.100000000003783, -0.7678940589171087 
4.11000000000376, -0.7683170765539081 
4.120000000003737, -0.7690015001554033 
4.130000000003713, -0.7699056703839317 
4.14000000000369, -0.7709899177319307 
4.150000000003667, -0.7722232191387796 
4.1600000000036434, -0.7735851058538341 
4.17000000000362, -0.7750607149257192 
4.180000000003597, -0.7766283061988426 
4.1900000000035735, -0.7782423719722223 
4.20000000000355, -0.7798215173985686 
4.210000000003527, -0.7812539820363456 
4.220000000003504, -0.7824262873286129 
4.23000000000348, -0.7832609819374305 
4.240000000003457, -0.7837375152009088 
4.250000000003434, -0.783884730807443 
4.26000000000341, -0.7837581773899898 
4.270000000003387, -0.7834225518954694 
4.280000000003364, -0.7829502096559255 
4.2900000000033405, -0.7824377791425071 
4.300000000003317, -0.7820403217199002 
4.310000000003294, -0.7820206869275534 
4.320000000003271, -0.7828041065376881 
4.330000000003247, -0.7850136440636797 
4.340000000003224, -0.789450093795248 
4.350000000003201, -0.7969861586904408 
4.360000000003177, -0.8083725974003262 
4.370000000003154, -0.8239814109917096 
4.380000000003131, -0.8435207556385074 
4.390000000003107, -0.8657866773979063 
4.400000000003084, -0.8886333676487217 
4.410000000003061, -0.9094493662653915 
4.4200000000030375, -0.9261469250802763 
4.430000000003014, -0.9379951480916855 
4.440000000002991, -0.9455703328440856 
4.450000000002968, -0.9500328110082383 
4.460000000002944, -0.9524767849821625 
4.470000000002921, -0.9536776527244841 
4.480000000002898, -0.9541046610887338 
4.490000000002874, -0.9540107462119881 
4.500000000002851, -0.9535144031904286 
4.510000000002828, -0.9526641291465042 
4.520000000002804, -0.9515124226136382 
4.530000000002781, -0.950254105300558 
4.540000000002758, -0.9495088163784114 
4.5500000000027345, -0.9507897147794443 
4.560000000002711, -0.9569506985399497 
4.570000000002688, -0.9719029033752344 
4.580000000002665, -0.9987401762523197 
4.590000000002641, -1.0367402797534484 
4.600000000002618, -1.0800261311544264 
4.610000000002595, -1.1203233806652573 
4.620000000002571, -1.151708892936494 
4.630000000002548, -1.1728141036139834 
4.640000000002525, -1.1855062824861762 
4.6500000000025015, -1.1925514902640306 
4.660000000002478, -1.1962229149683128 
4.670000000002455, -1.1979853511459448 
4.6800000000024315, -1.198667331022474 
4.690000000002408, -1.1987056448453555 
4.700000000002385, -1.19833288950385 
4.710000000002362, -1.1977186890654017 
4.720000000002338, -1.1971064003041978 
4.730000000002315, -1.1969408809446715 
4.740000000002292, -1.1978581390372707 
4.750000000002268, -1.2003768198014697 
4.760000000002245, -1.204485961294451 
4.770000000002222, -1.2096237249721884 
4.7800000000021985, -1.215064845670444 
4.790000000002175, -1.220253018781575 
4.800000000002152, -1.2248688472005798 
4.810000000002129, -1.2287581357655473 
4.820000000002105, -1.23185724426914 
4.830000000002082, -1.2341578875218042 
4.840000000002059, -1.2357004696681435 
4.850000000002035, -1.236570999219437 
4.860000000002012, -1.2368862358298909 
4.870000000001989, -1.2367723846198304 
4.880000000001965, -1.236353354074272 
4.890000000001942, -1.235756096111726 
4.900000000001919, -1.2351218705824571 
4.9100000000018955, -1.2345985462325137 
4.920000000001872, -1.2343024644872054 
4.930000000001849, -1.2342801455721726 
