t, s[1].omega / s[0].omega 
0, -0.559997740972985 
0.009999999999999995, -0.5597931504429646 
0.019999999999999934, -0.5596211338427034 
0.029999999999999874, -0.5594569582918324 
0.04000000000000012, -0.5592705817907329 
0.050000000000000405, -0.5590370240988037 
0.06000000000000069, -0.5587425834448736 
0.07000000000000098, -0.5583857375002423 
0.08000000000000126, -0.557975151709641 
0.09000000000000155, -0.557528262060254 
0.10000000000000184, -0.5570729881892498 
0.11000000000000212, -0.5566541755126286 
0.12000000000000241, -0.5563463333276746 
0.130000000000002, -0.5562749586784234 
0.1400000000000009, -0.5566494198290826 
0.1499999999999998, -0.5578093073356745 
0.1599999999999987, -0.5602790494926507 
0.1699999999999976, -0.5648027852193417 
0.1799999999999965, -0.5722795033644459 
0.1899999999999954, -0.5834504730697512 
0.1999999999999943, -0.5982441527601302 
0.2099999999999932, -0.6151323126295735 
0.2199999999999921, -0.6314370283459253 
0.229999999999991, -0.6448354471729955 
0.2399999999999899, -0.6545482921632856 
0.2499999999999888, -0.6610776701698722 
0.2599999999999877, -0.6653212234923614 
0.2699999999999866, -0.6680454698611661 
0.2799999999999855, -0.6697768171264495 
0.2899999999999844, -0.670850478950476 
0.2999999999999833, -0.6714741935587349 
0.3099999999999822, -0.6717727213752765 
0.3199999999999811, -0.671814224345035 
0.32999999999998, -0.6716241998180024 
0.3399999999999789, -0.671191115643403 
0.3499999999999778, -0.6704669218547846 
0.35999999999997667, -0.6693667184644571 
0.36999999999997557, -0.6677755170592489 
0.37999999999997447, -0.6655741972644493 
0.38999999999997337, -0.6626927717420107 
0.39999999999997227, -0.6591754068068616 
0.40999999999997117, -0.6552097211391777 
0.41999999999997006, -0.6510809510085203 
0.42999999999996896, -0.6470753652166722 
0.43999999999996786, -0.6434018206158854 
0.44999999999996676, -0.6401702532121952 
0.45999999999996566, -0.6374129848400937 
0.46999999999996456, -0.635117609109027 
0.47999999999996346, -0.6332525667810016 
0.48999999999996235, -0.6317813087412895 
0.49999999999996125, -0.6306678972798507 
0.5099999999999602, -0.6298780661656768 
0.519999999999959, -0.6293787550788155 
0.529999999999958, -0.629137821200666 
0.5399999999999568, -0.6291245887545828 
0.5499999999999557, -0.6293112174079432 
0.5599999999999546, -0.6296745215963999 
0.5699999999999535, -0.6301977567382496 
0.5799999999999524, -0.6308718190691122 
0.5899999999999513, -0.6316950717812475 
0.5999999999999502, -0.6326705763332587 
0.6099999999999491, -0.633799284757327 
0.619999999999948, -0.635068669507197 
0.6299999999999469, -0.6364393029181423 
0.6399999999999458, -0.637836641912729 
0.6499999999999447, -0.6391577927230637 
0.6599999999999436, -0.6402966598914994 
0.6699999999999425, -0.641175816805058 
0.6799999999999414, -0.641764823179358 
0.6899999999999403, -0.6420754339761643 
0.6999999999999392, -0.6421423027826048 
0.7099999999999381, -0.6420036162144086 
0.719999999999937, -0.6416893422972292 
0.7299999999999359, -0.6412172302322653 
0.7399999999999348, -0.6405941782663882 
0.7499999999999337, -0.6398217044643808 
0.7599999999999326, -0.6389064650128038 
0.7699999999999315, -0.6378785147497854 
0.7799999999999304, -0.6368192262956138 
0.7899999999999293, -0.6358920635791996 
0.7999999999999282, -0.6353430959500364 
0.8099999999999271, -0.635396039408185 
0.819999999999926, -0.6359825808278673 
0.8299999999999249, -0.6364966419225149 
0.8399999999999238, -0.6361020334860075 
0.8499999999999227, -0.6346051050270483 
0.8599999999999216, -0.6327313317865263 
0.8699999999999205, -0.6313426142064853 
0.8799999999999194, -0.6307605207632453 
0.8899999999999183, -0.6308278567423855 
0.8999999999999172, -0.6312430905923778 
0.9099999999999161, -0.6317616559982437 
0.919999999999915, -0.6322395265749013 
0.9299999999999139, -0.6326092469600243 
0.9399999999999128, -0.6328460591588408 
0.9499999999999117, -0.6329426693432636 
0.9599999999999106, -0.632893852048254 
0.9699999999999095, -0.6326879547363486 
0.9799999999999084, -0.6323031372922403 
0.9899999999999073, -0.631708240909277 
0.9999999999999062, -0.6308699427513946 
1.0099999999999052, -0.6297674256221076 
1.019999999999904, -0.628411011224519 
1.029999999999903, -0.6268537810064027 
1.039999999999902, -0.625184302078517 
1.0499999999999008, -0.6235011296422053 
1.0599999999998997, -0.6218849245608549 
1.0699999999998986, -0.6203841941773854 
1.0799999999998975, -0.6190176534779075 
1.0899999999998964, -0.617785804371806 
1.0999999999998953, -0.6166833184663727 
1.1099999999998942, -0.6157078121196153 
1.119999999999893, -0.6148644222890128 
1.129999999999892, -0.6141673964065453 
1.1399999999998909, -0.6136400739632449 
1.1499999999998898, -0.6133141447085768 
1.1599999999998887, -0.6132286382420399 
1.1699999999998876, -0.6134289508667261 
1.1799999999998865, -0.6139662173290883 
1.1899999999998854, -0.6148972335303802 
1.1999999999998843, -0.6162846855267314 
1.2099999999998832, -0.6181964369542725 
1.219999999999882, -0.6207009440271862 
1.229999999999881, -0.6238537202016475 
1.2399999999998799, -0.627668639761474 
1.2499999999998788, -0.6320721339614914 
1.2599999999998777, -0.6368548456827692 
1.2699999999998766, -0.6416621644131104 
1.2799999999998755, -0.6460699134921741 
1.2899999999998744, -0.649730459260786 
1.2999999999998733, -0.6524895603369056 
1.3099999999998722, -0.6543893438635762 
1.319999999999871, -0.6555828472054303 
1.32999999999987, -0.6562426575170545 
1.3399999999998689, -0.6565091886235941 
1.3499999999998678, -0.6564748849749968 
1.3599999999998666, -0.656184937052912 
1.3699999999998655, -0.6556399869755276 
1.3799999999998644, -0.6547932170650231 
1.3899999999998633, -0.6535372218388137 
1.3999999999998622, -0.6516759520426654 
1.4099999999998611, -0.6488769767638376 
1.41999999999986, -0.64460766559081 
1.429999999999859, -0.6380967074084483 
1.4399999999998578, -0.628453693978277 
1.4499999999998567, -0.6151479260490791 
1.4599999999998556, -0.5987669557115695 
1.4699999999998545, -0.5812793729216224 
1.4799999999998534, -0.5651316603611434 
1.4899999999998523, -0.5519668904378804 
1.4999999999998512, -0.5421966143888463 
1.5099999999998501, -0.5354079288203609 
1.519999999999849, -0.5309042581017882 
1.529999999999848, -0.528021859574867 
1.5399999999998468, -0.5262384678866202 
1.5499999999998457, -0.5251785006389664 
1.5599999999998446, -0.5245844669334747 
1.5699999999998435, -0.5242847307824716 
1.5799999999998424, -0.5241670386817066 
1.5899999999998413, -0.5241591831001629 
1.5999999999998402, -0.5242158286486982 
1.6099999999998391, -0.5243102096587833 
1.619999999999838, -0.5244295618766522 
1.629999999999837, -0.5245731187308247 
1.6399999999998358, -0.5247510564968579 
1.6499999999998347, -0.5249821851499183 
1.6599999999998336, -0.5252882785660894 
1.6699999999998325, -0.5256844842592904 
1.6799999999998314, -0.5261680244847801 
1.6899999999998303, -0.5267101618444315 
1.6999999999998292, -0.5272573240560406 
1.709999999999828, -0.527743973346533 
1.719999999999827, -0.5281120495630944 
1.729999999999826, -0.5283259042275337 
1.7399999999998248, -0.5283750036522261 
1.7499999999998237, -0.5282661660742949 
1.7599999999998226, -0.5280125726592381 
1.7699999999998215, -0.5276251030036043 
1.7799999999998204, -0.5271074349899907 
1.7899999999998193, -0.5264538566108735 
1.7999999999998182, -0.5256480520700625 
1.809999999999817, -0.5246606133450062 
1.819999999999816, -0.5234405707060892 
1.8299999999998149, -0.5218887588957711 
1.8399999999998138, -0.5197854881955621 
1.8499999999998127, -0.5166340228384536 
1.8599999999998116, -0.5114522849528012 
1.8699999999998105, -0.5028482286623237 
1.8799999999998094, -0.4899923486560226 
1.8899999999998083, -0.4740817104586414 
1.8999999999998072, -0.4581463432807282 
1.909999999999806, -0.44487326341911704 
1.919999999999805, -0.43520146670183674 
1.9299999999998039, -0.4287281078676064 
1.9399999999998028, -0.42460759399727677 
1.9499999999998017, -0.4220633867017061 
1.9599999999998006, -0.42052830100490707 
1.9699999999997995, -0.41962645914319185 
1.9799999999997984, -0.41911976823914887 
1.9899999999997973, -0.4188608212645442 
1.9999999999997962, -0.41875991211327646 
2.0099999999998173, -0.41876402214188213 
2.0199999999998384, -0.4188442824147972 
2.0299999999998595, -0.41898915180541546 
2.0399999999998806, -0.41920133137960586 
2.0499999999999017, -0.41949670837225217 
2.059999999999923, -0.41990338077718753 
2.069999999999944, -0.4204584168670339 
2.079999999999965, -0.4212000303024423 
2.089999999999986, -0.4221538184743491 
2.100000000000007, -0.42331427849096315 
2.1100000000000283, -0.4246279827084014 
2.1200000000000494, -0.4259909869397231 
2.1300000000000705, -0.42727147862516485 
2.1400000000000916, -0.42835130455699916 
2.1500000000001127, -0.42916051894615065 
2.160000000000134, -0.4296837243394018 
2.170000000000155, -0.4299417201229522 
2.180000000000176, -0.42996648257485015 
2.190000000000197, -0.42978198568165144 
2.2000000000002182, -0.4293923088555395 
2.2100000000002393, -0.42877265118510516 
2.2200000000002604, -0.4278579359348469 
2.2300000000002815, -0.4265246681469012 
2.2400000000003026, -0.4245649120823843 
2.2500000000003237, -0.4216625057975758 
2.260000000000345, -0.41741087619441375 
2.270000000000366, -0.4114503465407423 
2.280000000000387, -0.4037641261131678 
2.290000000000408, -0.3949420017412697 
2.3000000000004293, -0.38604066697431 
2.3100000000004504, -0.3780501437429887 
2.3200000000004715, -0.37148451616774036 
2.3300000000004926, -0.3663857859818251 
2.3400000000005137, -0.362542995452929 
2.3500000000005348, -0.35968178201181966 
2.360000000000556, -0.3575577285267657 
2.370000000000577, -0.35598355495495443 
2.380000000000598, -0.3548273506766399 
2.390000000000619, -0.3540026811445881 
2.4000000000006403, -0.35345908606296783 
2.4100000000006614, -0.35317568331709975 
2.4200000000006825, -0.35315851422377514 
2.4300000000007036, -0.35344183388984285 
2.4400000000007247, -0.35409376067843856 
2.450000000000746, -0.35522705410548894 
2.460000000000767, -0.3570157711131348 
2.470000000000788, -0.35971694137169036 
2.480000000000809, -0.36369009100397276 
2.49000000000083, -0.3693900352297445 
2.5000000000008513, -0.3772738849059818 
2.5100000000008724, -0.3875345758274954 
2.5200000000008935, -0.39966730144151813 
2.5300000000009146, -0.4122290252810482 
2.5400000000009357, -0.4233636191554617 
2.550000000000957, -0.43186472386186736 
2.560000000000978, -0.4376472559725794 
2.570000000000999, -0.44131228286544716 
2.58000000000102, -0.4435571545037247 
2.5900000000010412, -0.44490762908411086 
2.6000000000010624, -0.44569685217247673 
2.6100000000010835, -0.44611988248376344 
2.6200000000011046, -0.44628531391235987 
2.6300000000011257, -0.4462486195231401 
2.6400000000011468, -0.4460312608427402 
2.650000000001168, -0.445632067027146 
2.660000000001189, -0.445036480060702 
2.67000000000121, -0.44422816284649624 
2.680000000001231, -0.44320502397428035 
2.6900000000012523, -0.4419960161475876 
2.7000000000012734, -0.44066828460691 
2.7100000000012945, -0.43931511523383 
2.7200000000013156, -0.4380283893869562 
2.7300000000013367, -0.4368723399778644 
2.740000000001358, -0.43587268138323604 
2.750000000001379, -0.43502179164769395 
2.7600000000014, -0.4342920935818677 
2.770000000001421, -0.4336499613656738 
2.780000000001442, -0.43306594535664455 
2.7900000000014633, -0.43252022154196024 
2.8000000000014844, -0.43200436606893194 
2.8100000000015055, -0.43152167739409064 
2.8200000000015266, -0.43108832297965466 
2.8300000000015477, -0.4307371785109767 
2.840000000001569, -0.43052608816639826 
2.85000000000159, -0.43055272666837885 
2.860000000001611, -0.4309790728142371 
2.870000000001632, -0.4320685888838513 
2.8800000000016532, -0.43423480745151427 
2.8900000000016743, -0.4380806101107158 
2.9000000000016954, -0.4443518215151555 
2.9100000000017165, -0.4536303365633131 
2.9200000000017377, -0.4656005158793718 
2.9300000000017588, -0.4783002190313047 
2.94000000000178, -0.48873818350410747 
2.950000000001801, -0.49514303410078 
2.960000000001822, -0.4980928249733888 
2.970000000001843, -0.4992035797848623 
2.9800000000018643, -0.49967210964227665 
2.9900000000018854, -0.5000101096009886 
3.0000000000019065, -0.5003416800608971 
3.0100000000019276, -0.5006582679203617 
3.0200000000019487, -0.5009294882200676 
3.03000000000197, -0.5011333564556353 
3.040000000001991, -0.5012578751606825 
3.050000000002012, -0.5012962008937742 
3.060000000002033, -0.5012423502514628 
3.070000000002054, -0.5010891471384297 
3.0800000000020753, -0.5008289309067553 
3.0900000000020964, -0.5004573331873065 
3.1000000000021175, -0.4999795668894751 
3.1100000000021386, -0.4994165485372643 
3.1200000000021597, -0.498806138493135 
3.130000000002181, -0.4981959811993394 
3.140000000002202, -0.497629829495115 
3.150000000002223, -0.49713430115298973 
3.160000000002244, -0.49671266954098153 
3.1700000000022652, -0.4963476478353613 
3.1800000000022863, -0.4960106327624404 
3.1900000000023074, -0.4956726317917659 
3.2000000000023285, -0.4953123472377617 
3.2100000000023496, -0.494919420283062 
3.2200000000023707, -0.4944940070685687 
3.230000000002392, -0.4940455074336298 
3.240000000002413, -0.4935930455044767 
3.250000000002434, -0.49316950673250687 
3.260000000002455, -0.4928307118009533 
3.2700000000024763, -0.4926718765700954 
3.2800000000024974, -0.4928543550202623 
3.2900000000025185, -0.4936452399708993 
3.3000000000025396, -0.49546623780796073 
3.3100000000025607, -0.49892511984040705 
3.3200000000025818, -0.5047449796440941 
3.330000000002603, -0.5134260003323107 
3.340000000002624, -0.5245516335150275 
3.350000000002645, -0.5362529917670225 
3.360000000002666, -0.5459840746868192 
3.3700000000026873, -0.5523974594621104 
3.3800000000027084, -0.5559967786291078 
3.3900000000027295, -0.5579988468746986 
3.4000000000027506, -0.5592841072431879 
3.4100000000027717, -0.5602442787521267 
3.420000000002793, -0.5610028639613681 
3.430000000002814, -0.5615910281479829 
3.440000000002835, -0.5620205529101276 
3.450000000002856, -0.5623021243251796 
3.460000000002877, -0.5624453351133976 
3.4700000000028983, -0.5624551677990619 
3.4800000000029194, -0.5623292246457786 
3.4900000000029405, -0.5620568062483685 
3.5000000000029616, -0.5616207672388784 
3.5100000000029827, -0.5610035084910313 
3.520000000003004, -0.5601976807637339 
3.530000000003025, -0.5592187380922307 
3.540000000003046, -0.5581117446932823 
3.550000000003067, -0.5569447164558844 
3.5600000000030882, -0.5557893980286324 
3.5700000000031094, -0.5547006122023139 
3.5800000000031305, -0.5537056918262105 
3.5900000000031516, -0.5528067367418854 
3.6000000000031727, -0.5519907166227435 
3.6100000000031938, -0.5512408364857582 
3.620000000003215, -0.5505450015302873 
3.630000000003236, -0.5499004546201869 
3.640000000003257, -0.5493158963133269 
3.650000000003278, -0.5488130762223229 
3.6600000000032993, -0.5484294246547147 
3.6700000000033204, -0.5482226088443785 
3.6800000000033415, -0.5482774528814769 
3.6900000000033626, -0.5487154818613292 
3.7000000000033837, -0.549707159191854 
3.710000000003405, -0.551486105377121 
3.720000000003426, -0.5543620271268972 
3.730000000003447, -0.5587224547688812 
3.740000000003468, -0.5649996514498447 
3.750000000003489, -0.5735596410437231 
3.7600000000035103, -0.5844691503590275 
3.7700000000035314, -0.5971818710381462 
3.7800000000035525, -0.6103994427140311 
3.7900000000035736, -0.6224564103788893 
3.8000000000035947, -0.6321116852983932 
3.810000000003616, -0.639035271476487 
3.820000000003637, -0.6436171568610177 
3.830000000003658, -0.6464923886164178 
3.840000000003679, -0.6482247382586399 
3.8500000000037002, -0.6492130602809014 
3.8600000000037213, -0.649708311759327 
3.8700000000037424, -0.6498546557241939 
3.8800000000037635, -0.6497219776717228 
3.8900000000037847, -0.6493238601673395 
3.9000000000038058, -0.6486226156705258 
3.910000000003827, -0.6475241567982456 
3.920000000003848, -0.6458674215590182 
3.930000000003869, -0.6434204358921101 
3.94000000000389, -0.6399095317612353 
3.9500000000039113, -0.6351166116855758 
3.9600000000039324, -0.6290415925756998 
3.9700000000039535, -0.6220262138659762 
3.9800000000039746, -0.6146907731143034 
3.9900000000039957, -0.6076912426179224 
4.000000000004016, -0.601491994962974 
4.010000000003993, -0.5962986036054712 
4.02000000000397, -0.592119005075185 
4.030000000003946, -0.5888560208519708 
4.040000000003923, -0.5863757624420695 
4.0500000000039, -0.5845439057898008 
4.0600000000038765, -0.5832402058611657 
4.070000000003853, -0.5823621249414181 
4.08000000000383, -0.5818242849608388 
4.090000000003807, -0.5815569080365542 
4.100000000003783, -0.5815043737607324 
4.11000000000376, -0.5816241238464686 
4.120000000003737, -0.5818858803188127 
4.130000000003713, -0.582271105226987 
4.14000000000369, -0.5827725066509903 
4.150000000003667, -0.583392990116421 
4.1600000000036434, -0.5841428066816629 
4.17000000000362, -0.5850332168947642 
4.180000000003597, -0.5860656414813451 
4.1900000000035735, -0.5872178583173187 
4.20000000000355, -0.5884332175003542 
4.210000000003527, -0.5896222793954641 
4.220000000003504, -0.5906826658671858 
4.23000000000348, -0.5915297352007747 
4.240000000003457, -0.5921192756554282 
4.250000000003434, -0.5924490705081491 
4.26000000000341, -0.5925434871754071 
4.270000000003387, -0.5924344319267899 
4.280000000003364, -0.5921477638103245 
4.2900000000033405, -0.5916965451829028 
4.300000000003317, -0.5910786696989888 
4.310000000003294, -0.5902762104225322 
4.320000000003271, -0.5892546242799779 
4.330000000003247, -0.5879597029384955 
4.340000000003224, -0.5863068565208425 
4.350000000003201, -0.5841480176790375 
4.360000000003177, -0.581187300479581 
4.370000000003154, -0.57682957571042 
4.380000000003131, -0.57009212776357 
4.390000000003107, -0.5600138648922841 
4.400000000003084, -0.5467890081505752 
4.410000000003061, -0.5324370213814789 
4.4200000000030375, -0.51961525495608 
4.430000000003014, -0.5098732366237247 
4.440000000002991, -0.5032979827148363 
4.450000000002968, -0.4992108837892122 
4.460000000002944, -0.49681929538646125 
4.470000000002921, -0.4954920485347132 
4.480000000002898, -0.4947985060126757 
4.490000000002874, -0.49446639022800626 
4.500000000002851, -0.49433031005862516 
4.510000000002828, -0.4942918253044454 
4.520000000002804, -0.4942927707699892 
4.530000000002781, -0.4942988455444984 
4.540000000002758, -0.49429042919978083 
4.5500000000027345, -0.4942584684746045 
4.560000000002711, -0.49420379398829956 
4.570000000002688, -0.49413797578247004 
4.580000000002665, -0.49408311374307845 
4.590000000002641, -0.4940679160244222 
4.600000000002618, -0.4941191618352989 
4.610000000002595, -0.4942506867255606 
4.620000000002571, -0.4944544096921154 
4.630000000002548, -0.49469823760515375 
4.640000000002525, -0.4949334374968008 
4.6500000000025015, -0.4951091333698227 
4.660000000002478, -0.4951865388070934 
4.670000000002455, -0.4951455861270584 
4.6800000000024315, -0.4949825008066909 
4.690000000002408, -0.49470251817324024 
4.700000000002385, -0.49431270699368224 
4.710000000002362, -0.49381733868765065 
4.720000000002338, -0.49321585553174946 
4.730000000002315, -0.49250240336877366 
4.740000000002292, -0.49166518781757224 
4.750000000002268, -0.4906816561212364 
4.760000000002245, -0.4894984345368984 
4.770000000002222, -0.4879685600032129 
4.7800000000021985, -0.4856977978023737 
4.790000000002175, -0.481789610452754 
4.800000000002152, -0.4747529187953884 
4.810000000002129, -0.46328376356678935 
4.820000000002105, -0.4479644334388146 
4.830000000002082, -0.43169950945380114 
4.840000000002059, -0.4176042555199827 
4.850000000002035, -0.4070701921079104 
4.860000000002012, -0.39989545395543846 
4.870000000001989, -0.395257405762433 
4.880000000001965, -0.39234276573961346 
4.890000000001942, -0.3905436440474349 
4.900000000001919, -0.3894537313038807 
