t, s[1].omega / s[0].omega 
0, -0.6699977030714439 
0.009999999999999995, -0.6697609043543367 
0.019999999999999934, -0.6695055454308225 
0.029999999999999874, -0.669220681004885 
0.04000000000000012, -0.6688947182278403 
0.050000000000000405, -0.6685210970638924 
0.06000000000000069, -0.6681013787439488 
0.07000000000000098, -0.6676458212377981 
0.08000000000000126, -0.6671732641689097 
0.09000000000000155, -0.6667121640544201 
0.10000000000000184, -0.6663036738450259 
0.11000000000000212, -0.666006695651756 
0.12000000000000241, -0.6659041343153677 
0.130000000000002, -0.6661090055647005 
0.1400000000000009, -0.6667684561421552 
0.1499999999999998, -0.6680630120358846 
0.1599999999999987, -0.6701971920781636 
0.1699999999999976, -0.6733755982536208 
0.1799999999999965, -0.6777562843195024 
0.1899999999999954, -0.6833749342829772 
0.1999999999999943, -0.6900497971551414 
0.2099999999999932, -0.6973172359492982 
0.2199999999999921, -0.7044850611790154 
0.229999999999991, -0.7108451058591069 
0.2399999999999899, -0.7159341628391689 
0.2499999999999888, -0.7196495704688075 
0.2599999999999877, -0.7221631692160473 
0.2699999999999866, -0.7237544234288438 
0.2799999999999855, -0.7246876615465987 
0.2899999999999844, -0.725162609031331 
0.2999999999999833, -0.7253104495471481 
0.3099999999999822, -0.7252053494946289 
0.3199999999999811, -0.7248755964006899 
0.32999999999998, -0.724308621050708 
0.3399999999999789, -0.7234481822805857 
0.3499999999999778, -0.7221829237742461 
0.35999999999997667, -0.7203264614163584 
0.36999999999997557, -0.7175939956607256 
0.37999999999997447, -0.7135953275148557 
0.38999999999997337, -0.7078925274434102 
0.39999999999997227, -0.7001872133235388 
0.40999999999997117, -0.6906244485674569 
0.41999999999997006, -0.6799920802895958 
0.42999999999996896, -0.6695206149822311 
0.43999999999996786, -0.6603499786763927 
0.44999999999996676, -0.653107490474474 
0.45999999999996566, -0.6478635804615177 
0.46999999999996456, -0.6443361753995488 
0.47999999999996346, -0.642116291960514 
0.48999999999996235, -0.6408102072816516 
0.49999999999996125, -0.6400993636533105 
0.5099999999999602, -0.6397506650339906 
0.519999999999959, -0.6396045535759595 
0.529999999999958, -0.6395566210048265 
0.5399999999999568, -0.639540110568005 
0.5499999999999557, -0.6395120450090271 
0.5599999999999546, -0.6394435917883963 
0.5699999999999535, -0.6393145254207444 
0.5799999999999524, -0.6391114199830578 
0.5899999999999513, -0.6388287835682269 
0.5999999999999502, -0.6384713323398559 
0.6099999999999491, -0.6380545330414379 
0.619999999999948, -0.63760098915949 
0.6299999999999469, -0.6371330608972912 
0.6399999999999458, -0.636665379239353 
0.6499999999999447, -0.6362014677584795 
0.6599999999999436, -0.635735947904209 
0.6699999999999425, -0.6352603362429093 
0.6799999999999414, -0.6347689733950888 
0.6899999999999403, -0.6342627693263672 
0.6999999999999392, -0.6337507165371956 
0.7099999999999381, -0.6332506018327143 
0.719999999999937, -0.63279040783219 
0.7299999999999359, -0.6324111686670421 
0.7399999999999348, -0.6321712882606486 
0.7499999999999337, -0.6321518046966539 
0.7599999999999326, -0.6324616960317846 
0.7699999999999315, -0.6332418712600386 
0.7799999999999304, -0.6346656763181413 
0.7899999999999293, -0.6369320670833735 
0.7999999999999282, -0.6402445597725749 
0.8099999999999271, -0.6447654475910792 
0.819999999999926, -0.6505358581826766 
0.8299999999999249, -0.6573710025132548 
0.8399999999999238, -0.6647873147893075 
0.8499999999999227, -0.6720618620499512 
0.8599999999999216, -0.6784673508754433 
0.8699999999999205, -0.683549132581449 
0.8799999999999194, -0.6872314392646647 
0.8899999999999183, -0.6897106066561965 
0.8999999999999172, -0.6912781426562978 
0.9099999999999161, -0.6922003099689147 
0.919999999999915, -0.6926742967129633 
0.9299999999999139, -0.6928279649610183 
0.9399999999999128, -0.6927327595957221 
0.9499999999999117, -0.6924149929473071 
0.9599999999999106, -0.6918605868399624 
0.9699999999999095, -0.6910120238385684 
0.9799999999999084, -0.6897573227259631 
0.9899999999999073, -0.6879127595006823 
0.9999999999999062, -0.6852079676513392 
1.0099999999999052, -0.6812984992349487 
1.019999999999904, -0.675851663988528 
1.029999999999903, -0.6687375600705453 
1.039999999999902, -0.6602498378354301 
1.0499999999999008, -0.6511454035054749 
1.0599999999998997, -0.6423789904483719 
1.0699999999998986, -0.6347209063284919 
1.0799999999998975, -0.6285509793465777 
1.0899999999998964, -0.6238932746319964 
1.0999999999998953, -0.6205606346294604 
1.1099999999998942, -0.6182870327646045 
1.119999999999893, -0.6168077759915392 
1.129999999999892, -0.6158956717186547 
1.1399999999998909, -0.6153711826002021 
1.1499999999998898, -0.6150999825762604 
1.1599999999998887, -0.6149855080851987 
1.1699999999998876, -0.6149603629019783 
1.1799999999998865, -0.6149784757497647 
1.1899999999998854, -0.6150089387381207 
1.1999999999998843, -0.6150319299841155 
1.2099999999998832, -0.6150366846857274 
1.219999999999882, -0.6150208623524882 
1.229999999999881, -0.6149898755238206 
1.2399999999998799, -0.614954372016496 
1.2499999999998788, -0.6149249724906806 
1.2599999999998777, -0.614905588992669 
1.2699999999998766, -0.6148886547338257 
1.2799999999998755, -0.6148554382745705 
1.2899999999998744, -0.6147818677912704 
1.2999999999998733, -0.614646758233983 
1.3099999999998722, -0.6144379645360842 
1.319999999999871, -0.6141540740056628 
1.32999999999987, -0.6138027051472541 
1.3399999999998689, -0.6133982851847736 
1.3499999999998678, -0.6129617699568082 
1.3599999999998666, -0.6125236383913139 
1.3699999999998655, -0.6121308579298882 
1.3799999999998644, -0.6118584650788514 
1.3899999999998633, -0.6118263639012088 
1.3999999999998622, -0.6122210420136163 
1.4099999999998611, -0.6133187705509251 
1.41999999999986, -0.6154992324206525 
1.429999999999859, -0.6192239417949266 
1.4399999999998578, -0.6249353055051834 
1.4499999999998567, -0.632835040836103 
1.4599999999998556, -0.6425859807149512 
1.4699999999998545, -0.653169134719991 
1.4799999999998534, -0.6631892447238262 
1.4899999999998523, -0.6715263627919476 
1.4999999999998512, -0.6777656446185133 
1.5099999999998501, -0.6820966007952648 
1.519999999999849, -0.6849609931997444 
1.529999999999848, -0.6867930397794815 
1.5399999999998468, -0.6879238296183372 
1.5499999999998457, -0.6885778804704266 
1.5599999999998446, -0.688897024214634 
1.5699999999998435, -0.688963748389365 
1.5799999999998424, -0.6888168750904413 
1.5899999999998413, -0.6884594778172175 
1.5999999999998402, -0.6878604854126745 
1.6099999999998391, -0.6869520502515085 
1.619999999999838, -0.6856267632364019 
1.629999999999837, -0.6837434057795297 
1.6399999999998358, -0.6811553091123963 
1.6499999999998347, -0.6777718857353792 
1.6599999999998336, -0.6736373583161542 
1.6699999999998325, -0.6689716799868645 
1.6799999999998314, -0.6641226505170135 
1.6899999999998303, -0.6594508106426156 
1.6999999999998292, -0.6552277376664544 
1.709999999999828, -0.6516003140572642 
1.719999999999827, -0.6486100840003389 
1.729999999999826, -0.6462314116384696 
1.7399999999998248, -0.6444041755882004 
1.7499999999998237, -0.6430544692309468 
1.7599999999998226, -0.642105753074343 
1.7699999999998215, -0.6414845654773462 
1.7799999999998204, -0.641123675304939 
1.7899999999998193, -0.6409640357196166 
1.7999999999998182, -0.6409559458051118 
1.809999999999817, -0.6410594974749124 
1.819999999999816, -0.6412444288538159 
1.8299999999998149, -0.6414896109130727 
1.8399999999998138, -0.6417823081216023 
1.8499999999998127, -0.6421169697621278 
1.8599999999998116, -0.6424927986651934 
1.8699999999998105, -0.6429092531497871 
1.8799999999998094, -0.6433596137589233 
1.8899999999998083, -0.6438247705728282 
1.8999999999998072, -0.6442711203984154 
1.909999999999806, -0.6446556974726259 
1.919999999999805, -0.6449374259111855 
1.9299999999998039, -0.6450884894661739 
1.9399999999998028, -0.6450993979493019 
1.9499999999998017, -0.6449763388521323 
1.9599999999998006, -0.6447346074805602 
1.9699999999997995, -0.6443929148647995 
1.9799999999997984, -0.6439713037171634 
1.9899999999997973, -0.6434934634373803 
1.9999999999997962, -0.6429937893279394 
2.0099999999998173, -0.6425301090355847 
2.0199999999998384, -0.6422035807998421 
2.0299999999998595, -0.642186570931171 
2.0399999999998806, -0.6427551735384659 
2.0499999999999017, -0.6443118126140286 
2.059999999999923, -0.6473618690619889 
2.069999999999944, -0.6523846708236779 
2.079999999999965, -0.6595582123441428 
2.089999999999986, -0.6684381264922343 
2.100000000000007, -0.6779092362400874 
2.1100000000000283, -0.686647176946061 
2.1200000000000494, -0.6937642490104519 
2.1300000000000705, -0.6990501452164356 
2.1400000000000916, -0.7027475805332284 
2.1500000000001127, -0.7052383520622709 
2.160000000000134, -0.7068680659758824 
2.170000000000155, -0.7078965296926446 
2.180000000000176, -0.7085027258543038 
2.190000000000197, -0.7088025663862002 
2.2000000000002182, -0.7088646429442375 
2.2100000000002393, -0.7087205541014139 
2.2200000000002604, -0.7083697472872776 
2.2300000000002815, -0.7077796853151473 
2.2400000000003026, -0.7068830262810607 
2.2500000000003237, -0.7055758536766341 
2.260000000000345, -0.7037255119169349 
2.270000000000366, -0.7012007434992734 
2.280000000000387, -0.6979309676879089 
2.290000000000408, -0.6939751007067434 
2.3000000000004293, -0.6895490407220825 
2.3100000000004504, -0.6849739871866697 
2.3200000000004715, -0.6805736442191235 
2.3300000000004926, -0.6765900437877747 
2.3400000000005137, -0.6731566559145288 
2.3500000000005348, -0.6703158619714089 
2.360000000000556, -0.6680505726883441 
2.370000000000577, -0.6663109752535172 
2.380000000000598, -0.6650316902987266 
2.390000000000619, -0.6641415766283434 
2.4000000000006403, -0.6635695302309186 
2.4100000000006614, -0.6632484413961179 
2.4200000000006825, -0.6631181196588327 
2.4300000000007036, -0.6631272405595676 
2.4400000000007247, -0.6632342461671863 
2.450000000000746, -0.6634073533697644 
2.460000000000767, -0.6636240313116155 
2.470000000000788, -0.6638702309340621 
2.480000000000809, -0.6641392058518161 
2.49000000000083, -0.6644291973744718 
2.5000000000008513, -0.664739193226556 
2.5100000000008724, -0.6650630382649964 
2.5200000000008935, -0.6653841385869662 
2.5300000000009146, -0.6656742909334866 
2.5400000000009357, -0.665898850410484 
2.550000000000957, -0.6660264161803549 
2.560000000000978, -0.666037620488281 
2.570000000000999, -0.6659283124843547 
2.58000000000102, -0.6657069480966956 
2.5900000000010412, -0.6653897499091468 
2.6000000000010624, -0.6649974774479859 
2.6100000000010835, -0.6645559186543806 
2.6200000000011046, -0.6641008454781568 
2.6300000000011257, -0.663687875176045 
2.6400000000011468, -0.6634078186273997 
2.650000000001168, -0.6634076725867447 
2.660000000001189, -0.6639152662987485 
2.67000000000121, -0.6652601914774248 
2.680000000001231, -0.6678733260503982 
2.6900000000012523, -0.672232376014702 
2.7000000000012734, -0.6787119974319472 
2.7100000000012945, -0.6873290654873143 
2.7200000000013156, -0.6974927286341203 
2.7300000000013367, -0.7080176853677002 
2.740000000001358, -0.7175664849107954 
2.750000000001379, -0.7252438929933004 
2.7600000000014, -0.7308429407058118 
2.770000000001421, -0.7346475808225973 
2.780000000001442, -0.7371076518686702 
2.7900000000014633, -0.7386329987276217 
2.8000000000014844, -0.7395267350743351 
2.8100000000015055, -0.7399896382535742 
2.8200000000015266, -0.7401437822180672 
2.8300000000015477, -0.7400535800407654 
2.840000000001569, -0.7397384960336078 
2.85000000000159, -0.7391770658268821 
2.860000000001611, -0.7383029308531655 
2.870000000001632, -0.7369942842536481 
2.8800000000016532, -0.7350614234988411 
2.8900000000016743, -0.7322461578033777 
2.9000000000016954, -0.7282612284207286 
2.9100000000017165, -0.7229011279647347 
2.9200000000017377, -0.7162098225649964 
2.9300000000017588, -0.7085941782164167 
2.94000000000178, -0.7007462311292257 
2.950000000001801, -0.6933925342554124 
2.960000000001822, -0.6870560977129768 
2.970000000001843, -0.6819710854429116 
2.9800000000018643, -0.6781321101249781 
2.9900000000018854, -0.6753903573604352 
3.0000000000019065, -0.6735369189675753 
3.0100000000019276, -0.672356770385297 
3.0200000000019487, -0.6716576927018573 
3.03000000000197, -0.671282351323529 
3.040000000001991, -0.6711100479605483 
3.050000000002012, -0.6710526686306648 
3.060000000002033, -0.67104803982641 
3.070000000002054, -0.6710529918259425 
3.0800000000020753, -0.671037678507806 
3.0900000000020964, -0.6709820403736706 
3.1000000000021175, -0.6708745806653779 
3.1100000000021386, -0.6707126554936046 
3.1200000000021597, -0.670502422589286 
3.130000000002181, -0.6702563607985341 
3.140000000002202, -0.6699878257304666 
3.150000000002223, -0.6697047954076583 
3.160000000002244, -0.6694063870779533 
3.1700000000022652, -0.6690842767973221 
3.1800000000022863, -0.6687279596108524 
3.1900000000023074, -0.66833059816343 
3.2000000000023285, -0.6678927184379552 
3.2100000000023496, -0.6674233573146748 
3.2200000000023707, -0.6669401824045876 
3.230000000002392, -0.6664703868819715 
3.240000000002413, -0.6660533348237774 
3.250000000002434, -0.6657449547612572 
3.260000000002455, -0.6656231534088098 
3.2700000000024763, -0.6657929935973295 
3.2800000000024974, -0.666389926785276 
3.2900000000025185, -0.6675788727775416 
3.3000000000025396, -0.6695461058510218 
3.3100000000025607, -0.6724792749605794 
3.3200000000025818, -0.6765286591416185 
3.330000000002603, -0.6817430725093805 
3.340000000002624, -0.6879853600826519 
3.350000000002645, -0.6948647825353907 
3.360000000002666, -0.7017618282104844 
3.3700000000026873, -0.7079992860306724 
3.3800000000027084, -0.7130874190269998 
3.3900000000027295, -0.7168666153656067 
3.4000000000027506, -0.7194594888920153 
3.4100000000027717, -0.7211199510218766 
3.420000000002793, -0.7221055624907073 
3.430000000002814, -0.7226182724822076 
3.440000000002835, -0.722794124606822 
3.450000000002856, -0.7227122822646295 
3.460000000002877, -0.7224058112035896 
3.4700000000028983, -0.7218672741372752 
3.4800000000029194, -0.7210469137190328 
3.4900000000029405, -0.7198424368887167 
3.5000000000029616, -0.7180801386332479 
3.5100000000029827, -0.7154908746101313 
3.520000000003004, -0.7116971025163762 
3.530000000003025, -0.7062542691285947 
3.540000000003046, -0.6988143766282776 
3.550000000003067, -0.6894255747755935 
3.5600000000030882, -0.6787815675492199 
3.5700000000031094, -0.6680977494710592 
3.5800000000031305, -0.6585913798462109 
3.5900000000031516, -0.6509954428840514 
3.6000000000031727, -0.645452179744638 
3.6100000000031938, -0.6417040956790692 
3.620000000003215, -0.639336410487168 
3.630000000003236, -0.6379382553568383 
3.640000000003257, -0.6371735608747591 
3.650000000003278, -0.6367954395375812 
3.6600000000032993, -0.6366347877265209 
3.6700000000033204, -0.6365811294781293 
3.6800000000033415, -0.6365641177816048 
3.6900000000033626, -0.6365387911593663 
3.7000000000033837, -0.6364752488856255 
3.710000000003405, -0.6363525573116622 
3.720000000003426, -0.6361564940629847 
3.730000000003447, -0.6358804157668122 
3.740000000003468, -0.6355276140689516 
3.750000000003489, -0.635112371098805 
3.7600000000035103, -0.6346570372010012 
3.7700000000035314, -0.6341849820222045 
3.7800000000035525, -0.633712725456477 
3.7900000000035736, -0.633245666622894 
3.8000000000035947, -0.6327794615225077 
3.810000000003616, -0.6323055120661214 
3.820000000003637, -0.6318171322931877 
3.830000000003658, -0.6313137452635444 
3.840000000003679, -0.6308026990344124 
3.8500000000037002, -0.6302999933114073 
3.8600000000037213, -0.6298314888627524 
3.8700000000037424, -0.6294355227521125 
3.8800000000037635, -0.6291670786014406 
3.8900000000037847, -0.6291031060711283 
3.9000000000038058, -0.6293481833773983 
3.910000000003827, -0.6300392696781174 
3.920000000003848, -0.6313475119602849 
3.930000000003869, -0.633473468564795 
3.94000000000389, -0.6366291182571999 
3.9500000000039113, -0.6409960507374761 
3.9600000000039324, -0.6466487138577772 
3.9700000000039535, -0.6534469383496803 
3.9800000000039746, -0.660947205420843 
3.9900000000039957, -0.6684346259454745 
4.000000000004016, -0.6751415828527894 
4.010000000003993, -0.6805438477561111 
4.02000000000397, -0.6845070821863951 
4.030000000003946, -0.6872025859656798 
4.040000000003923, -0.6889245039867125 
4.0500000000039, -0.6899536035935682 
4.0600000000038765, -0.6905026198556482 
4.070000000003853, -0.6907120798435008 
4.08000000000383, -0.6906630870609966 
4.090000000003807, -0.6903898001083474 
4.100000000003783, -0.6898856634500394 
4.11000000000376, -0.6891019298940744 
4.120000000003737, -0.6879382841949403 
4.130000000003713, -0.6862269610118574 
4.14000000000369, -0.6837175621123591 
4.150000000003667, -0.6800842637495292 
4.1600000000036434, -0.6749972351385279 
4.17000000000362, -0.6682936778504358 
4.180000000003597, -0.6601936765508113 
4.1900000000035735, -0.6513711265996991 
4.20000000000355, -0.6427360319937752 
4.210000000003527, -0.6350695249963332 
4.220000000003504, -0.6287959641676235 
4.23000000000348, -0.6239879484786561 
4.240000000003457, -0.6204951287063325 
4.250000000003434, -0.6180739772808601 
4.26000000000341, -0.6164709305402363 
4.270000000003387, -0.6154623238663872 
4.280000000003364, -0.6148676363368318 
4.2900000000033405, -0.6145492882079917 
4.300000000003317, -0.6144067133942231 
4.310000000003294, -0.6143686996349306 
4.320000000003271, -0.6143860115218105 
4.330000000003247, -0.6144253341228841 
4.340000000003224, -0.6144650480710057 
4.350000000003201, -0.6144929204770414 
4.360000000003177, -0.6145052169522657 
4.370000000003154, -0.6145059761121527 
4.380000000003131, -0.6145047115379128 
4.390000000003107, -0.6145114669567475 
4.400000000003084, -0.614530184039842 
4.410000000003061, -0.6145534883869153 
4.4200000000030375, -0.6145622816499536 
4.430000000003014, -0.6145311190756299 
4.440000000002991, -0.614436660483799 
4.450000000002968, -0.6142645290109283 
4.460000000002944, -0.6140115909304367 
4.470000000002921, -0.6136843017515303 
4.480000000002898, -0.6132960219910454 
4.490000000002874, -0.6128660206071918 
4.500000000002851, -0.6124216837272126 
4.510000000002828, -0.6120046834821292 
4.520000000002804, -0.611681792727299 
4.530000000002781, -0.6115611235265316 
4.540000000002758, -0.6118139550640181 
4.5500000000027345, -0.6126996537400912 
4.560000000002711, -0.6145841796588539 
4.570000000002688, -0.6179284172987466 
4.580000000002665, -0.623202384705843 
4.590000000002641, -0.6306769727913217 
4.600000000002618, -0.6401170760646665 
4.610000000002595, -0.6505888031335646 
4.620000000002571, -0.6607016500044044 
4.630000000002548, -0.6692566237632974 
4.640000000002525, -0.6757423166250842 
4.6500000000025015, -0.680289840058 
4.660000000002478, -0.6833238760109237 
4.670000000002455, -0.6852826808752682 
4.6800000000024315, -0.6865073510160044 
4.690000000002408, -0.6872322512123522 
4.700000000002385, -0.6876074688528493 
4.710000000002362, -0.6877223729760057 
4.720000000002338, -0.687622001173374 
4.730000000002315, -0.6873158582114345 
4.740000000002292, -0.6867804951889271 
4.750000000002268, -0.6859577939937785 
4.760000000002245, -0.6847525110084511 
4.770000000002222, -0.6830365564150922 
4.7800000000021985, -0.680672466177742 
4.790000000002175, -0.6775667243932089 
4.800000000002152, -0.6737420633478626 
4.810000000002129, -0.6693820832447648 
4.820000000002105, -0.6647980930199803 
4.830000000002082, -0.6603282975772735 
4.840000000002059, -0.6562395050228167 
4.850000000002035, -0.6526858054892787 
4.860000000002012, -0.6497209553768826 
4.870000000001989, -0.6473322531520136 
4.880000000001965, -0.6454715087586924 
4.890000000001942, -0.6440752325553382 
4.900000000001919, -0.6430755903337821 
4.9100000000018955, -0.6424059449977609 
4.920000000001872, -0.6420039092479823 
