t, s[1].omega / s[0].omega 
0, -0.9601701215396241 
0.009999999999999995, -0.9766850410247985 
0.019999999999999934, -0.9906044658823576 
0.029999999999999874, -1.0007874776494432 
0.04000000000000012, -1.0074922712601475 
0.050000000000000405, -1.0115889278186843 
0.06000000000000069, -1.013948500107929 
0.07000000000000098, -1.0152134132456105 
0.08000000000000126, -1.0157916936181328 
0.09000000000000155, -1.0159179719596403 
0.10000000000000184, -1.0157115231764824 
0.11000000000000212, -1.0152157505088466 
0.12000000000000241, -1.014424582104557 
0.130000000000002, -1.0133107496082765 
0.1400000000000009, -1.011882606502724 
0.1499999999999998, -1.0103110949627776 
0.1599999999999987, -1.0091591572632648 
0.1699999999999976, -1.009636068375398 
0.1799999999999965, -1.0135437576818602 
0.1899999999999954, -1.0224625574262018 
0.1999999999999943, -1.036361330565472 
0.2099999999999932, -1.0529534815207489 
0.2199999999999921, -1.068870089419877 
0.229999999999991, -1.0816370115352534 
0.2399999999999899, -1.0905554750007238 
0.2499999999999888, -1.0961897835495107 
0.2599999999999877, -1.0994963697795763 
0.2699999999999866, -1.1013083595641284 
0.2799999999999855, -1.1021973560951062 
0.2899999999999844, -1.1025089330062356 
0.2999999999999833, -1.102434134606947 
0.3099999999999822, -1.1020694025578277 
0.3199999999999811, -1.1014633506881757 
0.32999999999998, -1.10066736133128 
0.3399999999999789, -1.099814980507206 
0.3499999999999778, -1.0992444263010381 
0.35999999999997667, -1.099613104402028 
0.36999999999997557, -1.101832249713897 
0.37999999999997447, -1.1066559476189641 
0.38999999999997337, -1.1141147149474295 
0.39999999999997227, -1.123326924518603 
0.40999999999997117, -1.1329039581874936 
0.41999999999997006, -1.14156883630226 
0.42999999999996896, -1.1485487554020675 
0.43999999999996786, -1.1536340976875106 
0.44999999999996676, -1.1570193692397615 
0.45999999999996566, -1.1590806656093942 
0.46999999999996456, -1.1602015003864385 
0.47999999999996346, -1.1606868630409442 
0.48999999999996235, -1.1607477728057134 
0.49999999999996125, -1.1605221132231611 
0.5099999999999602, -1.1601093188062819 
0.519999999999959, -1.1596113103308818 
0.529999999999958, -1.1591742000865977 
0.5399999999999568, -1.1590094177856858 
0.5499999999999557, -1.159356083014508 
0.5599999999999546, -1.160377161389378 
0.5699999999999535, -1.1620638387302036 
0.5799999999999524, -1.164239163046941 
0.5899999999999513, -1.1666493260483088 
0.5999999999999502, -1.1690555808044811 
0.6099999999999491, -1.1712766597121838 
0.619999999999948, -1.1731914014403404 
0.6299999999999469, -1.1747278541010622 
0.6399999999999458, -1.1758541939341387 
0.6499999999999447, -1.1765736198296883 
0.6599999999999436, -1.1769187774185907 
0.6699999999999425, -1.1769425602652537 
0.6799999999999414, -1.1767077666181236 
0.6899999999999403, -1.1762812679013748 
0.6999999999999392, -1.1757356936421859 
0.7099999999999381, -1.17515511984966 
0.719999999999937, -1.1746350305595994 
0.7299999999999359, -1.1742675158604627 
0.7399999999999348, -1.1741154449732671 
0.7499999999999337, -1.1741932258631715 
0.7599999999999326, -1.1744667915434206 
0.7699999999999315, -1.1748682878290473 
0.7799999999999304, -1.175314979630741 
0.7899999999999293, -1.175726062674308 
0.7999999999999282, -1.1760336217652996 
0.8099999999999271, -1.1761864102125181 
0.819999999999926, -1.1761488986256015 
0.8299999999999249, -1.175899100353787 
0.8399999999999238, -1.1754268059737591 
0.8499999999999227, -1.1747323960007656 
0.8599999999999216, -1.1738265735370872 
0.8699999999999205, -1.1727317641727828 
0.8799999999999194, -1.171485446648442 
0.8899999999999183, -1.1701444351231898 
0.8999999999999172, -1.1687875877680727 
0.9099999999999161, -1.1675131577324849 
0.919999999999915, -1.1664264401948583 
0.9299999999999139, -1.165614442503711 
0.9399999999999128, -1.1651122786151562 
0.9499999999999117, -1.1648817746425442 
0.9599999999999106, -1.1648240180630747 
0.9699999999999095, -1.1648181850547958 
0.9799999999999084, -1.1647543284917652 
0.9899999999999073, -1.1645408441336165 
0.9999999999999062, -1.1640933237006572 
1.0099999999999052, -1.1633206891172656 
1.019999999999904, -1.1621204158158611 
1.029999999999903, -1.1603884718389743 
1.039999999999902, -1.158042742068376 
1.0499999999999008, -1.1550513118617816 
1.0599999999998997, -1.1514553815923547 
1.0699999999998986, -1.1473843388835223 
1.0799999999998975, -1.1430672934788535 
1.0899999999998964, -1.138836321326959 
1.0999999999998953, -1.1350931609656947 
1.1099999999998942, -1.1322043484282263 
1.119999999999893, -1.1303468089437987 
1.129999999999892, -1.1294199673075436 
1.1399999999998909, -1.129121106316403 
1.1499999999998898, -1.1291160794564175 
1.1599999999998887, -1.1291568246448844 
1.1699999999998876, -1.1290947095513986 
1.1799999999998865, -1.1288365207913764 
1.1899999999998854, -1.1282921209107077 
1.1999999999998843, -1.1273290762575043 
1.2099999999998832, -1.1257320809773936 
1.219999999999882, -1.1231693694490308 
1.229999999999881, -1.1191886137287166 
1.2399999999998799, -1.1132909575998442 
1.2499999999998788, -1.1051320357802226 
1.2599999999998777, -1.0948265409511144 
1.2699999999998766, -1.0831973667337267 
1.2799999999998755, -1.0717272543111696 
1.2899999999998744, -1.0620773768664715 
1.2999999999998733, -1.0553596690402598 
1.3099999999998722, -1.0516689775313446 
1.319999999999871, -1.0502526973885709 
1.32999999999987, -1.0501026490920418 
1.3399999999998689, -1.0504323857420583 
1.3499999999998678, -1.0508019575596685 
1.3599999999998666, -1.0510228874231058 
1.3699999999998655, -1.0510280955960152 
1.3799999999998644, -1.050781491452259 
1.3899999999998633, -1.0502245580391594 
1.3999999999998622, -1.0492375096557454 
1.4099999999998611, -1.0475969321782412 
1.41999999999986, -1.0449233125735125 
1.429999999999859, -1.0406352976365698 
1.4399999999998578, -1.033975480274509 
1.4499999999998567, -1.0242298824121507 
1.4599999999998556, -1.011223877976628 
1.4699999999998545, -0.99588990719009 
1.4799999999998534, -0.9803330953961966 
1.4899999999998523, -0.9670133975208655 
1.4999999999998512, -0.9575449535921765 
1.5099999999998501, -0.952093641233845 
1.519999999999849, -0.949723922699073 
1.529999999999848, -0.9491777592315674 
1.5399999999998468, -0.9494433885306603 
1.5499999999998457, -0.9499169250525723 
1.5599999999998446, -0.9503146398446001 
1.5699999999998435, -0.9505310270083414 
1.5799999999998424, -0.9505325426947578 
1.5899999999998413, -0.9502959591813251 
1.5999999999998402, -0.9497733736150836 
1.6099999999998391, -0.9488663727148332 
1.619999999999838, -0.9473995197472057 
1.629999999999837, -0.9450940442918702 
1.6399999999998358, -0.9415603757854509 
1.6499999999998347, -0.9363524119837707 
1.6599999999998336, -0.929130882327606 
1.6699999999998325, -0.9199146123127478 
1.6799999999998314, -0.9092653922713373 
1.6899999999998303, -0.8982178487037066 
1.6999999999998292, -0.8879500014002799 
1.709999999999828, -0.8793998404459987 
1.719999999999827, -0.8730324949128793 
1.729999999999826, -0.868820229308129 
1.7399999999998248, -0.8663835172762896 
1.7499999999998237, -0.8651958503310953 
1.7599999999998226, -0.8647583093829274 
1.7699999999998215, -0.864692120934975 
1.7799999999998204, -0.8647523216863228 
1.7899999999998193, -0.8647970971209682 
1.7999999999998182, -0.8647462331941729 
1.809999999999817, -0.8645461321699364 
1.819999999999816, -0.864145656027774 
1.8299999999998149, -0.8634820728787365 
1.8399999999998138, -0.8624774088479237 
1.8499999999998127, -0.8610482838291057 
1.8599999999998116, -0.8591313683708759 
1.8699999999998105, -0.8567172841354728 
1.8799999999998094, -0.8538729782077306 
1.8899999999998083, -0.8507337872470956 
1.8999999999998072, -0.8474685933494394 
1.909999999999806, -0.8442417536200464 
1.919999999999805, -0.8411913541774408 
1.9299999999998039, -0.8384249313650027 
1.9399999999998028, -0.8360225919281012 
1.9499999999998017, -0.8340384603617121 
1.9599999999998006, -0.8324976893135355 
1.9699999999997995, -0.8313918671411342 
1.9799999999997984, -0.830678050245168 
1.9899999999997973, -0.8302850972049045 
1.9999999999997962, -0.8301265359868992 
2.0099999999998173, -0.8301151093006721 
2.0199999999998384, -0.8301736030689411 
2.0299999999998595, -0.8302395666273739 
2.0399999999998806, -0.8302652263855382 
2.0499999999999017, -0.8302157271939608 
2.059999999999923, -0.8300682726674393 
2.069999999999944, -0.8298125838565797 
2.079999999999965, -0.8294508052360452 
2.089999999999986, -0.8289945131317404 
2.100000000000007, -0.828458823118965 
2.1100000000000283, -0.8278567245389967 
2.1200000000000494, -0.8271971914460197 
2.1300000000000705, -0.8264877810761281 
2.1400000000000916, -0.8257394211804229 
2.1500000000001127, -0.8249706026873052 
2.160000000000134, -0.8242097154647526 
2.170000000000155, -0.823495530949303 
2.180000000000176, -0.822875780411399 
2.190000000000197, -0.8224032568422374 
2.2000000000002182, -0.8221291829474315 
2.2100000000002393, -0.8220949954182585 
2.2200000000002604, -0.8223251376153641 
2.2300000000002815, -0.8228235478323599 
2.2400000000003026, -0.823574958067184 
2.2500000000003237, -0.8245499146843104 
2.260000000000345, -0.8257109179046495 
2.270000000000366, -0.8270168166934291 
2.280000000000387, -0.8284234292926203 
2.290000000000408, -0.8298800796411315 
2.3000000000004293, -0.8313243659928444 
2.3100000000004504, -0.8326803802560943 
2.3200000000004715, -0.8338661407805563 
2.3300000000004926, -0.8348108303856776 
2.3400000000005137, -0.8354733300902444 
2.3500000000005348, -0.8358499925233108 
2.360000000000556, -0.8359676000328212 
2.370000000000577, -0.8358687144543874 
2.380000000000598, -0.8355997254383066 
2.390000000000619, -0.8352073132920766 
2.4000000000006403, -0.834744137226874 
2.4100000000006614, -0.8342825831185909 
2.4200000000006825, -0.8339344362022041 
2.4300000000007036, -0.8338715229718756 
2.4400000000007247, -0.8343371282494599 
2.450000000000746, -0.8356339675497431 
2.460000000000767, -0.8380782860163654 
2.470000000000788, -0.8419236110480469 
2.480000000000809, -0.8472731975928978 
2.49000000000083, -0.8540055730997311 
2.5000000000008513, -0.8617353315413908 
2.5100000000008724, -0.8698355509701111 
2.5200000000008935, -0.8775531102239666 
2.5300000000009146, -0.8842129778511509 
2.5400000000009357, -0.889420910679676 
2.550000000000957, -0.8931339707965448 
2.560000000000978, -0.895566217835283 
2.570000000000999, -0.8970275127724225 
2.58000000000102, -0.8978032663517149 
2.5900000000010412, -0.8981054076702083 
2.6000000000010624, -0.8980704475573283 
2.6100000000010835, -0.8977754111496867 
2.6200000000011046, -0.8972568914475196 
2.6300000000011257, -0.8965317208757149 
2.6400000000011468, -0.8956268480855153 
2.650000000001168, -0.8946331302410199 
2.660000000001189, -0.8938003004701205 
2.67000000000121, -0.8936738136703621 
2.680000000001231, -0.8952133799312791 
2.6900000000012523, -0.8997273611724905 
2.7000000000012734, -0.9084107484935556 
2.7100000000012945, -0.9215036407105591 
2.7200000000013156, -0.9376291941465527 
2.7300000000013367, -0.954129324212355 
2.740000000001358, -0.9684116918948492 
2.750000000001379, -0.9791484198881946 
2.7600000000014, -0.9863860337114486 
2.770000000001421, -0.9908937353094412 
2.780000000001442, -0.9935360971570546 
2.7900000000014633, -0.9949867926484617 
2.8000000000014844, -0.995688500458962 
2.8100000000015055, -0.9959031213671456 
2.8200000000015266, -0.9957696738994729 
2.8300000000015477, -0.9953460185408547 
2.840000000001569, -0.9946359136142979 
2.85000000000159, -0.9936129073966977 
2.860000000001611, -0.9922620062795898 
2.870000000001632, -0.9906741341979117 
2.8800000000016532, -0.9892333125025768 
2.8900000000016743, -0.9888775993854335 
2.9000000000016954, -0.9912177427683634 
2.9100000000017165, -0.9980681457361701 
2.9200000000017377, -1.0102036181195584 
2.9300000000017588, -1.0262132660371803 
2.94000000000178, -1.0429073412899557 
2.950000000001801, -1.057224889541902 
2.960000000001822, -1.067742767435281 
2.970000000001843, -1.0746349228284204 
2.9800000000018643, -1.0787991190489987 
2.9900000000018854, -1.0811574423569499 
3.0000000000019065, -1.082389925749091 
3.0100000000019276, -1.0829251060362384 
3.0200000000019487, -1.0830075274480806 
3.03000000000197, -1.0827632855850846 
3.040000000001991, -1.082248084640225 
3.050000000002012, -1.0814881170226254 
3.060000000002033, -1.0805364583852803 
3.070000000002054, -1.0795749724809922 
3.0800000000020753, -1.0790728475509932 
3.0900000000020964, -1.079917266028226 
3.1000000000021175, -1.0832756750865224 
3.1100000000021386, -1.0899995021720683 
3.1200000000021597, -1.0998898725036013 
3.130000000002181, -1.1115545933948379 
3.140000000002202, -1.123080037625975 
3.150000000002223, -1.1329206695214693 
3.160000000002244, -1.140362654587675 
3.1700000000022652, -1.145449666728613 
3.1800000000022863, -1.1486381701119448 
3.1900000000023074, -1.150471969753286 
3.2000000000023285, -1.1514044442015172 
3.2100000000023496, -1.1517518229990147 
3.2200000000023707, -1.1517132883231038 
3.230000000002392, -1.1514115540236265 
3.240000000002413, -1.1509374286105887 
3.250000000002434, -1.1503990258290373 
3.260000000002455, -1.1499737119847007 
3.2700000000024763, -1.1499350158009163 
3.2800000000024974, -1.1505995713448247 
3.2900000000025185, -1.1521802382806503 
3.3000000000025396, -1.1546501637361684 
3.3100000000025607, -1.1577490615161046 
3.3200000000025818, -1.1611143858733635 
3.330000000002603, -1.1644114576586613 
3.340000000002624, -1.1673923693004025 
3.350000000002645, -1.1699003515271333 
3.360000000002666, -1.171856997713266 
3.3700000000026873, -1.173249978645391 
3.3800000000027084, -1.174120054755374 
3.3900000000027295, -1.1745427211434414 
3.4000000000027506, -1.1746070844221532 
3.4100000000027717, -1.174400306776462 
3.420000000002793, -1.1740037954827538 
3.430000000002814, -1.173500632332452 
3.440000000002835, -1.172986632598302 
3.450000000002856, -1.1725715628039861 
3.460000000002877, -1.1723591550705392 
3.4700000000028983, -1.1724126796993761 
3.4800000000029194, -1.1727322459573384 
3.4900000000029405, -1.1732611933388526 
3.5000000000029616, -1.1739115112365397 
3.5100000000029827, -1.1745892661525228 
3.520000000003004, -1.1752113371957655 
3.530000000003025, -1.1757130812073926 
3.540000000003046, -1.176049102929155 
3.550000000003067, -1.1761903919953924 
3.5600000000030882, -1.1761208269478307 
3.5700000000031094, -1.1758346939375648 
3.5800000000031305, -1.1753357817935424 
3.5900000000031516, -1.1746380592399257 
3.6000000000031727, -1.173767659803017 
3.6100000000031938, -1.1727657494802692 
3.620000000003215, -1.171691153382218 
3.630000000003236, -1.17062011900042 
3.640000000003257, -1.1696400121884705 
3.650000000003278, -1.1688354073864684 
3.6600000000032993, -1.1682674132639541 
3.6700000000033204, -1.167951142757513 
3.6800000000033415, -1.1678442308927517 
3.6900000000033626, -1.1678590889030471 
3.7000000000033837, -1.167892270833203 
3.710000000003405, -1.1678484654209977 
3.720000000003426, -1.1676462575417708 
3.730000000003447, -1.1672114542491656 
3.740000000003468, -1.16647042543312 
3.750000000003489, -1.165351710740919 
3.7600000000035103, -1.163796914491512 
3.7700000000035314, -1.1617755961875327 
3.7800000000035525, -1.1592971443455438 
3.7900000000035736, -1.1564175937130494 
3.8000000000035947, -1.1532458351610828 
3.810000000003616, -1.1499529564513347 
3.820000000003637, -1.146777334229415 
3.830000000003658, -1.14400215945362 
3.840000000003679, -1.1418807789767642 
3.8500000000037002, -1.1405275714034124 
3.8600000000037213, -1.1398572548507684 
3.8700000000037424, -1.1396396557389918 
3.8800000000037635, -1.1396211460863586 
3.8900000000037847, -1.1396078955446194 
3.9000000000038058, -1.1394740324470967 
3.910000000003827, -1.1391267908645277 
3.920000000003848, -1.1384636774177577 
3.930000000003869, -1.1373344707792017 
3.94000000000389, -1.135511204921387 
3.9500000000039113, -1.1326767013983405 
3.9600000000039324, -1.1284575400964505 
3.9700000000039535, -1.1225316768813367 
3.9800000000039746, -1.1148100366419327 
3.9900000000039957, -1.105627793855886 
4.000000000004016, -1.0958302265711903 
4.010000000003993, -1.0866387738410226 
4.02000000000397, -1.079255822688014 
4.030000000003946, -1.0743564113093433 
4.040000000003923, -1.0718229462363547 
4.0500000000039, -1.0709580217793992 
4.0600000000038765, -1.0709571140719094 
4.070000000003853, -1.0712359374976164 
4.08000000000383, -1.0714823531882784 
4.090000000003807, -1.0715631817743536 
4.100000000003783, -1.0714205737927922 
4.11000000000376, -1.0710014153973015 
4.120000000003737, -1.0702105859507731 
4.130000000003713, -1.0688688110288962 
4.14000000000369, -1.0666629459994448 
4.150000000003667, -1.063094302339369 
4.1600000000036434, -1.0574686653536656 
4.17000000000362, -1.049029870578663 
4.180000000003597, -1.0373512694527176 
4.1900000000035735, -1.0229159898321933 
4.20000000000355, -1.007436357367149 
4.210000000003527, -0.9933692846497669 
4.220000000003504, -0.9827490858804595 
4.23000000000348, -0.9762518133567927 
4.240000000003457, -0.9732129278600153 
4.250000000003434, -0.972364589120507 
4.26000000000341, -0.972557722671271 
4.270000000003387, -0.9730605459828526 
4.280000000003364, -0.9735157692139202 
4.2900000000033405, -0.9737883683448836 
4.300000000003317, -0.9738386685599203 
4.310000000003294, -0.9736469455417419 
4.320000000003271, -0.9731720144418464 
4.330000000003247, -0.9723224949370148 
4.340000000003224, -0.9709269219173391 
4.350000000003201, -0.9686989821979826 
4.360000000003177, -0.9652112913854175 
4.370000000003154, -0.9599212354155228 
4.380000000003131, -0.9523199680310418 
4.390000000003107, -0.9422360849952364 
4.400000000003084, -0.9301607132271521 
4.410000000003061, -0.9173034143045495 
4.4200000000030375, -0.9052208045900064 
4.430000000003014, -0.8952290661884887 
4.440000000002991, -0.8879812707180076 
4.450000000002968, -0.8834082822089829 
4.460000000002944, -0.8809538017245853 
4.470000000002921, -0.8799024323258331 
4.480000000002898, -0.8796264504168709 
4.490000000002874, -0.8796874593776323 
4.500000000002851, -0.8798266147553881 
4.510000000002828, -0.8799081969387069 
4.520000000002804, -0.8798619451442958 
4.530000000002781, -0.8796406339738919 
4.540000000002758, -0.8791925812294623 
4.5500000000027345, -0.8784447588115869 
4.560000000002711, -0.8772953466794025 
4.570000000002688, -0.8756203672637184 
4.580000000002665, -0.8733021448396892 
4.590000000002641, -0.8702793622702595 
4.600000000002618, -0.8665970615169062 
4.610000000002595, -0.8624205530659973 
4.620000000002571, -0.857997907012715 
4.630000000002548, -0.8535966593692452 
4.640000000002525, -0.8494533516958722 
4.6500000000025015, -0.8457510074794223 
4.660000000002478, -0.8426148753223386 
4.670000000002455, -0.8401122787781133 
4.6800000000024315, -0.8382513286058406 
4.690000000002408, -0.8369823843103072 
4.700000000002385, -0.8362083736994105 
4.710000000002362, -0.8358049755877056 
4.720000000002338, -0.8356444325980998 
4.730000000002315, -0.8356141242111752 
4.740000000002292, -0.8356248474440745 
4.750000000002268, -0.8356098507898345 
4.760000000002245, -0.8355193515256613 
4.770000000002222, -0.8353154995023871 
4.7800000000021985, -0.8349709177620065 
4.790000000002175, -0.8344711468198331 
4.800000000002152, -0.8338181732989266 
4.810000000002129, -0.8330305370184204 
4.820000000002105, -0.83213766524009 
4.830000000002082, -0.83117108711656 
4.840000000002059, -0.830158006351944 
4.850000000002035, -0.8291204737569823 
4.860000000002012, -0.8280790524546477 
4.870000000001989, -0.8270576472998343 
4.880000000001965, -0.8260867978520835 
4.890000000001942, -0.8252042454513759 
4.900000000001919, -0.8244525062797768 
4.9100000000018955, -0.8238736907697705 
4.920000000001872, -0.8235025862561794 
4.930000000001849, -0.8233599812758566 
