t, s[1].omega / s[0].omega 
0, -1.019998026897519 
0.009999999999999995, -1.0197162953118022 
0.019999999999999934, -1.0194522716516925 
0.029999999999999874, -1.0193547359505912 
0.04000000000000012, -1.0191172280610798 
0.050000000000000405, -1.018765460996354 
0.06000000000000069, -1.01859330263242 
0.07000000000000098, -1.018416273684747 
0.08000000000000126, -1.0180593528678787 
0.09000000000000155, -1.0177398685409704 
0.10000000000000184, -1.017603224994408 
0.11000000000000212, -1.017289200966328 
0.12000000000000241, -1.0168646795637863 
0.130000000000002, -1.0166529579549688 
0.1400000000000009, -1.0164264710751412 
0.1499999999999998, -1.0159826772459803 
0.1599999999999987, -1.015599410278662 
0.1699999999999976, -1.0154369871644482 
0.1799999999999965, -1.0150478803401726 
0.1899999999999954, -1.0145337419152933 
0.1999999999999943, -1.014286472197725 
0.2099999999999932, -1.0140219735498905 
0.2199999999999921, -1.0134803847589695 
0.229999999999991, -1.0130240814857565 
0.2399999999999899, -1.0128454995648513 
0.2499999999999888, -1.0123859008690226 
0.2599999999999877, -1.0117682149995746 
0.2699999999999866, -1.0114860725445598 
0.2799999999999855, -1.0111961447307605 
0.2899999999999844, -1.010553395591478 
0.2999999999999833, -1.0100161590798056 
0.3099999999999822, -1.0098283286823588 
0.3199999999999811, -1.0093114734683477 
0.32999999999998, -1.0085861945937606 
0.3399999999999789, -1.00826698259158 
0.3499999999999778, -1.0079666396482319 
0.35999999999997667, -1.0072353912701526 
0.36999999999997557, -1.0066148569273252 
0.37999999999997447, -1.0064218844279835 
0.38999999999997337, -1.005872893689519 
0.39999999999997227, -1.0050544136314987 
0.40999999999997117, -1.0046940930502086 
0.41999999999997006, -1.0043996537297668 
0.42999999999996896, -1.0036141491046042 
0.43999999999996786, -1.0029191900147627 
0.44999999999996676, -1.0027216901393994 
0.45999999999996566, -1.0021753035722973 
0.46999999999996456, -1.0013015629456816 
0.47999999999996346, -1.0008968082926946 
0.48999999999996235, -1.0006227184728547 
0.49999999999996125, -0.999835041151555 
0.5099999999999602, -0.99909053244068 
0.519999999999959, -0.9988851933356311 
0.529999999999958, -0.9983772939485563 
0.5399999999999568, -0.9975047918472831 
0.5499999999999557, -0.9970573838604623 
0.5599999999999546, -0.9968127035425347 
0.5699999999999535, -0.9960782570598528 
0.5799999999999524, -0.9953243355077381 
0.5899999999999513, -0.9951049664843359 
0.5999999999999502, -0.9946623884485551 
0.6099999999999491, -0.9938499774897205 
0.619999999999948, -0.9933712468941955 
0.6299999999999469, -0.9931578100437265 
0.6399999999999458, -0.9925181767242801 
0.6499999999999447, -0.9918009580053064 
0.6599999999999436, -0.991561923643936 
0.6699999999999425, -0.9911970262757941 
0.6799999999999414, -0.9904877071153234 
0.6899999999999403, -0.9899992703042348 
0.6999999999999392, -0.9898124367110652 
0.7099999999999381, -0.9892868459179618 
0.719999999999937, -0.988644261634398 
0.7299999999999359, -0.9883852527717361 
0.7399999999999348, -0.9880974751595093 
0.7499999999999337, -0.9875102018641198 
0.7599999999999326, -0.9870386680172776 
0.7699999999999315, -0.9868705252892735 
0.7799999999999304, -0.9864590867105189 
0.7899999999999293, -0.9859111684916532 
0.7999999999999282, -0.9856398400873424 
0.8099999999999271, -0.9854212056204942 
0.819999999999926, -0.9849554251489081 
0.8299999999999249, -0.9845235090468363 
0.8399999999999238, -0.9843677008313881 
0.8499999999999227, -0.9840607294817144 
0.8599999999999216, -0.9836103937799349 
0.8699999999999205, -0.9833400990442206 
0.8799999999999194, -0.9831809856098322 
0.8899999999999183, -0.9828272056036921 
0.8999999999999172, -0.9824471020803873 
0.9099999999999161, -0.9823030183081748 
0.919999999999915, -0.9820899414339224 
0.9299999999999139, -0.9817315015495601 
0.9399999999999128, -0.9814752592969848 
0.9499999999999117, -0.9813692875713338 
0.9599999999999106, -0.9811187511725644 
0.9699999999999095, -0.9807922540983585 
0.9799999999999084, -0.9806653851667115 
0.9899999999999073, -0.9805409347198177 
0.9999999999999062, -0.9802696297157564 
1.0099999999999052, -0.9800341526755341 
1.019999999999904, -0.9799822984972764 
1.029999999999903, -0.9798338023680069 
1.039999999999902, -0.9795587240477402 
1.0499999999999008, -0.9794560148183229 
1.0599999999998997, -0.9794249315447443 
1.0699999999998986, -0.979243917536163 
1.0799999999998975, -0.9790274573664843 
1.0899999999998964, -0.9790399346426474 
1.0999999999998953, -0.9790055368833789 
1.1099999999998942, -0.9787842508295422 
1.119999999999893, -0.9787065514354616 
1.129999999999892, -0.9787888332253697 
1.1399999999998909, -0.9787148207840225 
1.1499999999998898, -0.9785109702341209 
1.1599999999998887, -0.9786035326717912 
1.1699999999998876, -0.9787161063843139 
1.1799999999998865, -0.9785623832014175 
1.1899999999998854, -0.9784980197312727 
1.1999999999998843, -0.9787344923296211 
1.2099999999998832, -0.9788056398346404 
1.219999999999882, -0.9786124813119182 
1.229999999999881, -0.9787943431451005 
1.2399999999998799, -0.9791194027165037 
1.2499999999998788, -0.9790632956210304 
1.2599999999998777, -0.9789876528795596 
1.2699999999998766, -0.9794395541139316 
1.2799999999998755, -0.9797287322874755 
1.2899999999998744, -0.9795583853066515 
1.2999999999998733, -0.9798137961020317 
1.3099999999998722, -0.9804632985476126 
1.319999999999871, -0.980557396630516 
1.32999999999987, -0.9804437189227091 
1.3399999999998689, -0.9811711606581633 
1.3499999999998678, -0.9818024021788709 
1.3599999999998666, -0.9816830875487689 
1.3699999999998655, -0.9819579400492545 
1.3799999999998644, -0.9830860322002483 
1.3899999999998633, -0.9834127483991632 
1.3999999999998622, -0.983253058210191 
1.4099999999998611, -0.9842603300299874 
1.41999999999986, -0.9854062580197305 
1.429999999999859, -0.9853754571932783 
1.4399999999998578, -0.9855893898317343 
1.4499999999998567, -0.9873179251662381 
1.4599999999998556, -0.9879801913846396 
1.4699999999998545, -0.9877949498417715 
1.4799999999998534, -0.9889740019009189 
1.4899999999998523, -0.9907715900498988 
1.4999999999998512, -0.9908638061799935 
1.5099999999998501, -0.9909597667231828 
1.519999999999849, -0.9932092505585457 
1.529999999999848, -0.994265468011516 
1.5399999999998468, -0.9940848888288898 
1.5499999999998457, -0.995239587603386 
1.5599999999998446, -0.9975885393131245 
1.5699999999998435, -0.9978133738789774 
1.5799999999998424, -0.9977982117856616 
1.5899999999998413, -1.0001981078199809 
1.5999999999998402, -1.0015460088725774 
1.6099999999998391, -1.0013870179474043 
1.619999999999838, -1.002352282256233 
1.629999999999837, -1.0048129328593953 
1.6399999999998358, -1.0051300481554857 
1.6499999999998347, -1.0050488920345184 
1.6599999999998336, -1.0071482306447657 
1.6699999999998325, -1.0085123762849675 
1.6799999999998314, -1.008373611684482 
1.6899999999998303, -1.0090916592262393 
1.6999999999998292, -1.0111637197437677 
1.709999999999828, -1.0114908468853216 
1.719999999999827, -1.0113811221512137 
1.729999999999826, -1.012940170362047 
1.7399999999998248, -1.0140586385009225 
1.7499999999998237, -1.0139279279756126 
1.7599999999998226, -1.0144163730858409 
1.7699999999998215, -1.0158820727005908 
1.7799999999998204, -1.0161431528098617 
1.7899999999998193, -1.016020480095043 
1.7999999999998182, -1.0170485300525736 
1.809999999999817, -1.017825650652869 
1.819999999999816, -1.0176891885874835 
1.8299999999998149, -1.0179901243475213 
1.8399999999998138, -1.0189081464904979 
1.8499999999998127, -1.0190674256597019 
1.8599999999998116, -1.0189325609745137 
1.8699999999998105, -1.0195523212031414 
1.8799999999998094, -1.020024295010059 
1.8899999999998083, -1.0198714553684567 
1.8999999999998072, -1.0200272825200318 
1.909999999999806, -1.0205502819099705 
1.919999999999805, -1.0206061494144567 
1.9299999999998039, -1.020453765258031 
1.9399999999998028, -1.0207929560077267 
1.9499999999998017, -1.0210355969979235 
1.9599999999998006, -1.020858956508608 
1.9699999999997995, -1.0209045415592755 
1.9799999999997984, -1.0211674226490544 
1.9899999999997973, -1.0211320550440595 
1.9999999999997962, -1.0209554339387235 
2.0099999999998173, -1.0211098678590345 
2.0199999999998384, -1.0211891597667218 
2.0299999999998595, -1.0209824958089302 
2.0399999999998806, -1.0209437447408474 
2.0499999999999017, -1.0210385658542642 
2.059999999999923, -1.020924355103233 
2.069999999999944, -1.0207166792009916 
2.079999999999965, -1.0207501088025264 
2.089999999999986, -1.0207111141200398 
2.100000000000007, -1.0204674795746198 
2.1100000000000283, -1.0203623756286486 
2.1200000000000494, -1.0203463427398956 
2.1300000000000705, -1.0201606348248196 
2.1400000000000916, -1.0199147043886152 
2.1500000000001127, -1.0198678878939247 
2.160000000000134, -1.0197379456680384 
2.170000000000155, -1.0194484169662055 
2.180000000000176, -1.0192886645694101 
2.190000000000197, -1.0191965359425492 
2.2000000000002182, -1.0189407414314247 
2.2100000000002393, -1.0186483371317312 
2.2200000000002604, -1.0185473238244507 
2.2300000000002815, -1.01834179372787 
2.2400000000003026, -1.0179949277707354 
2.2500000000003237, -1.0177874121891983 
2.260000000000345, -1.0176409285165722 
2.270000000000366, -1.0173115547567948 
2.280000000000387, -1.0169630511000771 
2.290000000000408, -1.0168248151054735 
2.3000000000004293, -1.016552324895091 
2.3100000000004504, -1.0161345287242882 
2.3200000000004715, -1.0158823913346988 
2.3300000000004926, -1.0156964950122085 
2.3400000000005137, -1.0152875172271694 
2.3500000000005348, -1.0148721567647003 
2.360000000000556, -1.014707964961846 
2.370000000000577, -1.0143750860155172 
2.380000000000598, -1.013872483173375 
2.390000000000619, -1.013575889255602 
2.4000000000006403, -1.0133626556301347 
2.4100000000006614, -1.0128695294653978 
2.4200000000006825, -1.0123768392931973 
2.4300000000007036, -1.0121940069377209 
2.4400000000007247, -1.011809600830106 
2.450000000000746, -1.0112121453790102 
2.460000000000767, -1.010868995068683 
2.470000000000788, -1.0106398266042145 
2.480000000000809, -1.0100652071914815 
2.49000000000083, -1.0094880921504563 
2.5000000000008513, -1.0092906432298858 
2.5100000000008724, -1.00886935292596 
2.5200000000008935, -1.008177295297294 
2.5300000000009146, -1.007784324009756 
2.5400000000009357, -1.007550524819634 
2.550000000000957, -1.0069102231470097 
2.560000000000978, -1.0062498584933346 
2.570000000000999, -1.0060385544705899 
2.58000000000102, -1.0056019382190604 
2.5900000000010412, -1.0048326975607949 
2.6000000000010624, -1.0043875721256337 
2.6100000000010835, -1.0041594144345056 
2.6200000000011046, -1.0034849651725706 
2.6300000000011257, -1.0027562357391033 
2.6400000000011468, -1.0025285897404235 
2.650000000001168, -1.0021024511789223 
2.660000000001189, -1.0012932381701776 
2.67000000000121, -1.0007980077149885 
2.680000000001231, -1.000582861946441 
2.6900000000012523, -0.9999169020784308 
2.7000000000012734, -0.9991510388838936 
2.7100000000012945, -0.9989022083388622 
2.7200000000013156, -0.9985106985417526 
2.7300000000013367, -0.9977122046246859 
2.740000000001358, -0.9971772867192656 
2.750000000001379, -0.9969778852129424 
2.7600000000014, -0.9963628159109039 
2.770000000001421, -0.9956032109908074 
2.780000000001442, -0.9953286034957397 
2.7900000000014633, -0.9949883119786633 
2.8000000000014844, -0.9942504413733063 
2.8100000000015055, -0.9936965509135365 
2.8200000000015266, -0.9935105181840872 
2.8300000000015477, -0.9929768489766055 
2.840000000001569, -0.9922676564107554 
2.85000000000159, -0.9919669405764691 
2.860000000001611, -0.9916843654483459 
2.870000000001632, -0.9910423129402388 
2.8800000000016532, -0.9904974605751276 
2.8900000000016743, -0.9903188921006286 
2.9000000000016954, -0.9898802873051806 
2.9100000000017165, -0.9892538551013675 
2.9200000000017377, -0.9889340712766497 
2.9300000000017588, -0.9887070988144301 
2.94000000000178, -0.9881761732177007 
2.950000000001801, -0.9876678742987556 
2.960000000001822, -0.9874909783977882 
2.970000000001843, -0.9871472264069457 
2.9800000000018643, -0.9866184093521964 
2.9900000000018854, -0.9862933505525469 
3.0000000000019065, -0.9861149840880342 
3.0100000000019276, -0.985694946406151 
3.0200000000019487, -0.9852420976973353 
3.03000000000197, -0.9850653247402201 
3.040000000001991, -0.9848091616948345 
3.050000000002012, -0.9843787860692785 
3.060000000002033, -0.9840642940910997 
3.070000000002054, -0.9839270080065589 
3.0800000000020753, -0.9836105972892621 
3.0900000000020964, -0.9832205004441498 
3.1000000000021175, -0.98304819860312 
3.1100000000021386, -0.9828717977953397 
3.1200000000021597, -0.9825348578967433 
3.130000000002181, -0.9822427737761775 
3.140000000002202, -0.9821427830888907 
3.150000000002223, -0.9819235580163002 
3.160000000002244, -0.9815956956025189 
3.1700000000022652, -0.9814355116272201 
3.1800000000022863, -0.9813353473090632 
3.1900000000023074, -0.9810887884854337 
3.2000000000023285, -0.9808233309757579 
3.2100000000023496, -0.9807634729811093 
3.2200000000023707, -0.9806416584713143 
3.230000000002392, -0.980375110631831 
3.240000000002413, -0.9802323637159674 
3.250000000002434, -0.9802133534876787 
3.260000000002455, -0.9800618880895323 
3.2700000000024763, -0.9798210524877226 
3.2800000000024974, -0.9798098387428115 
3.2900000000025185, -0.97979748361365 
3.3000000000025396, -0.9795979080395022 
3.3100000000025607, -0.9794700691415175 
3.3200000000025818, -0.9795496283675106 
3.330000000002603, -0.9795112539882412 
3.340000000002624, -0.9792931702335699 
3.350000000002645, -0.9793382300334939 
3.360000000002666, -0.9794658307634639 
3.3700000000026873, -0.9793506125619558 
3.3800000000027084, -0.9792253959122854 
3.3900000000027295, -0.9794351542365597 
3.4000000000027506, -0.9795491487639003 
3.4100000000027717, -0.9793603820336801 
3.420000000002793, -0.9794572862739283 
3.430000000002814, -0.9797829826710823 
3.440000000002835, -0.979786671801714 
3.450000000002856, -0.9796469101549242 
3.460000000002877, -0.9800254957496721 
3.4700000000028983, -0.9803648294379292 
3.4800000000029194, -0.9802257874571975 
3.4900000000029405, -0.9803475122360641 
3.5000000000029616, -0.9809644183249387 
3.5100000000029827, -0.9811473286481192 
3.520000000003004, -0.9809835936067173 
3.530000000003025, -0.9815523610383369 
3.540000000003046, -0.9822372648466898 
3.550000000003067, -0.9821823917284193 
3.5600000000030882, -0.9822789802814603 
3.5700000000031094, -0.9833013254957785 
3.5800000000031305, -0.9837581605080008 
3.5900000000031516, -0.9835809376842094 
3.6000000000031727, -0.9843067779801 
3.6100000000031938, -0.9854976512200283 
3.620000000003215, -0.9855723091482678 
3.630000000003236, -0.9855919998687102 
3.640000000003257, -0.9870854323221737 
3.650000000003278, -0.9879334363587784 
3.6600000000032993, -0.9877692050801375 
3.6700000000033204, -0.988546957845399 
3.6800000000033415, -0.9903622179830831 
3.6900000000033626, -0.990611903680491 
3.7000000000033837, -0.9905373831367861 
3.710000000003405, -0.9924024907127508 
3.720000000003426, -0.9937076849983313 
3.730000000003447, -0.9935808109102147 
3.740000000003468, -0.9942770634035771 
3.750000000003489, -0.9966148053125367 
3.7600000000035103, -0.9970536000705793 
3.7700000000035314, -0.9969107634239955 
3.7800000000035525, -0.9988552875654644 
3.7900000000035736, -1.0005027777896118 
3.8000000000035947, -1.0004212085177162 
3.810000000003616, -1.0009564264937654 
3.820000000003637, -1.0034113679600656 
3.830000000003658, -1.0039812928895535 
3.840000000003679, -1.0038080085476806 
3.8500000000037002, -1.0055100221994253 
3.8600000000037213, -1.00718480908745 
3.8700000000037424, -1.0071368382859998 
3.8800000000037635, -1.007508258950927 
3.8900000000037847, -1.0096125068435113 
3.9000000000038058, -1.0101923992939426 
3.910000000003827, -1.010012688084867 
3.920000000003848, -1.0113028264537827 
3.930000000003869, -1.0126945241909868 
3.94000000000389, -1.0126559728984061 
3.9500000000039113, -1.0128933082469156 
3.9600000000039324, -1.0144219517976214 
3.9700000000039535, -1.0149002739881916 
3.9800000000039746, -1.014721907749573 
3.9900000000039957, -1.0155995918857776 
4.000000000004016, -1.0165860529887911 
4.010000000003993, -1.0165328968766734 
4.02000000000397, -1.0166641150628433 
4.030000000003946, -1.0176513681189352 
4.040000000003923, -1.0179789203186385 
4.0500000000039, -1.0177998276871785 
4.0600000000038765, -1.0183466868278956 
4.070000000003853, -1.0189665619496535 
4.08000000000383, -1.0188830960721744 
4.090000000003807, -1.0189284005394397 
4.100000000003783, -1.0195121683444295 
4.11000000000376, -1.0196920448440916 
4.120000000003737, -1.0195057958963507 
4.130000000003713, -1.0198137829750993 
4.14000000000369, -1.0201590911939264 
4.150000000003667, -1.020037823847523 
4.1600000000036434, -1.020011938295603 
4.17000000000362, -1.0203242607067096 
4.180000000003597, -1.0203800713608158 
4.1900000000035735, -1.0201788197797608 
4.20000000000355, -1.0203215530861833 
4.210000000003527, -1.020475126147759 
4.220000000003504, -1.0203126940749487 
4.23000000000348, -1.0202263630362045 
4.240000000003457, -1.020361963392605 
4.250000000003434, -1.020317479316914 
4.26000000000341, -1.0200929791559465 
4.270000000003387, -1.020122250022218 
4.280000000003364, -1.0201422819794745 
4.2900000000033405, -1.019935703050242 
4.300000000003317, -1.0197962164281706 
4.310000000003294, -1.0198162655412846 
4.320000000003271, -1.019688291611609 
4.330000000003247, -1.0194318399826185 
4.340000000003224, -1.0193822247685274 
4.350000000003201, -1.019305649065381 
4.360000000003177, -1.0190501596408423 
4.370000000003154, -1.0188616626144662 
4.380000000003131, -1.01880454529269 
4.390000000003107, -1.018602306924443 
4.400000000003084, -1.0183043153628624 
4.410000000003061, -1.0181984806090176 
4.4200000000030375, -1.0180478781100508 
4.430000000003014, -1.0177361326423977 
4.440000000002991, -1.0174999442915829 
4.450000000002968, -1.0173901559210323 
4.460000000002944, -1.0171170189124936 
4.470000000002921, -1.0167667388655692 
4.480000000002898, -1.0166194274103648 
4.490000000002874, -1.016409052751902 
4.500000000002851, -1.0160314689126835 
4.510000000002828, -1.0157464476173466 
4.520000000002804, -1.015600512285951 
4.530000000002781, -1.0152566827132232 
4.540000000002758, -1.0148425541320047 
4.5500000000027345, -1.0146631265702442 
4.560000000002711, -1.0144036094339723 
4.570000000002688, -1.0139500659390703 
4.580000000002665, -1.0136131193989195 
4.590000000002641, -1.0134431890152142 
4.600000000002618, -1.0130292862691792 
4.610000000002595, -1.012540431175114 
4.620000000002571, -1.012334286479249 
4.630000000002548, -1.012036266611539 
4.640000000002525, -1.011499585213247 
4.6500000000025015, -1.011106559335999 
4.660000000002478, -1.0109223386487551 
4.670000000002455, -1.0104437441847276 
4.6800000000024315, -1.0098730887203968 
4.690000000002408, -1.0096423498853122 
4.700000000002385, -1.0093189237396663 
4.710000000002362, -1.0087001109192144 
4.720000000002338, -1.0082474212804198 
4.730000000002315, -1.0080568043912266 
4.740000000002292, -1.0075277700139977 
4.750000000002268, -1.006876756801075 
4.760000000002245, -1.0066206725677649 
4.770000000002222, -1.0062880425790097 
4.7800000000021985, -1.0056017709456098 
4.790000000002175, -1.005089102233758 
4.800000000002152, -1.0048978328323959 
4.810000000002129, -1.0043431147362618 
4.820000000002105, -1.00362660171617 
4.830000000002082, -1.003342274016397 
4.840000000002059, -1.0030181075943396 
4.850000000002035, -1.0022949829496437 
4.860000000002012, -1.0017288607069217 
4.870000000001989, -1.0015396837333916 
4.880000000001965, -1.000991472087576 
4.890000000001942, -1.0002396517823742 
4.900000000001919, -0.9999237892024303 
4.9100000000018955, -0.9996238335128967 
4.920000000001872, -0.9989059462963866 
4.930000000001849, -0.9983027896753355 
