t, s[1].omega / s[0].omega 
0, -1.0199974205282363 
0.009999999999999995, -1.0196719985103517 
0.019999999999999934, -1.0194549871721028 
0.029999999999999874, -1.0191554279569401 
0.04000000000000012, -1.0188528282634663 
0.050000000000000405, -1.0186006157669125 
0.06000000000000069, -1.0182256934935814 
0.07000000000000098, -1.0179917384043664 
0.08000000000000126, -1.0176104661638876 
0.09000000000000155, -1.0173092881523356 
0.10000000000000184, -1.0169807132580198 
0.11000000000000212, -1.016569582032202 
0.12000000000000241, -1.0163050216433844 
0.130000000000002, -1.0158391433716274 
0.1400000000000009, -1.0155466897314347 
0.1499999999999998, -1.015122374130925 
0.1599999999999987, -1.0146963002501344 
0.1699999999999976, -1.0143747731796922 
0.1799999999999965, -1.0138265644035729 
0.1899999999999954, -1.0135427351368929 
0.1999999999999943, -1.0130015437910012 
0.2099999999999932, -1.0125867442954648 
0.2199999999999921, -1.0121742715427156 
0.229999999999991, -1.011564994074467 
0.2399999999999899, -1.0112721028029874 
0.2499999999999888, -1.0105996484591147 
0.2599999999999877, -1.0102195232456046 
0.2699999999999866, -1.00968340772686 
0.2799999999999855, -1.0090566565125587 
0.2899999999999844, -1.0087178379438735 
0.2999999999999833, -1.007924017613205 
0.3099999999999822, -1.0075888837548586 
0.3199999999999811, -1.006907058909573 
0.32999999999998, -1.0063135565075128 
0.3399999999999789, -1.0058885632299135 
0.3499999999999778, -1.0050229732639386 
0.35999999999997667, -1.0047184998383036 
0.36999999999997557, -1.00389422382091 
0.37999999999997447, -1.0033736691389654 
0.38999999999997337, -1.0028371749380223 
0.39999999999997227, -1.0019785528556395 
0.40999999999997117, -1.0016695105348146 
0.41999999999997006, -1.0007452505087793 
0.42999999999996896, -1.0003135469415836 
0.43999999999996786, -0.9996673461507706 
0.44999999999996676, -0.9988887132274737 
0.45999999999996566, -0.9985403531443776 
0.46999999999996456, -0.997593580876164 
0.47999999999996346, -0.9972389402848745 
0.48999999999996235, -0.9965154896644782 
0.49999999999996125, -0.99585720582573 
0.5099999999999602, -0.9954538621294435 
0.519999999999959, -0.9945677632546182 
0.529999999999958, -0.9942609779446901 
0.5399999999999568, -0.9935137556618071 
0.5499999999999557, -0.9929802966910981 
0.5599999999999546, -0.9925304145972828 
0.5699999999999535, -0.9917603192489619 
0.5799999999999524, -0.9914720610434996 
0.5899999999999513, -0.9907564371198903 
0.5999999999999502, -0.9903287969590074 
0.6099999999999491, -0.9898575419717602 
0.619999999999948, -0.9892195303682015 
0.6299999999999469, -0.9889321205800984 
0.6399999999999458, -0.9882878393542189 
0.6499999999999447, -0.9879390070540341 
0.6599999999999436, -0.98747520635616 
0.6699999999999425, -0.9869573984233752 
0.6799999999999414, -0.9866672805958454 
0.6899999999999403, -0.9861111617049776 
0.6999999999999392, -0.9858170288003221 
0.7099999999999381, -0.9853832267826504 
0.719999999999937, -0.9849628653421151 
0.7299999999999359, -0.9846766710101931 
0.7399999999999348, -0.9842063423320385 
0.7499999999999337, -0.9839507144159981 
0.7599999999999326, -0.9835596553377507 
0.7699999999999315, -0.9832148483745249 
0.7799999999999304, -0.9829435303689693 
0.7899999999999293, -0.9825465606160245 
0.7999999999999282, -0.9823223184807258 
0.8099999999999271, -0.9819778883542646 
0.819999999999926, -0.9816930074947902 
0.8299999999999249, -0.9814477257429984 
0.8399999999999238, -0.9811098347701919 
0.8499999999999227, -0.9809184920337745 
0.8599999999999216, -0.9806184034734013 
0.8699999999999205, -0.9803860681021426 
0.8799999999999194, -0.980176825673635 
0.8899999999999183, -0.9798867901654162 
0.8999999999999172, -0.9797380761935225 
0.9099999999999161, -0.9794766143878266 
0.919999999999915, -0.9792991008497421 
0.9299999999999139, -0.9791351336474399 
0.9399999999999128, -0.978887408985545 
0.9499999999999117, -0.9788002227377127 
0.9599999999999106, -0.9785701319931275 
0.9699999999999095, -0.9784624091265307 
0.9799999999999084, -0.9783531090844579 
0.9899999999999073, -0.9781501823739241 
0.9999999999999062, -0.9781559470585071 
1.0099999999999052, -0.9779492054384596 
1.019999999999904, -0.9779460813993057 
1.029999999999903, -0.9779014281130121 
1.039999999999902, -0.9777581078354589 
1.0499999999999008, -0.977906849224852 
1.0599999999998997, -0.9777149496772932 
1.0699999999998986, -0.9778863449800766 
1.0799999999998975, -0.9779151189376816 
1.0899999999998964, -0.9778680807460486 
1.0999999999998953, -0.9782359035505157 
1.1099999999998942, -0.9780511006715059 
1.119999999999893, -0.9785308155517315 
1.129999999999892, -0.9786329599861553 
1.1399999999998909, -0.978761729809161 
1.1499999999998898, -0.9794527777708212 
1.1599999999998887, -0.9792721665219547 
1.1699999999998876, -0.9802967259870105 
1.1799999999998865, -0.9804461159352305 
1.1899999999998854, -0.9809136923137074 
1.1999999999998843, -0.9820307147941274 
1.2099999999998832, -0.9818657291474985 
1.219999999999882, -0.9837679347172127 
1.229999999999881, -0.9838962726304531 
1.2399999999998799, -0.9849961917324672 
1.2499999999998788, -0.986520709321864 
1.2599999999998777, -0.9864204900019716 
1.2699999999998766, -0.9894205038172516 
1.2799999999998755, -0.9894427832117002 
1.2899999999998744, -0.9915274846958757 
1.2999999999998733, -0.9931277748631169 
1.3099999999998722, -0.9932333287218098 
1.319999999999871, -0.9969876992180443 
1.32999999999987, -0.9968696420882329 
1.3399999999998689, -0.999942072278945 
1.3499999999998678, -1.0010876819508507 
1.3599999999998666, -1.0016554758206369 
1.3699999999998655, -1.0051218225151073 
1.3799999999998644, -1.0049112266993996 
1.3899999999998633, -1.0082650285594854 
1.3999999999998622, -1.0087595922388746 
1.4099999999998611, -1.0098745356359538 
1.41999999999986, -1.0121156564087466 
1.429999999999859, -1.0119543197614291 
1.4399999999998578, -1.0146650320178197 
1.4499999999998567, -1.0147093484861849 
1.4599999999998556, -1.016001517576885 
1.4699999999998545, -1.0170207148288233 
1.4799999999998534, -1.0170614102155162 
1.4899999999998523, -1.018703650784115 
1.4999999999998512, -1.0185454195374 
1.5099999999998501, -1.0196121950202188 
1.519999999999849, -1.0199085370722274 
1.529999999999848, -1.0201029328318398 
1.5399999999998468, -1.0208630949360542 
1.5499999999998457, -1.020674739438321 
1.5599999999998446, -1.0213601677761475 
1.5699999999998435, -1.0213150461645162 
1.5799999999998424, -1.021521571581701 
1.5899999999998413, -1.0217642936814346 
1.5999999999998402, -1.0216192138581128 
1.6099999999998391, -1.0219466455768806 
1.619999999999838, -1.021759494351803 
1.629999999999837, -1.0218942298282947 
1.6399999999998358, -1.0218645731870204 
1.6499999999998347, -1.0217498602333128 
1.6599999999998336, -1.0218235809561937 
1.6699999999998325, -1.0215931024696125 
1.6799999999998314, -1.0216237403779438 
1.6899999999998303, -1.0214489938037585 
1.6999999999998292, -1.0213350455880785 
1.709999999999828, -1.0212459086905394 
1.719999999999827, -1.0210089771362165 
1.729999999999826, -1.0209378193334548 
1.7399999999998248, -1.020684882504466 
1.7499999999998237, -1.0205507691056104 
1.7599999999998226, -1.0203521129803534 
1.7699999999998215, -1.020115023583945 
1.7799999999998204, -1.0199571288859346 
1.7899999999998193, -1.0196617224861653 
1.7999999999998182, -1.0194948360156502 
1.809999999999817, -1.0192151885930527 
1.819999999999816, -1.0189775277178903 
1.8299999999998149, -1.0187416744986089 
1.8399999999998138, -1.0184215909325298 
1.8499999999998127, -1.018214297712839 
1.8599999999998116, -1.0178693437899584 
1.8699999999998105, -1.0176293702831238 
1.8799999999998094, -1.0173159043120386 
1.8899999999998083, -1.0169841261855226 
1.8999999999998072, -1.0167251902081875 
1.909999999999806, -1.0163246750439359 
1.919999999999805, -1.016078316146657 
1.9299999999998039, -1.0156826385788198 
1.9399999999998028, -1.0153527610894608 
1.9499999999998017, -1.0150243053120271 
1.9599999999998006, -1.0145806385703615 
1.9699999999997995, -1.0143162812098654 
1.9799999999997984, -1.0138328586071617 
1.9899999999997973, -1.0135166119135155 
1.9999999999997962, -1.0130978990250106 
2.0099999999998173, -1.012633766322364 
2.0199999999998384, -1.012326948084073 
2.0299999999998595, -1.0117570751857088 
2.0399999999998806, -1.0114595266708157 
2.0499999999999017, -1.0109311690173284 
2.059999999999923, -1.0104761590176556 
2.069999999999944, -1.010094964661778 
2.079999999999965, -1.0094587311056775 
2.089999999999986, -1.0091698304931855 
2.100000000000007, -1.0085210258116672 
2.1100000000000283, -1.008102177506934 
2.1200000000000494, -1.0076184674362645 
2.1300000000000705, -1.0069589073960916 
2.1400000000000916, -1.006649938767705 
2.1500000000001127, -1.005891380716725 
2.160000000000134, -1.0055242647817106 
2.170000000000155, -1.0049229139104985 
2.180000000000176, -1.00429179457535 
2.190000000000197, -1.003927825013703 
2.2000000000002182, -1.0031023617881538 
2.2100000000002393, -1.0027825080530177 
2.2200000000002604, -1.0020703203815193 
2.2300000000002815, -1.001508394299953 
2.2400000000003026, -1.0010663893438607 
2.2500000000003237, -1.0002414998729057 
2.260000000000345, -0.9999445153765106 
2.270000000000366, -0.9991560016381007 
2.280000000000387, -0.9986819454392304 
2.290000000000408, -0.9981611973820627 
2.3000000000004293, -0.9974019005376384 
2.3100000000004504, -0.9970975017389498 
2.3200000000004715, -0.9962893998347917 
2.3300000000004926, -0.9958986713136847 
2.3400000000005137, -0.9953211808094384 
2.3500000000005348, -0.9946660889812495 
2.360000000000556, -0.9943345364559811 
2.370000000000577, -0.9935671364251325 
2.380000000000598, -0.9932394065719473 
2.390000000000619, -0.9926412858788662 
2.4000000000006403, -0.9920984291369791 
2.4100000000006614, -0.9917376602163748 
2.4200000000006825, -0.9910538100273175 
2.4300000000007036, -0.9907646977341141 
2.4400000000007247, -0.990183382453936 
2.450000000000746, -0.9897403189643468 
2.460000000000767, -0.9893627306409002 
2.470000000000788, -0.9887788922462042 
2.480000000000809, -0.9885095549914701 
2.49000000000083, -0.9879732922405067 
2.5000000000008513, -0.9876096916776486 
2.5100000000008724, -0.9872336079915897 
2.5200000000008935, -0.9867453669063954 
2.5300000000009146, -0.9864867410102619 
2.5400000000009357, -0.9860099161263154 
2.550000000000957, -0.9857064224872948 
2.560000000000978, -0.9853485353280967 
2.570000000000999, -0.9849417110180548 
2.58000000000102, -0.9846940030162661 
2.5900000000010412, -0.9842783148813821 
2.6000000000010624, -0.984021061458953 
2.6100000000010835, -0.9836928441546586 
2.6200000000011046, -0.9833523939478119 
2.6300000000011257, -0.9831220836776549 
2.6400000000011468, -0.9827612496859978 
2.650000000001168, -0.9825436535191406 
2.660000000001189, -0.9822509907806467 
2.67000000000121, -0.981965936322265 
2.680000000001231, -0.98176281695997 
2.6900000000012523, -0.9814477270145285 
2.7000000000012734, -0.9812712742712113 
2.7100000000012945, -0.9810155456778814 
2.7200000000013156, -0.9807814581602565 
2.7300000000013367, -0.9806171594600174 
2.740000000001358, -0.9803396575992159 
2.750000000001379, -0.9802149804363252 
2.7600000000014, -0.9799943756539314 
2.770000000001421, -0.9798155065221975 
2.780000000001442, -0.9797034605298255 
2.7900000000014633, -0.979458873388322 
2.8000000000014844, -0.9794083473761138 
2.8100000000015055, -0.9792186604826966 
2.8200000000015266, -0.9791117510440216 
2.8300000000015477, -0.9790678628427897 
2.840000000001569, -0.9788574604823558 
2.85000000000159, -0.9789206257704737 
2.860000000001611, -0.9787550536562983 
2.870000000001632, -0.9787574527137863 
2.8800000000016532, -0.9788004569075354 
2.8900000000016743, -0.9786354616293086 
2.9000000000016954, -0.9788779459385539 
2.9100000000017165, -0.9787260778647164 
2.9200000000017377, -0.9789124397358226 
2.9300000000017588, -0.9790616391530212 
2.94000000000178, -0.9789713849724183 
2.950000000001801, -0.979494921076697 
2.960000000001822, -0.9793425290497777 
2.970000000001843, -0.979855340235129 
2.9800000000018643, -0.9801198966721887 
2.9900000000018854, -0.9801691358998178 
3.0000000000019065, -0.9811104700909052 
3.0100000000019276, -0.9809431122390834 
3.0200000000019487, -0.9820303894749357 
3.03000000000197, -0.9823818394072102 
3.040000000001991, -0.9827037650254008 
3.050000000002012, -0.9841856437535291 
3.060000000002033, -0.9839984619070794 
3.070000000002054, -0.985989666711631 
3.0800000000020753, -0.9863296410110972 
3.0900000000020964, -0.9871635552869263 
3.1000000000021175, -0.9891347766433803 
3.1100000000021386, -0.9889522626472531 
3.1200000000021597, -0.9920090672802113 
3.130000000002181, -0.9922019117464967 
3.140000000002202, -0.9938353547961994 
3.150000000002223, -0.9958654819694865 
3.160000000002244, -0.9957863854414217 
3.1700000000022652, -0.9994849179707892 
3.1800000000022863, -0.9994709226425443 
3.1900000000023074, -1.00191243048758 
3.2000000000023285, -1.0033793325383409 
3.2100000000023496, -1.003614605148566 
3.2200000000023707, -1.0069597040332985 
3.230000000002392, -1.006791511353794 
3.240000000002413, -1.0094848769000069 
3.250000000002434, -1.0101727167555623 
3.260000000002455, -1.0108458485751062 
3.2700000000024763, -1.0130301710681089 
3.2800000000024974, -1.0128361152917322 
3.2900000000025185, -1.0150654838130224 
3.3000000000025396, -1.0152095245752302 
3.3100000000025607, -1.016092826356627 
3.3200000000025818, -1.0171358819702219 
3.330000000002603, -1.0170630541678831 
3.340000000002624, -1.0184822790989638 
3.350000000002645, -1.018364500912284 
3.360000000002666, -1.0191518946359697 
3.3700000000026873, -1.0194960210801758 
3.3800000000027084, -1.0195568409928442 
3.3900000000027295, -1.0202574835244678 
3.4000000000027506, -1.0200620268534568 
3.4100000000027717, -1.0206046427209574 
3.420000000002793, -1.0205979939606413 
3.430000000002814, -1.0206994818432464 
3.440000000002835, -1.0209437123729834 
3.450000000002856, -1.0207632768377748 
3.460000000002877, -1.0210399973257627 
3.4700000000028983, -1.0208713612372369 
3.4800000000029194, -1.0209409004162096 
3.4900000000029405, -1.020928172415599 
3.5000000000029616, -1.020774528978268 
3.5100000000029827, -1.0208397997808472 
3.520000000003004, -1.0206079158651424 
3.530000000003025, -1.0206086486752344 
3.540000000003046, -1.0204499265105598 
3.550000000003067, -1.0203050518474064 
3.5600000000030882, -1.020223220930499 
3.5700000000031094, -1.019973517854313 
3.5800000000031305, -1.019895199353347 
3.5900000000031516, -1.0196509081480616 
3.6000000000031727, -1.0194978659447673 
3.6100000000031938, -1.0193113924118775 
3.620000000003215, -1.0190578330602102 
3.630000000003236, -1.0189054972174258 
3.640000000003257, -1.0186103803831381 
3.650000000003278, -1.0184366939494356 
3.6600000000032993, -1.01816918584299 
3.6700000000033204, -1.017915685024066 
3.6800000000033415, -1.0176933291425194 
3.6900000000033626, -1.0173667763860275 
3.7000000000033837, -1.0171636021942565 
3.710000000003405, -1.0168283898520825 
3.720000000003426, -1.0165764581461771 
3.730000000003447, -1.0162821370412143 
3.740000000003468, -1.0159380784461163 
3.750000000003489, -1.015694669090016 
3.7600000000035103, -1.015300402470889 
3.7700000000035314, -1.0150489315409539 
3.7800000000035525, -1.0146771935008427 
3.7900000000035736, -1.0143306819649853 
3.8000000000035947, -1.0140302403206727 
3.810000000003616, -1.0135870216460936 
3.820000000003637, -1.0133292421847302 
3.830000000003658, -1.0128743458342746 
3.840000000003679, -1.012539830733795 
3.8500000000037002, -1.0121628313427542 
3.8600000000037213, -1.011689869067134 
3.8700000000037424, -1.0114079124597373 
3.8800000000037635, -1.010869153683811 
3.8900000000037847, -1.0105562276819187 
3.9000000000038058, -1.0100853050761667 
3.910000000003827, -1.009611117394998 
3.920000000003848, -1.0092774800781694 
3.930000000003869, -1.008668116012661 
3.94000000000389, -1.008375639970491 
3.9500000000039113, -1.0078006625387694 
3.9600000000039324, -1.0073541049316708 
3.9700000000039535, -1.006942290962174 
3.9800000000039746, -1.0062960538465655 
3.9900000000039957, -1.0060064502588424 
4.000000000004016, -1.0053326734896968 
4.010000000003993, -1.0049340117199135 
4.02000000000397, -1.0044284587884724 
4.030000000003946, -1.0037924014478343 
4.040000000003923, -1.0034765138131263 
4.0500000000039, -1.002732699276361 
4.0600000000038765, -1.0023870453977048 
4.070000000003853, -1.0017893623096916 
4.08000000000383, -1.0012059110730729 
4.090000000003807, -1.0008383587050067 
4.100000000003783, -1.0000752470744685 
4.11000000000376, -0.9997699290124914 
4.120000000003737, -0.9991020761284362 
4.130000000003713, -0.9985958595266348 
4.14000000000369, -0.9981675143946146 
4.150000000003667, -0.9974413934117539 
4.1600000000036434, -0.997152404767153 
4.17000000000362, -0.9964537569407796 
4.180000000003597, -0.996028945212343 
4.1900000000035735, -0.9955497577153207 
4.20000000000355, -0.9949017752730095 
4.210000000003527, -0.9946066891924367 
4.220000000003504, -0.9939231757445809 
4.23000000000348, -0.9935682279440124 
4.240000000003457, -0.9930618736849368 
4.250000000003434, -0.9925088144506207 
4.26000000000341, -0.9921967173762881 
4.270000000003387, -0.9915664162892234 
4.280000000003364, -0.9912624134789013 
4.2900000000033405, -0.9907570514681842 
4.300000000003317, -0.990295737383968 
4.310000000003294, -0.98996905344064 
4.320000000003271, -0.9894127385011813 
4.330000000003247, -0.989141513968628 
4.340000000003224, -0.9886614084658115 
4.350000000003201, -0.9882784197677842 
4.360000000003177, -0.9879482624866753 
4.370000000003154, -0.9874695560288098 
4.380000000003131, -0.9872189712977151 
4.390000000003107, -0.9867796759872843 
4.400000000003084, -0.9864596232603339 
4.410000000003061, -0.9861394423793047 
4.4200000000030375, -0.9857314019151439 
4.430000000003014, -0.9854971579885107 
4.440000000002991, -0.9851046160605758 
4.450000000002968, -0.9848351154210324 
4.460000000002944, -0.9845363466051295 
4.470000000002921, -0.9841886927086174 
4.480000000002898, -0.9839734938306277 
4.490000000002874, -0.983626117934813 
4.500000000002851, -0.9834003134687874 
4.510000000002828, -0.9831307283341371 
4.520000000002804, -0.9828348493914315 
4.530000000002781, -0.9826464953867714 
4.540000000002758, -0.982338579107945 
4.5500000000027345, -0.9821566076950901 
4.560000000002711, -0.9819203387915777 
4.570000000002688, -0.9816722754291124 
4.580000000002665, -0.9815222105844278 
4.590000000002641, -0.9812471121087829 
4.600000000002618, -0.9811177026147933 
4.610000000002595, -0.9809158451813685 
4.620000000002571, -0.9807186415564568 
4.630000000002548, -0.980621577785935 
4.640000000002525, -0.9803741666269057 
4.6500000000025015, -0.980317495010063 
4.660000000002478, -0.9801485043899836 
4.670000000002455, -0.9800156097625692 
4.6800000000024315, -0.979989926799234 
4.690000000002408, -0.9797688645323205 
4.700000000002385, -0.9798219626955004 
4.710000000002362, -0.9796812040344769 
4.720000000002338, -0.9796431306312261 
4.730000000002315, -0.9797112285475713 
4.740000000002292, -0.979522202833425 
4.750000000002268, -0.979747916823801 
4.760000000002245, -0.9796260692131761 
4.770000000002222, -0.9797437840661808 
4.7800000000021985, -0.9799304710083054 
4.790000000002175, -0.9797921014763218 
4.800000000002152, -0.9802898454585779 
4.810000000002129, -0.9801712198807234 
4.820000000002105, -0.9805609059046768 
4.830000000002082, -0.9808845447915407 
4.840000000002059, -0.9808403474764084 
4.850000000002035, -0.9817476337482154 
4.860000000002012, -0.9816119127945376 
4.870000000001989, -0.9824790775840363 
4.880000000001965, -0.9829255713677267 
4.890000000001942, -0.9830676683981157 
4.900000000001919, -0.9845205891709192 
4.9100000000018955, -0.9843518509491311 
4.920000000001872, -0.985990597277616 
4.930000000001849, -0.9864715464323387 
