t, s[1].omega / s[0].omega 
0, -1.079987479316246 
0.009999999999999995, -1.0786277556191313 
0.019999999999999934, -1.077055451206699 
0.029999999999999874, -1.0752714857784809 
0.04000000000000012, -1.0732768222188682 
0.050000000000000405, -1.0710724827633133 
0.06000000000000069, -1.0686595730364965 
0.07000000000000098, -1.0660393132057286 
0.08000000000000126, -1.0632130753095193 
0.09000000000000155, -1.0601824256766508 
0.10000000000000184, -1.0569491712498489 
0.11000000000000212, -1.0535154085723084 
0.12000000000000241, -1.049883574184475 
0.130000000000002, -1.0460564952097688 
0.1400000000000009, -1.0420374389763878 
0.1499999999999998, -1.037830160621214 
0.1599999999999987, -1.0334389477432284 
0.1699999999999976, -1.028868661309281 
0.1799999999999965, -1.0241247721559206 
0.1899999999999954, -1.019213392569598 
0.1999999999999943, -1.0141413025569814 
0.2099999999999932, -1.0089159705323498 
0.2199999999999921, -1.0035455682466228 
0.229999999999991, -0.9980389798610547 
0.2399999999999899, -0.9924058051283421 
0.2499999999999888, -0.9866563566867674 
0.2599999999999877, -0.9808016515022778 
0.2699999999999866, -0.974853396513036 
0.2799999999999855, -0.9688239685455299 
0.2899999999999844, -0.9627263885850399 
0.2999999999999833, -0.9565742905001124 
0.3099999999999822, -0.9503818843437152 
0.3199999999999811, -0.9441639143850298 
0.32999999999998, -0.9379356120661784 
0.3399999999999789, -0.9317126441273004 
0.3499999999999778, -0.9255110561998015 
0.35999999999997667, -0.9193472122289531 
0.36999999999997557, -0.9132377301502519 
0.37999999999997447, -0.9071994143055628 
0.38999999999997337, -0.901249185141633 
0.39999999999997227, -0.8954040067815566 
0.40999999999997117, -0.8896808130964985 
0.41999999999997006, -0.8840964329280722 
0.42999999999996896, -0.8786675151199327 
0.43999999999996786, -0.873410454009765 
0.44999999999996676, -0.8683413160103584 
0.45999999999996566, -0.8634757678719567 
0.46999999999996456, -0.858829007169456 
0.47999999999996346, -0.8544156954997005 
0.48999999999996235, -0.850249894808819 
0.49999999999996125, -0.8463450072001859 
0.5099999999999602, -0.8427137185031562 
0.519999999999959, -0.8393679458138682 
0.529999999999958, -0.8363187891546763 
0.5399999999999568, -0.8335764873401901 
0.5499999999999557, -0.8311503780870378 
0.5599999999999546, -0.8290488623624752 
0.5699999999999535, -0.8272793729344368 
0.5799999999999524, -0.8258483470627042 
0.5899999999999513, -0.8247612032572981 
0.5999999999999502, -0.8240223220253069 
0.6099999999999491, -0.82363503053024 
0.619999999999948, -0.8236015910974502 
0.6299999999999469, -0.8239231935138089 
0.6399999999999458, -0.8245999510882729 
0.6499999999999447, -0.825630900460651 
0.6599999999999436, -0.8270140051673315 
0.6699999999999425, -0.8287461629934029 
0.6799999999999414, -0.830823217159176 
0.6899999999999403, -0.8332399714041953 
0.6999999999999392, -0.8359902090422822 
0.7099999999999381, -0.839066716065872 
0.719999999999937, -0.8424613083760323 
0.7299999999999359, -0.8461648632053099 
0.7399999999999348, -0.8501673547834047 
0.7499999999999337, -0.8544578942702915 
0.7599999999999326, -0.859024773947651 
0.7699999999999315, -0.8638555156174951 
0.7799999999999304, -0.8689369231070445 
0.7899999999999293, -0.8742551387219354 
0.7999999999999282, -0.8797957034267231 
0.8099999999999271, -0.8855436204636129 
0.819999999999926, -0.8914834220491131 
0.8299999999999249, -0.8975992387155933 
0.8399999999999238, -0.9038748707927765 
0.8499999999999227, -0.9102938614551966 
0.8599999999999216, -0.9168395706980469 
0.8699999999999205, -0.9234952495479953 
0.8799999999999194, -0.9302441137697627 
0.8899999999999183, -0.937069416295689 
0.8999999999999172, -0.9439545175859013 
0.9099999999999161, -0.9508829531225815 
0.919999999999915, -0.9578384972541639 
0.9299999999999139, -0.9648052226346537 
0.9399999999999128, -0.9717675545497144 
0.9499999999999117, -0.9787103194844262 
0.9599999999999106, -0.9856187873667989 
0.9699999999999095, -0.9924787070153408 
0.9799999999999084, -0.9992763344267193 
0.9899999999999073, -1.0059984536594178 
0.9999999999999062, -1.0126323901995196 
1.0099999999999052, -1.0191660168335597 
1.019999999999904, -1.0255877521987455 
1.029999999999903, -1.0318865523305758 
1.039999999999902, -1.0380518956795 
1.0499999999999008, -1.044073762218868 
1.0599999999998997, -1.0499426074128053 
1.0699999999998986, -1.0556493319509486 
1.0799999999998975, -1.0611852482829767 
1.0899999999998964, -1.066542045094845 
1.0999999999998953, -1.0717117509555232 
1.1099999999998942, -1.076686698422746 
1.119999999999893, -1.081459489923755 
1.129999999999892, -1.0860229667177843 
1.1399999999998909, -1.0903701821974363 
1.1499999999998898, -1.0944943806937195 
1.1599999999998887, -1.0983889828136209 
1.1699999999998876, -1.1020475781608696 
1.1799999999998865, -1.1054639260734396 
1.1899999999998854, -1.108631964761168 
1.1999999999998843, -1.1115458289517834 
1.2099999999998832, -1.1141998758639566 
1.219999999999882, -1.116588719033905 
1.229999999999881, -1.11870726924087 
1.2399999999998799, -1.1205507815204618 
1.2499999999998788, -1.1221149070367964 
1.2599999999998777, -1.1233957484168033 
1.2699999999998766, -1.1243899170429232 
1.2799999999998755, -1.125094590760402 
1.2899999999998744, -1.1255075704853577 
1.2999999999998733, -1.1256273342983938 
1.3099999999998722, -1.1254530877698536 
1.319999999999871, -1.1249848094768313 
1.32999999999987, -1.1242232909251977 
1.3399999999998689, -1.1231701703657957 
1.3499999999998678, -1.121827960274808 
1.3599999999998666, -1.1202000685360904 
1.3699999999998655, -1.1182908136009377 
1.3799999999998644, -1.1161054340937473 
1.3899999999998633, -1.1136500934689635 
1.3999999999998622, -1.1109318803982613 
1.4099999999998611, -1.1079588055744485 
1.41999999999986, -1.1047397955616398 
1.429999999999859, -1.1012846842061412 
1.4399999999998578, -1.09760420195886 
1.4499999999998567, -1.0937099632610348 
1.4599999999998556, -1.0896144519256135 
1.4699999999998545, -1.0853310042231834 
1.4799999999998534, -1.080873789170376 
1.4899999999998523, -1.0762577853360933 
1.4999999999998512, -1.0714987533407243 
1.5099999999998501, -1.066613203137433 
1.519999999999849, -1.0616183551410718 
1.529999999999848, -1.056532094313924 
1.5399999999998468, -1.0513729164289967 
1.5499999999998457, -1.0461598659073945 
1.5599999999998446, -1.040912464858676 
1.5699999999998435, -1.0356506332306814 
1.5799999999998424, -1.0303946002837079 
1.5899999999998413, -1.0251648079263713 
1.5999999999998402, -1.0199818067692747 
1.6099999999998391, -1.014866146049892 
1.619999999999838, -1.0098382588413202 
1.629999999999837, -1.0049183441644143 
1.6399999999998358, -1.000126247766344 
1.6499999999998347, -0.995481343401757 
1.6599999999998336, -0.9910024164526737 
1.6699999999998325, -0.9867075516518188 
1.6799999999998314, -0.9826140265368639 
1.6899999999998303, -0.9787382120695222 
1.6999999999998292, -0.9750954816154639 
1.709999999999828, -0.9717001292125412 
1.719999999999827, -0.9685652977704411 
1.729999999999826, -0.965702917559139 
1.7399999999998248, -0.9631236550699208 
1.7499999999998237, -0.9608368720831907 
1.7599999999998226, -0.9588505945613675 
1.7699999999998215, -0.9571714908102137 
1.7799999999998204, -0.9558048582224205 
1.7899999999998193, -0.9547546178352296 
1.7999999999998182, -0.9540233158989435 
1.809999999999817, -0.953612131662637 
1.819999999999816, -0.9535208906329726 
1.8299999999998149, -0.9537480826455355 
1.8399999999998138, -0.9542908841985726 
1.8499999999998127, -0.9551451846282877 
1.8599999999998116, -0.9563056158444826 
1.8699999999998105, -0.9577655854865862 
1.8799999999998094, -0.9595173134944632 
1.8899999999998083, -0.9615518722077248 
1.8999999999998072, -0.963859230204207 
1.909999999999806, -0.9664283001567135 
1.919999999999805, -0.9692469910220638 
1.9299999999998039, -0.9723022648749015 
1.9399999999998028, -0.9755801986593011 
1.9499999999998017, -0.9790660510547848 
1.9599999999998006, -0.9827443345429607 
1.9699999999997995, -0.9865988926216492 
1.9799999999997984, -0.99061298195213 
1.9899999999997973, -0.9947693590505898 
1.9999999999997962, -0.9990503709567472 
2.0099999999998173, -1.0034380491412145 
2.0199999999998384, -1.007914205758602 
2.0299999999998595, -1.0124605312249715 
2.0399999999998806, -1.0170586920037752 
2.0499999999999017, -1.0216904274295853 
2.059999999999923, -1.0263376443868168 
2.069999999999944, -1.0309825086915496 
2.079999999999965, -1.035607532095992 
2.089999999999986, -1.0401956539418842 
2.100000000000007, -1.0447303166239117 
2.1100000000000283, -1.0491955341781407 
2.1200000000000494, -1.0535759534738618 
2.1300000000000705, -1.0578569076504543 
2.1400000000000916, -1.0620244615951357 
2.1500000000001127, -1.0660654493953887 
2.160000000000134, -1.0699675038163317 
2.170000000000155, -1.0737190779454793 
2.180000000000176, -1.077309459215011 
2.190000000000197, -1.080728776057035 
2.2000000000002182, -1.0839679974747145 
2.2100000000002393, -1.0870189258273435 
2.2200000000002604, -1.0898741831374004 
2.2300000000002815, -1.092527191239229 
2.2400000000003026, -1.0949721461087318 
2.2500000000003237, -1.097203986746597 
2.260000000000345, -1.0992183590374889 
2.270000000000366, -1.1010115750756333 
2.280000000000387, -1.1025805685320635 
2.290000000000408, -1.1039228467371056 
2.3000000000004293, -1.1050364402577242 
2.3100000000004504, -1.1059198508559827 
2.3200000000004715, -1.106571998813591 
2.3300000000004926, -1.1069921706897756 
2.3400000000005137, -1.1071799686370258 
2.3500000000005348, -1.1071352624244473 
2.360000000000556, -1.1068581453059083 
2.370000000000577, -1.1063488948164804 
2.380000000000598, -1.1056079394849532 
2.390000000000619, -1.1046358323141858 
2.4000000000006403, -1.1034332317088682 
2.4100000000006614, -1.1020008903284946 
2.4200000000006825, -1.1003396521202802 
2.4300000000007036, -1.0984504575520095 
2.4400000000007247, -1.0963343568288282 
2.450000000000746, -1.0939925306510947 
2.460000000000767, -1.091426317862482 
2.470000000000788, -1.0886372491571004 
2.480000000000809, -1.0856270858685477 
2.49000000000083, -1.0823978627570878 
2.5000000000008513, -1.07895193364631 
2.5100000000008724, -1.0752920187374404 
2.5200000000008935, -1.07142125244576 
2.5300000000009146, -1.0673432306548574 
2.5400000000009357, -1.0630620563645734 
2.550000000000957, -1.0585823828102232 
2.560000000000978, -1.0539094532460629 
2.570000000000999, -1.0490491367072468 
2.58000000000102, -1.0440079591843856 
2.5900000000010412, -1.0387931297573032 
2.6000000000010624, -1.033412561335027 
2.6100000000010835, -1.0278748857347588 
2.6200000000011046, -1.0221894629025423 
2.6300000000011257, -1.0163663841333421 
2.6400000000011468, -1.0104164691906243 
2.650000000001168, -1.004351257258581 
2.660000000001189, -0.9981829916880315 
2.67000000000121, -0.9919245985240285 
2.680000000001231, -0.9855896588333283 
2.6900000000012523, -0.9791923748865522 
2.7000000000012734, -0.9727475302953836 
2.7100000000012945, -0.9662704442607163 
2.7200000000013156, -0.9597769201531184 
2.7300000000013367, -0.9532831887208545 
2.740000000001358, -0.9468058463004495 
2.750000000001379, -0.9403617884869725 
2.7600000000014, -0.9339681398017795 
2.770000000001421, -0.9276421799701843 
2.780000000001442, -0.9214012674863093 
2.7900000000014633, -0.9152627611935678 
2.8000000000014844, -0.9092439406439309 
2.8100000000015055, -0.9033619260154289 
2.8200000000015266, -0.8976335983642878 
2.8300000000015477, -0.8920755209659667 
2.840000000001569, -0.886703862459299 
2.85000000000159, -0.8815343224521283 
2.860000000001611, -0.8765820601780767 
2.870000000001632, -0.8718616267156944 
2.8800000000016532, -0.8673869011968296 
2.8900000000016743, -0.8631710313441852 
2.9000000000016954, -0.8592263785921691 
2.9100000000017165, -0.855564467963322 
2.9200000000017377, -0.8521959427975102 
2.9300000000017588, -0.8491305243646566 
2.94000000000178, -0.8463769763356291 
2.950000000001801, -0.8439430740407802 
2.960000000001822, -0.8418355784119258 
2.970000000001843, -0.8400602144810464 
2.9800000000018643, -0.8386216542970579 
2.9900000000018854, -0.8375235041196974 
3.0000000000019065, -0.8367682957556308 
3.0100000000019276, -0.8363574819148515 
3.0200000000019487, -0.8362914354837915 
3.03000000000197, -0.8365694526336239 
3.040000000001991, -0.8371897597063417 
3.050000000002012, -0.8381495238457399 
3.060000000002033, -0.8394448673638492 
3.070000000002054, -0.8410708858540851 
3.0800000000020753, -0.8430216700791352 
3.0900000000020964, -0.8452903316730369 
3.1000000000021175, -0.8478690327019489 
3.1100000000021386, -0.8507490191258907 
3.1200000000021597, -0.8539206581934357 
3.130000000002181, -0.8573734797825684 
3.140000000002202, -0.8610962216734134 
3.150000000002223, -0.865076878702383 
3.160000000002244, -0.869302755702887 
3.1700000000022652, -0.8737605240858243 
3.1800000000022863, -0.8784362818547178 
3.1900000000023074, -0.883315616786967 
3.2000000000023285, -0.8883836724460122 
3.2100000000023496, -0.8936252166212294 
3.2200000000023707, -0.8990247117252811 
3.230000000002392, -0.9045663866147257 
3.240000000002413, -0.9102343092412765 
3.250000000002434, -0.9160124594904021 
3.260000000002455, -0.9218848015229415 
3.2700000000024763, -0.9278353549058505 
3.2800000000024974, -0.9338482638012952 
3.2900000000025185, -0.9399078634800377 
3.3000000000025396, -0.9459987434357304 
3.3100000000025607, -0.9521058064013623 
3.3200000000025818, -0.9582143226071603 
3.330000000002603, -0.964309978670127 
3.340000000002624, -0.9703789205679565 
3.350000000002645, -0.9764077902234559 
3.360000000002666, -0.9823837553086544 
3.3700000000026873, -0.9882945319696849 
3.3800000000027084, -0.9941284002734737 
3.3900000000027295, -0.9998742122846647 
3.4000000000027506, -1.005521392795566 
3.4100000000027717, -1.011059932852703 
3.420000000002793, -1.0164803763501626 
3.430000000002814, -1.0217738000913308 
3.440000000002835, -1.0269317878554278 
3.450000000002856, -1.031946399141323 
3.460000000002877, -1.0368101333955198 
3.4700000000028983, -1.0415158906604087 
3.4800000000029194, -1.04605692969818 
3.4900000000029405, -1.050426824750253 
3.5000000000029616, -1.0546194221758955 
3.5100000000029827, -1.058628798271185 
3.520000000003004, -1.0624492195949673 
3.530000000003025, -1.0660751071169547 
3.540000000003046, -1.0695010054506011 
3.550000000003067, -1.0727215583373328 
3.5600000000030882, -1.0757314914083527 
3.5700000000031094, -1.078525603066995 
3.5800000000031305, -1.0810987641121586 
3.5900000000031516, -1.0834459264679022 
3.6000000000031727, -1.0855621411042569 
3.6100000000031938, -1.087442584940326 
3.620000000003215, -1.0890825962250545 
3.630000000003236, -1.0904777176069587 
3.640000000003257, -1.0916237458454265 
3.650000000003278, -1.092516786895999 
3.6600000000032993, -1.0931533149322168 
3.6700000000033204, -1.0935302337565647 
3.6800000000033415, -1.0936449390091731 
3.6900000000033626, -1.093495379607763 
3.7000000000033837, -1.0930801169443642 
3.710000000003405, -1.092398380517786 
3.720000000003426, -1.0914501188860428 
3.730000000003447, -1.0902360450667865 
3.740000000003468, -1.0887576757808906 
3.750000000003489, -1.0870173642077012 
3.7600000000035103, -1.0850183261832123 
3.7700000000035314, -1.0827646600086294 
3.7800000000035525, -1.080261360232733 
3.7900000000035736, -1.0775143259167372 
3.8000000000035947, -1.0745303639781052 
3.810000000003616, -1.0713171882375232 
3.820000000003637, -1.0678834147624556 
3.830000000003658, -1.0642385540168617 
3.840000000003679, -1.060393000198512 
3.8500000000037002, -1.0563580179843368 
3.8600000000037213, -1.0521457267235774 
3.8700000000037424, -1.0477690819323289 
3.8800000000037635, -1.0432418537654728 
3.8900000000037847, -1.0385786019863839 
3.9000000000038058, -1.033794646832739 
3.910000000003827, -1.0289060350978994 
3.920000000003848, -1.0239295007182672 
3.930000000003869, -1.0188824191814885 
3.94000000000389, -1.0137827551486913 
3.9500000000039113, -1.008649002813272 
3.9600000000039324, -1.0035001186930468 
3.9700000000039535, -0.9983554467632182 
3.9800000000039746, -0.9932346360736449 
3.9900000000039957, -0.9881575512430208 
4.000000000004016, -0.9831441764715835 
4.010000000003993, -0.9782145139498838 
4.02000000000397, -0.9733884777518137 
4.030000000003946, -0.9686857844750074 
4.040000000003923, -0.9641258420226517 
4.0500000000039, -0.959727638002164 
4.0600000000038765, -0.955509629245433 
4.070000000003853, -0.9514896339327785 
4.08000000000383, -0.9476847277315082 
4.090000000003807, -0.9441111452454206 
4.100000000003783, -0.9407841879212594 
4.11000000000376, -0.9377181393804778 
4.120000000003737, -0.9349261889492769 
4.130000000003713, -0.932420363955956 
4.14000000000369, -0.9302114711612929 
4.150000000003667, -0.9283090474929769 
4.1600000000036434, -0.9267213200759911 
4.17000000000362, -0.9254551753927511 
4.180000000003597, -0.9245161372738359 
4.1900000000035735, -0.9239083533147855 
4.20000000000355, -0.9236345892378347 
4.210000000003527, -0.9236962306695196 
4.220000000003504, -0.9240932917845118 
4.23000000000348, -0.9248244302706888 
4.240000000003457, -0.9258869680972747 
4.250000000003434, -0.927276917613334 
4.26000000000341, -0.9289890125637716 
4.270000000003387, -0.9310167436798127 
4.280000000003364, -0.9333523985759583 
4.2900000000033405, -0.9359871057606574 
4.300000000003317, -0.938910882638603 
4.310000000003294, -0.9421126874438402 
4.320000000003271, -0.9455804750904605 
4.330000000003247, -0.9493012569576482 
4.340000000003224, -0.953261164635286 
4.350000000003201, -0.9574455176430535 
4.360000000003177, -0.9618388950992044 
4.370000000003154, -0.9664252112553531 
4.380000000003131, -0.9711877947326564 
4.390000000003107, -0.9761094711960121 
4.400000000003084, -0.9811726490910724 
4.410000000003061, -0.9863594079497899 
4.4200000000030375, -0.9916515886505124 
4.430000000003014, -0.997030884905375 
4.440000000002991, -1.0024789351478292 
4.450000000002968, -1.007977413912962 
4.460000000002944, -1.0135081217480628 
4.470000000002921, -1.0190530726644609 
4.480000000002898, -1.0245945781459915 
4.490000000002874, -1.030115326764519 
4.500000000002851, -1.0355984585169373 
4.510000000002828, -1.0410276330872719 
4.520000000002804, -1.0463870913469588 
4.530000000002781, -1.0516617095302203 
4.540000000002758, -1.0568370456533203 
4.5500000000027345, -1.06189937788048 
4.560000000002711, -1.0668357346699937 
4.570000000002688, -1.0716339166575213 
4.580000000002665, -1.0762825103469653 
4.590000000002641, -1.0807708937816585 
4.600000000002618, -1.0850892344601233 
4.610000000002595, -1.0892284798430667 
4.620000000002571, -1.0931803408739544 
4.630000000002548, -1.0969372690073782 
4.640000000002525, -1.1004924273102745 
4.6500000000025015, -1.1038396562729411 
4.660000000002478, -1.1069734350410143 
4.670000000002455, -1.1098888388557964 
4.6800000000024315, -1.112581493567053 
4.690000000002408, -1.1150475281564607 
4.700000000002385, -1.117283526276932 
4.710000000002362, -1.1192864778679124 
4.720000000002338, -1.1210537319435423 
4.730000000002315, -1.122582951663818 
4.740000000002292, -1.1238720727834353 
4.750000000002268, -1.1249192665250276 
4.760000000002245, -1.125722907840784 
4.770000000002222, -1.126281549908613 
4.7800000000021985, -1.1265939055579905 
4.790000000002175, -1.1266588361403629 
4.800000000002152, -1.1264753481555878 
4.810000000002129, -1.1260425977271127 
4.820000000002105, -1.1253599027935242 
4.830000000002082, -1.1244267626625875 
4.840000000002059, -1.1232428843658382 
4.850000000002035, -1.1218082150665836 
4.860000000002012, -1.120122979620016 
4.870000000001989, -1.1181877222673908 
4.880000000001965, -1.1160033513710952 
4.890000000001942, -1.1135711860654685 
4.900000000001919, -1.1108930037084037 
4.9100000000018955, -1.107971087067312 
4.920000000001872, -1.1048082702541024 
4.930000000001849, -1.1014079825294607 
