t, s[1].omega / s[0].omega 
0, -1.5999909236707033 
0.009999999999999995, -1.598839854828284 
0.019999999999999934, -1.597164878217397 
0.029999999999999874, -1.5949129706210132 
0.04000000000000012, -1.5920928202852385 
0.050000000000000405, -1.588898805177523 
0.06000000000000069, -1.5858630204382744 
0.07000000000000098, -1.5837339573810014 
0.08000000000000126, -1.582858913469321 
0.09000000000000155, -1.5828362158562066 
0.10000000000000184, -1.5830322978342939 
0.11000000000000212, -1.5830696354527656 
0.12000000000000241, -1.582797135548653 
0.130000000000002, -1.5821025879679396 
0.1400000000000009, -1.5807804621124086 
0.1499999999999998, -1.578480570883042 
0.1599999999999987, -1.574929729837276 
0.1699999999999976, -1.5710525653613276 
0.1799999999999965, -1.5707891146305681 
0.1899999999999954, -1.5787415880814872 
0.1999999999999943, -1.592866230631973 
0.2099999999999932, -1.6064587625684414 
0.2199999999999921, -1.6159880833502154 
0.229999999999991, -1.6216289450853467 
0.2399999999999899, -1.624633239974327 
0.2499999999999888, -1.6260563371405752 
0.2599999999999877, -1.626560509258623 
0.2699999999999866, -1.626520884883608 
0.2799999999999855, -1.6261545843041378 
0.2899999999999844, -1.6256203536117764 
0.2999999999999833, -1.6250735661727969 
0.3099999999999822, -1.6246521512555856 
0.3199999999999811, -1.6244230465461222 
0.32999999999998, -1.6243751902481491 
0.3399999999999789, -1.62444919644197 
0.3499999999999778, -1.6245455590277698 
0.35999999999997667, -1.6245381790180513 
0.36999999999997557, -1.6242976514208671 
0.37999999999997447, -1.6236816172359543 
0.38999999999997337, -1.6224884514128601 
0.39999999999997227, -1.6203963477230776 
0.40999999999997117, -1.6169082057298882 
0.41999999999997006, -1.6113544796605161 
0.42999999999996896, -1.6031307983231227 
0.43999999999996786, -1.592538261781407 
0.44999999999996676, -1.5820988462807284 
0.45999999999996566, -1.5757973107313956 
0.46999999999996456, -1.5747344463028825 
0.47999999999996346, -1.576224756079478 
0.48999999999996235, -1.577808029304139 
0.49999999999996125, -1.578735920663746 
0.5099999999999602, -1.5790513465724225 
0.519999999999959, -1.5789040478741634 
0.529999999999958, -1.5783749074919355 
0.5399999999999568, -1.5775078811648924 
0.5499999999999557, -1.5764778217139341 
0.5599999999999546, -1.5758955083082706 
0.5699999999999535, -1.5768282676564893 
0.5799999999999524, -1.5798410504783003 
0.5899999999999513, -1.5841405500625696 
0.5999999999999502, -1.588409520044701 
0.6099999999999491, -1.5918718097971516 
0.619999999999948, -1.5943509221656174 
0.6299999999999469, -1.5959445393966092 
0.6399999999999458, -1.5968155392647756 
0.6499999999999447, -1.597115119910101 
0.6599999999999436, -1.5969640035400754 
0.6699999999999425, -1.5964547714201762 
0.6799999999999414, -1.5956648489835383 
0.6899999999999403, -1.594675002530223 
0.6999999999999392, -1.5935856862357844 
0.7099999999999381, -1.5925293764706105 
0.719999999999937, -1.5916711527677434 
0.7299999999999359, -1.5911460668483488 
0.7399999999999348, -1.5909394320044803 
0.7499999999999337, -1.5908747660974742 
0.7599999999999326, -1.5907389200065247 
0.7699999999999315, -1.5903546444137862 
0.7799999999999304, -1.5895299881762808 
0.7899999999999293, -1.5879376003571906 
0.7999999999999282, -1.584939146765433 
0.8099999999999271, -1.5793655773696815 
0.819999999999926, -1.5695301255660086 
0.8299999999999249, -1.5546012790707975 
0.8399999999999238, -1.5385039959701228 
0.8499999999999227, -1.530578308869459 
0.8599999999999216, -1.534307317606564 
0.8699999999999205, -1.5426319606540253 
0.8799999999999194, -1.5492911458897842 
0.8899999999999183, -1.5531430655328626 
0.8999999999999172, -1.5550290709179133 
0.9099999999999161, -1.555783972423933 
0.919999999999915, -1.5558952379008826 
0.9299999999999139, -1.5556109320935145 
0.9399999999999128, -1.5550823653493755 
0.9499999999999117, -1.5544996494071674 
0.9599999999999106, -1.5541897068612338 
0.9699999999999095, -1.554519345357884 
0.9799999999999084, -1.5555781519875667 
0.9899999999999073, -1.5570710660830984 
0.9999999999999062, -1.5585984367605943 
1.0099999999999052, -1.559896217497841 
1.019999999999904, -1.5608482848129186 
1.029999999999903, -1.5614193062917185 
1.039999999999902, -1.5616056596807684 
1.0499999999999008, -1.561411225511906 
1.0599999999998997, -1.560837598681254 
1.0699999999998986, -1.5598826237663659 
1.0799999999998975, -1.558546151404423 
1.0899999999998964, -1.5568466573427167 
1.0999999999998953, -1.554857296763095 
1.1099999999998942, -1.5527675987123966 
1.119999999999893, -1.5509247818583445 
1.129999999999892, -1.5497054279989813 
1.1399999999998909, -1.5492054752915894 
1.1499999999998898, -1.5491490840008875 
1.1599999999998887, -1.549168029481514 
1.1699999999998876, -1.549018184433981 
1.1799999999998865, -1.548547475246675 
1.1899999999998854, -1.547569025795767 
1.1999999999998843, -1.5457237679420006 
1.2099999999998832, -1.542335467054992 
1.219999999999882, -1.5364184291186356 
1.229999999999881, -1.5276257688735504 
1.2399999999998799, -1.5192480075571193 
1.2499999999998788, -1.5193226458336162 
1.2599999999998777, -1.531066638753697 
1.2699999999998766, -1.5467305276983505 
1.2799999999998755, -1.5587507903772724 
1.2899999999998744, -1.5658360170797925 
1.2999999999998733, -1.5694840452302956 
1.3099999999998722, -1.5711743753023049 
1.319999999999871, -1.571803503832911 
1.32999999999987, -1.5718402347769571 
1.3399999999998689, -1.5715300511678107 
1.3499999999998678, -1.5710433589219184 
1.3599999999998666, -1.5705742620269116 
1.3699999999998655, -1.57034892390941 
1.3799999999998644, -1.5705051072677316 
1.3899999999998633, -1.5709869039529987 
1.3999999999998622, -1.571616522201341 
1.4099999999998611, -1.5722219209241115 
1.41999999999986, -1.5726788921612518 
1.429999999999859, -1.5729004076105042 
1.4399999999998578, -1.5728198506967699 
1.4499999999998567, -1.5723742036158181 
1.4599999999998556, -1.5714902047740549 
1.4699999999998545, -1.5700777927200833 
1.4799999999998534, -1.5680333179023684 
1.4899999999998523, -1.5652615494302213 
1.4999999999998512, -1.5617453861787862 
1.5099999999998501, -1.5577080503721807 
1.519999999999849, -1.553816437869345 
1.529999999999848, -1.5510425742621643 
1.5399999999998468, -1.5498765439951376 
1.5499999999998457, -1.5498445980659492 
1.5599999999998446, -1.550149014094091 
1.5699999999998435, -1.550315456192951 
1.5799999999998424, -1.550178983507022 
1.5899999999998413, -1.5496619521232333 
1.5999999999998402, -1.5486300436264724 
1.6099999999998391, -1.5468366383139653 
1.619999999999838, -1.5440440290701285 
1.629999999999837, -1.5407268370186418 
1.6399999999998358, -1.5395452445449862 
1.6499999999998347, -1.544796077058871 
1.6599999999998336, -1.5568185852721752 
1.6699999999998325, -1.570387563825181 
1.6799999999998314, -1.5810514253228682 
1.6899999999998303, -1.5879132445972466 
1.6999999999998292, -1.5918353341029856 
1.709999999999828, -1.5938629481795492 
1.719999999999827, -1.5947487584759985 
1.729999999999826, -1.594951355271006 
1.7399999999998248, -1.5947365843287469 
1.7499999999998237, -1.594275276126032 
1.7599999999998226, -1.5937153913851008 
1.7699999999998215, -1.5932059574893347 
1.7799999999998204, -1.5928593986420987 
1.7899999999998193, -1.5927098568410145 
1.7999999999998182, -1.59272587116099 
1.809999999999817, -1.5928332690801845 
1.819999999999816, -1.592922239860431 
1.8299999999998149, -1.59286822186455 
1.8399999999998138, -1.5925472005644512 
1.8499999999998127, -1.591815683786193 
1.8599999999998116, -1.5904664929460943 
1.8699999999998105, -1.5881817904658457 
1.8799999999998094, -1.5845040152502645 
1.8899999999998083, -1.5788788433319476 
1.8999999999998072, -1.570926105951766 
1.909999999999806, -1.5611895973481857 
1.919999999999805, -1.552043287334552 
1.9299999999998039, -1.5466718224021745 
1.9399999999998028, -1.5456820375926237 
1.9499999999998017, -1.5468199259318516 
1.9599999999998006, -1.5480874092142363 
1.9699999999997995, -1.5488321949506267 
1.9799999999997984, -1.5490502966962385 
1.9899999999997973, -1.5488401850685853 
1.9999999999997962, -1.548244610508584 
2.0099999999998173, -1.5472692957118066 
2.0199999999998384, -1.5460456774034124 
2.0299999999998595, -1.5451963108538496 
2.0399999999998806, -1.5460323312512125 
2.0499999999999017, -1.5495641112687615 
2.059999999999923, -1.5550792456417288 
2.069999999999944, -1.560815902917358 
2.079999999999965, -1.5655651018020427 
2.089999999999986, -1.5689974254335217 
2.100000000000007, -1.5712388386555358 
2.1100000000000283, -1.5725367145257436 
2.1200000000000494, -1.5731254105819104 
2.1300000000000705, -1.5731903482982772 
2.1400000000000916, -1.5728687773803203 
2.1500000000001127, -1.5722665005923537 
2.160000000000134, -1.5714810541540478 
2.170000000000155, -1.570617785757051 
2.180000000000176, -1.5697895653057532 
2.190000000000197, -1.5691092909367383 
2.2000000000002182, -1.568667961741828 
2.2100000000002393, -1.5684738020701654 
2.2200000000002604, -1.568415756311853 
2.2300000000002815, -1.5683220532932698 
2.2400000000003026, -1.568029076468151 
2.2500000000003237, -1.5673694287951094 
2.260000000000345, -1.5660932676173065 
2.270000000000366, -1.5637502506918068 
2.280000000000387, -1.5595406199252646 
2.290000000000408, -1.5522211916678668 
2.3000000000004293, -1.5404693133263885 
2.3100000000004504, -1.524592969108416 
2.3200000000004715, -1.5092202808601778 
2.3300000000004926, -1.501337300818522 
2.3400000000005137, -1.5019883323195042 
2.3500000000005348, -1.5060155690495205 
2.360000000000556, -1.5094938908846678 
2.370000000000577, -1.5115577230043398 
2.380000000000598, -1.5125300886516686 
2.390000000000619, -1.5128083933120056 
2.4000000000006403, -1.5126324715068669 
2.4100000000006614, -1.5121230277057172 
2.4200000000006825, -1.511383378444273 
2.4300000000007036, -1.5106587067680448 
2.4400000000007247, -1.5104868051352627 
2.450000000000746, -1.5115139340147652 
2.460000000000767, -1.5138722542075906 
2.470000000000788, -1.516960056144713 
2.480000000000809, -1.5200080053333982 
2.49000000000083, -1.5225566870177802 
2.5000000000008513, -1.5244610846200026 
2.5100000000008724, -1.5257365812437986 
2.5200000000008935, -1.526453544226363 
2.5300000000009146, -1.5266916981633938 
2.5400000000009357, -1.5265243870976755 
2.550000000000957, -1.5260156268654979 
2.560000000000978, -1.5252251702719937 
2.570000000000999, -1.5242200295702029 
2.58000000000102, -1.5230879073082284 
2.5900000000010412, -1.5219481349186461 
2.6000000000010624, -1.5209549565680966 
2.6100000000010835, -1.5202611219287063 
2.6200000000011046, -1.5199180602830347 
2.6300000000011257, -1.5198134338707223 
2.6400000000011468, -1.5197471286102124 
2.650000000001168, -1.5195363508386868 
2.660000000001189, -1.5190233381578886 
2.67000000000121, -1.518002224443391 
2.680000000001231, -1.5161058268005796 
2.6900000000012523, -1.5126535173007336 
2.7000000000012734, -1.5064951385365775 
2.7100000000012945, -1.4961261568354018 
2.7200000000013156, -1.480892913100726 
2.7300000000013367, -1.4638355796644962 
2.740000000001358, -1.4523184580873423 
2.750000000001379, -1.4506893103605054 
2.7600000000014, -1.455109204553692 
2.770000000001421, -1.460059064232672 
2.780000000001442, -1.4633995365928008 
2.7900000000014633, -1.4652038466161612 
2.8000000000014844, -1.4659965972374382 
2.8100000000015055, -1.4661661829416472 
2.8200000000015266, -1.4659224918882334 
2.8300000000015477, -1.4653727138095323 
2.840000000001569, -1.4646279297520282 
2.85000000000159, -1.4639563990299087 
2.860000000001611, -1.4639035556334377 
2.870000000001632, -1.465078270325556 
2.8800000000016532, -1.4675776363068622 
2.8900000000016743, -1.4708168281382086 
2.9000000000016954, -1.4740477770414258 
2.9100000000017165, -1.4768010035635795 
2.9200000000017377, -1.4789087777690337 
2.9300000000017588, -1.4803704128662445 
2.94000000000178, -1.4812508684233496 
2.950000000001801, -1.4816327822980466 
2.960000000001822, -1.4815974282865507 
2.970000000001843, -1.481218566277748 
2.9800000000018643, -1.4805645641672036 
2.9900000000018854, -1.4797074893199158 
3.0000000000019065, -1.478733812521822 
3.0100000000019276, -1.477748782069064 
3.0200000000019487, -1.476872716526912 
3.03000000000197, -1.4762227676987447 
3.040000000001991, -1.4758596285073724 
3.050000000002012, -1.4757293172654358 
3.060000000002033, -1.4756825335481065 
3.070000000002054, -1.475553452452147 
3.0800000000020753, -1.475196346838196 
3.0900000000020964, -1.4744520235542544 
3.1000000000021175, -1.4730765863777775 
3.1100000000021386, -1.47065244549569 
3.1200000000021597, -1.4664971501218074 
3.130000000002181, -1.4596473884405194 
3.140000000002202, -1.449160716575086 
3.150000000002223, -1.4351478799489439 
3.160000000002244, -1.4203462488152627 
3.1700000000022652, -1.4097280533900758 
3.1800000000022863, -1.4060515262643212 
3.1900000000023074, -1.4071847508072404 
3.2000000000023285, -1.4095992501655967 
3.2100000000023496, -1.4115063406465411 
3.2200000000023707, -1.4125967961908779 
3.230000000002392, -1.4130379057676896 
3.240000000002413, -1.4130109128605777 
3.250000000002434, -1.4126100612524009 
3.260000000002455, -1.4118596216959163 
3.2700000000024763, -1.4107918902263714 
3.2800000000024974, -1.4096397476554203 
3.2900000000025185, -1.4091509642126634 
3.3000000000025396, -1.4106099811794621 
3.3100000000025607, -1.414889163272364 
3.3200000000025818, -1.4213348156008707 
3.330000000002603, -1.428267797534072 
3.340000000002624, -1.4343263677878244 
3.350000000002645, -1.4389574925423425 
3.360000000002666, -1.442165674237136 
3.3700000000026873, -1.4441873186263803 
3.3800000000027084, -1.445305111220915 
3.3900000000027295, -1.4457686684890505 
3.4000000000027506, -1.4457708647406453 
3.4100000000027717, -1.4454540780770455 
3.420000000002793, -1.4449328940393684 
3.430000000002814, -1.4443195702031688 
3.440000000002835, -1.4437321711291415 
3.450000000002856, -1.4432730522989439 
3.460000000002877, -1.4429992060703292 
3.4700000000028983, -1.4429141431514456 
3.4800000000029194, -1.4429721334455818 
3.4900000000029405, -1.443084221632438 
3.5000000000029616, -1.4431390275505411 
3.5100000000029827, -1.4430273204175403 
3.520000000003004, -1.4426447996506189 
3.530000000003025, -1.4418743815419703 
3.540000000003046, -1.4405664006017087 
3.550000000003067, -1.4385307859225316 
3.5600000000030882, -1.4355496985900411 
3.5700000000031094, -1.4314225781762138 
3.5800000000031305, -1.426071998241995 
3.5900000000031516, -1.419751277051915 
3.6000000000031727, -1.4133033571338716 
3.6100000000031938, -1.4080978311353232 
3.620000000003215, -1.4051913387852557 
3.630000000003236, -1.404411181403374 
3.640000000003257, -1.404713968667216 
3.650000000003278, -1.4052042949212757 
3.6600000000032993, -1.4054837341215103 
3.6700000000033204, -1.4054478132052477 
3.6800000000033415, -1.4050612240255387 
3.6900000000033626, -1.4042417678094066 
3.7000000000033837, -1.4028061850650144 
3.710000000003405, -1.4004755948778775 
3.720000000003426, -1.3970978633303441 
3.730000000003447, -1.393456396410212 
3.740000000003468, -1.39251706718284 
3.750000000003489, -1.3985091964384102 
3.7600000000035103, -1.411954348061273 
3.7700000000035314, -1.4278561891655737 
3.7800000000035525, -1.441067177961473 
3.7900000000035736, -1.4499300537634978 
3.8000000000035947, -1.4551500950555718 
3.810000000003616, -1.457953463609247 
3.820000000003637, -1.459304923518814 
3.830000000003658, -1.459807550419034 
3.840000000003679, -1.4598041167501248 
3.8500000000037002, -1.4594925804996746 
3.8600000000037213, -1.4590198288506375 
3.8700000000037424, -1.458549298909205 
3.8800000000037635, -1.458271515064152 
3.8900000000037847, -1.4583272507509675 
3.9000000000038058, -1.4587171245183834 
3.910000000003827, -1.4593181029609512 
3.920000000003848, -1.4599744291694163 
3.930000000003869, -1.4605551523074074 
3.94000000000389, -1.4609639387113416 
3.9500000000039113, -1.4611324777158574 
3.9600000000039324, -1.4610101405809992 
3.9700000000039535, -1.4605540193045605 
3.9800000000039746, -1.459723285041102 
3.9900000000039957, -1.4584789549629529 
4.000000000004016, -1.456789298456734 
4.010000000003993, -1.4546447063172416 
4.02000000000397, -1.4520915412237894 
4.030000000003946, -1.449294360430264 
4.040000000003923, -1.4466014799326743 
4.0500000000039, -1.4444941224570473 
4.0600000000038765, -1.4433021283349898 
4.070000000003853, -1.442924125390121 
4.08000000000383, -1.44295222210028 
4.090000000003807, -1.4430113149442678 
4.100000000003783, -1.4428892708080598 
4.11000000000376, -1.4424613955801677 
4.120000000003737, -1.4415738981253718 
4.130000000003713, -1.4399326612298267 
4.14000000000369, -1.4369790401967786 
4.150000000003667, -1.4318070208371956 
4.1600000000036434, -1.4234975735952067 
4.17000000000362, -1.4127690292060484 
4.180000000003597, -1.4045884815673295 
4.1900000000035735, -1.4059776411542768 
4.20000000000355, -1.4170142461415345 
4.210000000003527, -1.4303240716087753 
4.220000000003504, -1.4403718632921565 
4.23000000000348, -1.4463873238301308 
4.240000000003457, -1.4495610231973042 
4.250000000003434, -1.451067236126629 
4.26000000000341, -1.4516379819343033 
4.270000000003387, -1.4516643742930397 
4.280000000003364, -1.451349690837629 
4.2900000000033405, -1.4508311648134364 
4.300000000003317, -1.4502865805573908 
4.310000000003294, -1.4500038663554626 
4.320000000003271, -1.450305242973844 
4.330000000003247, -1.4513089707929174 
4.340000000003224, -1.4528113395290576 
4.350000000003201, -1.454462050700743 
4.360000000003177, -1.4559796386981734 
4.370000000003154, -1.45720985514495 
4.380000000003131, -1.4580892513223866 
4.390000000003107, -1.458601967759391 
4.400000000003084, -1.458753411443961 
4.410000000003061, -1.4585575078384503 
4.4200000000030375, -1.458032003477138 
4.430000000003014, -1.4571989245517498 
4.440000000002991, -1.45608999033284 
4.450000000002968, -1.4547576302552934 
4.460000000002944, -1.4532911172007048 
4.470000000002921, -1.4518344370316902 
4.480000000002898, -1.4505860142453952 
4.490000000002874, -1.449732241703581 
4.500000000002851, -1.44931883597791 
4.510000000002828, -1.4492021012832663 
4.520000000002804, -1.449156752292585 
4.530000000002781, -1.4489927054588452 
4.540000000002758, -1.4485627548083784 
4.5500000000027345, -1.4476943242346854 
4.560000000002711, -1.446091819339291 
4.570000000002688, -1.4432107768521825 
4.580000000002665, -1.4381141315698969 
4.590000000002641, -1.4294594061754489 
4.600000000002618, -1.4161230946802834 
4.610000000002595, -1.3991496735378748 
4.620000000002571, -1.3837182606788292 
4.630000000002548, -1.3761129088246145 
4.640000000002525, -1.3768453947031507 
4.6500000000025015, -1.3811663905883291 
4.660000000002478, -1.3851972441006328 
4.670000000002455, -1.3878112938479403 
4.6800000000024315, -1.38920804893818 
4.690000000002408, -1.3897945191302745 
4.700000000002385, -1.3898553525621495 
4.710000000002362, -1.3895382226262523 
4.720000000002338, -1.3889092578387388 
4.730000000002315, -1.3880403165287478 
4.740000000002292, -1.3871652899777038 
4.750000000002268, -1.3868798118485313 
4.760000000002245, -1.3880822078870076 
4.770000000002222, -1.3913144679683205 
4.7800000000021985, -1.396117471107608 
4.790000000002175, -1.4013793747763024 
4.800000000002152, -1.4061516986891962 
4.810000000002129, -1.4099768838588393 
4.820000000002105, -1.4127699366220785 
4.830000000002082, -1.4146298775220438 
4.840000000002059, -1.41572096201968 
4.850000000002035, -1.4162133455062116 
4.860000000002012, -1.4162560765390544 
4.870000000001989, -1.4159702823723623 
4.880000000001965, -1.4154578282181283 
4.890000000001942, -1.4148182305725183 
4.900000000001919, -1.4141590686381391 
4.9100000000018955, -1.4135851763249245 
4.920000000001872, -1.413173395225592 
4.930000000001849, -1.4129562211758298 
4.940000000001826, -1.4129162192322142 
