t, s[1].omega / s[0].omega 
0, -0.7599976681650595 
0.009999999999999995, -0.7597416386767555 
0.019999999999999934, -0.7594375639837214 
0.029999999999999874, -0.7590792338815502 
0.04000000000000012, -0.7586621077358735 
0.050000000000000405, -0.7581881195427707 
0.06000000000000069, -0.7576682599325482 
0.07000000000000098, -0.7571233459116862 
0.08000000000000126, -0.7565845376289853 
0.09000000000000155, -0.7560945385752247 
0.10000000000000184, -0.7557090328536886 
0.11000000000000212, -0.7554968686790422 
0.12000000000000241, -0.7555373720270554 
0.130000000000002, -0.7559141104362757 
0.1400000000000009, -0.7567060125314676 
0.1499999999999998, -0.75797793133288 
0.1599999999999987, -0.7597724242167834 
0.1699999999999976, -0.7621026024534419 
0.1799999999999965, -0.7649436993762697 
0.1899999999999954, -0.7682208035311938 
0.1999999999999943, -0.7717943718910647 
0.2099999999999932, -0.7754541285703928 
0.2199999999999921, -0.7789395795638038 
0.229999999999991, -0.7819968927281162 
0.2399999999999899, -0.784451090237595 
0.2499999999999888, -0.7862479886774753 
0.2599999999999877, -0.7874399691545658 
0.2699999999999866, -0.7881352704815112 
0.2799999999999855, -0.7884485684535734 
0.2899999999999844, -0.7884728593148274 
0.2999999999999833, -0.788271090457269 
0.3099999999999822, -0.7878786526353101 
0.3199999999999811, -0.7873105309449171 
0.32999999999998, -0.7865719501775568 
0.3399999999999789, -0.7856758567166865 
0.3499999999999778, -0.7846742637574504 
0.35999999999997667, -0.7837117789960227 
0.36999999999997557, -0.7831022012095202 
0.37999999999997447, -0.7834006129235307 
0.38999999999997337, -0.7853870726856812 
0.39999999999997227, -0.7898335592112419 
0.40999999999997117, -0.797022186509445 
0.41999999999997006, -0.806308258197671 
0.42999999999996896, -0.8162416383750983 
0.43999999999996786, -0.8253000023127152 
0.44999999999996676, -0.8325748998315566 
0.45999999999996566, -0.837890838027904 
0.46999999999996456, -0.8415207248484793 
0.47999999999996346, -0.8438754717495909 
0.48999999999996235, -0.8453298567191382 
0.49999999999996125, -0.8461652999703315 
0.5099999999999602, -0.8465701617940354 
0.519999999999959, -0.8466571951520514 
0.529999999999958, -0.8464796904161368 
0.5399999999999568, -0.8460397916976573 
0.5499999999999557, -0.845286859020322 
0.5599999999999546, -0.8441046949927783 
0.5699999999999535, -0.8422874283789585 
0.5799999999999524, -0.8395093324063536 
0.5899999999999513, -0.8353109820197115 
0.5999999999999502, -0.8291570247198082 
0.6099999999999491, -0.8206429578835349 
0.619999999999948, -0.8098506694904624 
0.6299999999999469, -0.7976243206010579 
0.6399999999999458, -0.7854143224022314 
0.6499999999999447, -0.7746794758361303 
0.6599999999999436, -0.7663124722709853 
0.6699999999999425, -0.760480714703494 
0.6799999999999414, -0.7568307116855738 
0.6899999999999403, -0.7547922168598691 
0.6999999999999392, -0.7538042855840196 
0.7099999999999381, -0.7534236028186354 
0.719999999999937, -0.7533455825861353 
0.7299999999999359, -0.753381193709678 
0.7399999999999348, -0.7534209228302061 
0.7499999999999337, -0.7534020509752695 
0.7599999999999326, -0.7532845208434715 
0.7699999999999315, -0.7530353817244688 
0.7799999999999304, -0.752620608180699 
0.7899999999999293, -0.7520039313732291 
0.7999999999999282, -0.7511530941664466 
0.8099999999999271, -0.7500524358509265 
0.819999999999926, -0.7487161476966542 
0.8299999999999249, -0.7471927310343222 
0.8399999999999238, -0.7455549276390369 
0.8499999999999227, -0.7438802439898371 
0.8599999999999216, -0.7422340822693536 
0.8699999999999205, -0.7406633366888274 
0.8799999999999194, -0.7391994572404647 
0.8899999999999183, -0.7378653210833365 
0.8999999999999172, -0.736681058617591 
0.9099999999999161, -0.7356667563011409 
0.919999999999915, -0.7348420671802225 
0.9299999999999139, -0.7342237451634595 
0.9399999999999128, -0.7338224523859206 
0.9499999999999117, -0.7336401955167716 
0.9599999999999106, -0.733669431969594 
0.9699999999999095, -0.7338942412906373 
0.9799999999999084, -0.7342931776784855 
0.9899999999999073, -0.7348428262584357 
0.9999999999999062, -0.7355208652000905 
1.0099999999999052, -0.7363075082458695 
1.019999999999904, -0.7371844021424152 
1.029999999999903, -0.7381305046377186 
1.039999999999902, -0.7391156887845287 
1.0499999999999008, -0.7400950575727478 
1.0599999999998997, -0.7410089465020935 
1.0699999999998986, -0.7417923319170076 
1.0799999999998975, -0.7423911798466616 
1.0899999999998964, -0.7427765518304097 
1.0999999999998953, -0.742947955351059 
1.1099999999998942, -0.742925864723423 
1.119999999999893, -0.7427404748154208 
1.129999999999892, -0.7424237164384405 
1.1399999999998909, -0.7420076249954668 
1.1499999999998898, -0.7415294029918194 
1.1599999999998887, -0.7410431828301113 
1.1699999999998876, -0.7406390926789662 
1.1799999999998865, -0.7404698328180668 
1.1899999999998854, -0.7407818668140445 
1.1999999999998843, -0.7419411952294246 
1.2099999999998832, -0.7444325270430046 
1.219999999999882, -0.7487988521045252 
1.229999999999881, -0.755486383309971 
1.2399999999998799, -0.7645910765183894 
1.2499999999998788, -0.7755975292258694 
1.2599999999998777, -0.7873299507235322 
1.2699999999998766, -0.7983115367220518 
1.2799999999998755, -0.807384314876489 
1.2899999999998744, -0.8141098321746367 
1.2999999999998733, -0.8186871190260057 
1.3099999999998722, -0.8216080864012305 
1.319999999999871, -0.823372437103284 
1.32999999999987, -0.8243655194245221 
1.3399999999998689, -0.824844823603115 
1.3499999999998678, -0.8249653577399971 
1.3599999999998666, -0.8248072272282169 
1.3699999999998655, -0.8243935438925929 
1.3799999999998644, -0.8236968217493162 
1.3899999999998633, -0.8226342609419186 
1.3999999999998622, -0.8210523247297912 
1.4099999999998611, -0.8187023762078394 
1.41999999999986, -0.8152161767102948 
1.429999999999859, -0.8101094657767591 
1.4399999999998578, -0.8028765638925697 
1.4499999999998567, -0.793257038118427 
1.4599999999998556, -0.7816473958330078 
1.4699999999998545, -0.7693322519964881 
1.4799999999998534, -0.7580927310950177 
1.4899999999998523, -0.7493321419139336 
1.4999999999998512, -0.743493929318297 
1.5099999999998501, -0.7401803165327195 
1.519999999999849, -0.7386333423084304 
1.529999999999848, -0.7381281280447982 
1.5399999999998468, -0.7381376533915539 
1.5499999999998457, -0.7383387522818974 
1.5599999999998446, -0.7385570114711155 
1.5699999999998435, -0.7387073239322779 
1.5799999999998424, -0.7387495824139921 
1.5899999999998413, -0.7386604870236162 
1.5999999999998402, -0.7384169273263589 
1.6099999999998391, -0.7379868475225042 
1.619999999999838, -0.7373260300053741 
1.629999999999837, -0.7363820433840881 
1.6399999999998358, -0.7351078241809811 
1.6499999999998347, -0.7334840357472283 
1.6599999999998336, -0.7315406508296406 
1.6699999999998325, -0.7293618454805407 
1.6799999999998314, -0.7270663815567734 
1.6899999999998303, -0.7247747883112996 
1.6999999999998292, -0.7225836907343479 
1.709999999999828, -0.7205577291119322 
1.719999999999827, -0.7187351386587224 
1.729999999999826, -0.7171377286631097 
1.7399999999998248, -0.7157787515285318 
1.7499999999998237, -0.7146665917452297 
1.7599999999998226, -0.713804995791807 
1.7699999999998215, -0.713191575562435 
1.7799999999998204, -0.712816314250069 
1.7899999999998193, -0.7126612995519975 
1.7999999999998182, -0.7127021531884647 
1.809999999999817, -0.7129108554254244 
1.819999999999816, -0.7132591520430864 
1.8299999999998149, -0.7137216203757002 
1.8399999999998138, -0.7142776328973764 
1.8499999999998127, -0.7149116017712065 
1.8599999999998116, -0.715610902567084 
1.8699999999998105, -0.7163611235855847 
1.8799999999998094, -0.7171394424360371 
1.8899999999998083, -0.7179090956181482 
1.8999999999998072, -0.7186195569279966 
1.909999999999806, -0.7192153756965849 
1.919999999999805, -0.7196507678004161 
1.9299999999998039, -0.7199015880156565 
1.9399999999998028, -0.719967768856325 
1.9499999999998017, -0.7198668410762095 
1.9599999999998006, -0.7196247854670825 
1.9699999999997995, -0.7192700503372744 
1.9799999999997984, -0.7188332896040914 
1.9899999999997973, -0.7183532657577433 
1.9999999999997962, -0.7178891830570256 
2.0099999999998173, -0.7175401516097615 
2.0199999999998384, -0.7174718907289813 
2.0299999999998595, -0.7179476058546471 
2.0399999999998806, -0.7193527958757779 
2.0499999999999017, -0.722191974677116 
2.059999999999923, -0.7270214228010937 
2.069999999999944, -0.7342778422897298 
2.079999999999965, -0.7439992843207275 
2.089999999999986, -0.7555514781451209 
2.100000000000007, -0.7676210871777855 
2.1100000000000283, -0.7786687095040116 
2.1200000000000494, -0.7875983194547734 
2.1300000000000705, -0.7940982284433534 
2.1400000000000916, -0.7984669544123014 
2.1500000000001127, -0.8012360344680649 
2.160000000000134, -0.8029043344302907 
2.170000000000155, -0.8038421939483456 
2.180000000000176, -0.8042919394913923 
2.190000000000197, -0.8043971900753737 
2.2000000000002182, -0.8042299704199894 
2.2100000000002393, -0.8038068612107759 
2.2200000000002604, -0.8030931968524099 
2.2300000000002815, -0.801995446962685 
2.2400000000003026, -0.8003414921244968 
2.2500000000003237, -0.7978502686539313 
2.260000000000345, -0.7941019712845634 
2.270000000000366, -0.7885466106833126 
2.280000000000387, -0.7806311578072502 
2.290000000000408, -0.7701258642313963 
2.3000000000004293, -0.7575548388316397 
2.3100000000004504, -0.7443221819686945 
2.3200000000004715, -0.7321927825627903 
2.3300000000004926, -0.7224706516651138 
2.3400000000005137, -0.7155757543197006 
2.3500000000005348, -0.7112028568904468 
2.360000000000556, -0.7087186091253074 
2.370000000000577, -0.7074761401984557 
2.380000000000598, -0.7069625737137063 
2.390000000000619, -0.7068265715455125 
2.4000000000006403, -0.7068504404973049 
2.4100000000006614, -0.706908491171846 
2.4200000000006825, -0.7069303845569276 
2.4300000000007036, -0.7068745927184052 
2.4400000000007247, -0.7067113004556325 
2.450000000000746, -0.7064128244139088 
2.460000000000767, -0.7059504235408395 
2.470000000000788, -0.7052974180352184 
2.480000000000809, -0.7044381190045108 
2.49000000000083, -0.7033790613300461 
2.5000000000008513, -0.7021552052536233 
2.5100000000008724, -0.700824526576368 
2.5200000000008935, -0.6994523220305014 
2.5300000000009146, -0.6980946739714194 
2.5400000000009357, -0.6967900613484808 
2.550000000000957, -0.6955607441676716 
2.560000000000978, -0.694419603014857 
2.570000000000999, -0.693377363876536 
2.58000000000102, -0.6924474412856084 
2.5900000000010412, -0.6916479225397584 
2.6000000000010624, -0.6910012792953872 
2.6100000000010835, -0.6905325573616965 
2.6200000000011046, -0.6902667393841471 
2.6300000000011257, -0.6902260095051196 
2.6400000000011468, -0.6904276786550338 
2.650000000001168, -0.6908833410717538 
2.660000000001189, -0.6915993476257497 
2.67000000000121, -0.6925780025777905 
2.680000000001231, -0.6938181963624601 
2.6900000000012523, -0.6953136617860702 
2.7000000000012734, -0.6970470166895837 
2.7100000000012945, -0.6989789971660905 
2.7200000000013156, -0.7010358415496606 
2.7300000000013367, -0.7031033557261612 
2.740000000001358, -0.7050390607598452 
2.750000000001379, -0.7067057183478836 
2.7600000000014, -0.7080108845105151 
2.770000000001421, -0.7089271773270395 
2.780000000001442, -0.7094825443842527 
2.7900000000014633, -0.7097330731702624 
2.8000000000014844, -0.7097373882028388 
2.8100000000015055, -0.709541937359295 
2.8200000000015266, -0.7091763835208955 
2.8300000000015477, -0.7086551970264308 
2.840000000001569, -0.7079831037854871 
2.85000000000159, -0.7071648695751397 
2.860000000001611, -0.7062224977482081 
2.870000000001632, -0.7052243105694498 
2.8800000000016532, -0.7043277006254944 
2.8900000000016743, -0.7038239031987854 
2.9000000000016954, -0.7041419197481883 
2.9100000000017165, -0.7057346728308577 
2.9200000000017377, -0.7088110788557531 
2.9300000000017588, -0.7130796587776341 
2.94000000000178, -0.7178325817320941 
2.950000000001801, -0.7223738902319224 
2.960000000001822, -0.7263222985612324 
2.970000000001843, -0.7295656645341382 
2.9800000000018643, -0.7321140981659449 
2.9900000000018854, -0.734029500290478 
3.0000000000019065, -0.7354027221888447 
3.0100000000019276, -0.7363345804592911 
3.0200000000019487, -0.7369176530083198 
3.03000000000197, -0.7372246754945869 
3.040000000001991, -0.7373035917871029 
3.050000000002012, -0.7371759303917813 
3.060000000002033, -0.7368353451079914 
3.070000000002054, -0.7362446607227092 
3.0800000000020753, -0.735331926329688 
3.0900000000020964, -0.7339894683169815 
3.1000000000021175, -0.7320850125920254 
3.1100000000021386, -0.7294968923861059 
3.1200000000021597, -0.726175665086323 
3.130000000002181, -0.7222055681361986 
3.140000000002202, -0.7178156911978771 
3.150000000002223, -0.713317466918004 
3.160000000002244, -0.7090084591825645 
3.1700000000022652, -0.7051049461815684 
3.1800000000022863, -0.7017267977489252 
3.1900000000023074, -0.6989163017536894 
3.2000000000023285, -0.6966647983043668 
3.2100000000023496, -0.6949333618724476 
3.2200000000023707, -0.6936655100570194 
3.230000000002392, -0.6927948075735474 
3.240000000002413, -0.69225041222789 
3.250000000002434, -0.69196207099269 
3.260000000002455, -0.6918646102542912 
3.2700000000024763, -0.6919013127616103 
3.2800000000024974, -0.6920257461662005 
3.2900000000025185, -0.692202177445022 
3.3000000000025396, -0.6924051450980206 
3.3100000000025607, -0.6926187054912067 
3.3200000000025818, -0.6928352739003832 
3.330000000002603, -0.6930532428863234 
3.340000000002624, -0.6932725211322364 
3.350000000002645, -0.6934884667358905 
3.360000000002666, -0.6936868160457911 
3.3700000000026873, -0.6938431501381448 
3.3800000000027084, -0.6939284550448541 
3.3900000000027295, -0.6939181950236 
3.4000000000027506, -0.6937996428461086 
3.4100000000027717, -0.6935739212677334 
3.420000000002793, -0.6932536037192341 
3.430000000002814, -0.6928595172532329 
3.440000000002835, -0.6924200503102954 
3.450000000002856, -0.6919745713660694 
3.460000000002877, -0.691581298739737 
3.4700000000028983, -0.6913292969789055 
3.4800000000029194, -0.6913534856221932 
3.4900000000029405, -0.6918499609808915 
3.5000000000029616, -0.6930862638167129 
3.5100000000029827, -0.6953974589631969 
3.520000000003004, -0.6991541618770295 
3.530000000003025, -0.7046844296868178 
3.540000000003046, -0.712135365013151 
3.550000000003067, -0.7212923494647341 
3.5600000000030882, -0.7314518648149435 
3.5700000000031094, -0.7415148616608913 
3.5800000000031305, -0.7503691147069849 
3.5900000000031516, -0.7573328201214811 
3.6000000000031727, -0.7623112632195478 
3.6100000000031938, -0.7656145030957539 
3.620000000003215, -0.767679381466601 
3.630000000003236, -0.7688923071981555 
3.640000000003257, -0.7695324640649428 
3.650000000003278, -0.76977825363189 
3.6600000000032993, -0.7697303192874307 
3.6700000000033204, -0.7694305851121225 
3.6800000000033415, -0.7688715300380372 
3.6900000000033626, -0.767994718246716 
3.7000000000033837, -0.7666780524309625 
3.710000000003405, -0.7647113201178791 
3.720000000003426, -0.7617635728445611 
3.730000000003447, -0.7573612359298251 
3.740000000003468, -0.7509313225321518 
3.750000000003489, -0.7420030673055786 
3.7600000000035103, -0.7306047823492792 
3.7700000000035314, -0.717623781101972 
3.7800000000035525, -0.70466670399634 
3.7900000000035736, -0.693342927137993 
3.8000000000035947, -0.6845760932278668 
3.810000000003616, -0.6784663984571137 
3.820000000003637, -0.6745847981448914 
3.830000000003658, -0.6723275120123791 
3.840000000003679, -0.6711372523746735 
3.8500000000037002, -0.6705873169136602 
3.8600000000037213, -0.6703856872546037 
3.8700000000037424, -0.6703472545876831 
3.8800000000037635, -0.6703604907320038 
3.8900000000037847, -0.6703593003916218 
3.9000000000038058, -0.6703026955587037 
3.910000000003827, -0.6701617558093088 
3.920000000003848, -0.6699127653938612 
3.930000000003869, -0.6695358196383487 
3.94000000000389, -0.6690182510676963 
3.9500000000039113, -0.6683609165007697 
3.9600000000039324, -0.6675830233456177 
3.9700000000039535, -0.666720464909986 
3.9800000000039746, -0.6658163878082822 
3.9900000000039957, -0.6649088226061245 
4.000000000004016, -0.6640225120788934 
4.010000000003993, -0.66316840706379 
4.02000000000397, -0.6623490098452388 
4.030000000003946, -0.6615653844125022 
4.040000000003923, -0.6608226863728628 
4.0500000000039, -0.6601333423515909 
4.0600000000038765, -0.6595185347795002 
4.070000000003853, -0.6590088710619794 
4.08000000000383, -0.658644612842615 
4.090000000003807, -0.6584753577130019 
4.100000000003783, -0.658558953301217 
4.11000000000376, -0.6589596296659249 
4.120000000003737, -0.6597455738223187 
4.130000000003713, -0.6609860695893773 
4.14000000000369, -0.6627475833322006 
4.150000000003667, -0.6650867367947091 
4.1600000000036434, -0.6680364565717701 
4.17000000000362, -0.6715813589457962 
4.180000000003597, -0.6756231267312385 
4.1900000000035735, -0.6799500851923327 
4.20000000000355, -0.6842426549328087 
4.210000000003527, -0.6881431561230638 
4.220000000003504, -0.6913704658295283 
4.23000000000348, -0.6938047481564831 
4.240000000003457, -0.6954851069422189 
4.250000000003434, -0.6965414481328598 
4.26000000000341, -0.6971214676648803 
4.270000000003387, -0.6973477153080652 
4.280000000003364, -0.6973033936616917 
4.2900000000033405, -0.6970325323864992 
4.300000000003317, -0.6965431403304935 
4.310000000003294, -0.6958074654894629 
4.320000000003271, -0.6947566085581689 
4.330000000003247, -0.6932676217556545 
4.340000000003224, -0.6911414226868715 
4.350000000003201, -0.6880722107963462 
4.360000000003177, -0.6836209347149228 
4.370000000003154, -0.677241016883566 
4.380000000003131, -0.6684618626138886 
4.390000000003107, -0.6573074322741622 
4.400000000003084, -0.6447142726343776 
4.410000000003061, -0.6323718646778448 
4.4200000000030375, -0.6218817343047274 
4.430000000003014, -0.6140241878838005 
4.440000000002991, -0.6087226021142766 
4.450000000002968, -0.6054432642018125 
4.460000000002944, -0.6035693512388721 
4.470000000002921, -0.6025865059365902 
4.480000000002898, -0.6021269499068725 
4.490000000002874, -0.6019502002864512 
4.500000000002851, -0.6019076579265012 
4.510000000002828, -0.6019104305102339 
4.520000000002804, -0.6019054660941963 
4.530000000002781, -0.6018596833432988 
4.540000000002758, -0.6017505317842915 
4.5500000000027345, -0.6015616714318138 
4.560000000002711, -0.6012828647549991 
4.570000000002688, -0.6009128732790143 
4.580000000002665, -0.6004628787050733 
4.590000000002641, -0.599956766878619 
4.600000000002618, -0.5994257028826968 
4.610000000002595, -0.5988983773087709 
4.620000000002571, -0.5983919990397706 
4.630000000002548, -0.5979088940387396 
4.640000000002525, -0.5974398232840772 
4.6500000000025015, -0.5969712791308842 
4.660000000002478, -0.5964926723860562 
4.670000000002455, -0.5960007619607125 
4.6800000000024315, -0.5955012922242447 
4.690000000002408, -0.5950095635326966 
4.700000000002385, -0.594551844634647 
4.710000000002362, -0.5941688363806475 
4.720000000002338, -0.5939216912040871 
4.730000000002315, -0.5939006650820705 
4.740000000002292, -0.5942361279083295 
4.750000000002268, -0.5951109680011604 
4.760000000002245, -0.5967717257515063 
4.770000000002222, -0.5995318811496773 
4.7800000000021985, -0.6037529450667727 
4.790000000002175, -0.6097775088112595 
4.800000000002152, -0.617783377077519 
4.810000000002129, -0.627562788463896 
4.820000000002105, -0.6383449458157664 
4.830000000002082, -0.6489001188240537 
4.840000000002059, -0.6580218725890611 
4.850000000002035, -0.6650505182778526 
4.860000000002012, -0.6699906606844018 
4.870000000001989, -0.673241142457998 
4.880000000001965, -0.6752800477705942 
4.890000000001942, -0.6765000150961709 
4.900000000001919, -0.6771730330922948 
4.9100000000018955, -0.6774693745784107 
4.920000000001872, -0.6774849402011694 
