t, s[1].omega / s[0].omega 
0, -0.6299977175046882 
0.009999999999999995, -0.6297719476243738 
0.019999999999999934, -0.6295447672393537 
0.029999999999999874, -0.6293003767453086 
0.04000000000000012, -0.6290208155391747 
0.050000000000000405, -0.6286932962103335 
0.06000000000000069, -0.6283142962294617 
0.07000000000000098, -0.6278901849304783 
0.08000000000000126, -0.6274365460801751 
0.09000000000000155, -0.6269786817699762 
0.10000000000000184, -0.6265548544198796 
0.11000000000000212, -0.6262228912865847 
0.12000000000000241, -0.6260702401855365 
0.130000000000002, -0.626227120805874 
0.1400000000000009, -0.6268815449603466 
0.1499999999999998, -0.6282930451047027 
0.1599999999999987, -0.6307979415764512 
0.1699999999999976, -0.6347914614096665 
0.1799999999999965, -0.640661016252831 
0.1899999999999954, -0.6486393718744342 
0.1999999999999943, -0.6585770944772784 
0.2099999999999932, -0.669741620771396 
0.2199999999999921, -0.6808805590235877 
0.229999999999991, -0.6906847377270682 
0.2399999999999899, -0.6983585136207247 
0.2499999999999888, -0.7038133555921112 
0.2599999999999877, -0.7074261237426525 
0.2699999999999866, -0.7096992809805669 
0.2799999999999855, -0.7110627410374467 
0.2899999999999844, -0.7118207397575074 
0.2999999999999833, -0.7121663680841036 
0.3099999999999822, -0.7122102462291264 
0.3199999999999811, -0.7120027868412238 
0.32999999999998, -0.7115455931978516 
0.3399999999999789, -0.7107921884334318 
0.3499999999999778, -0.7096388858016183 
0.35999999999997667, -0.7079078728792556 
0.36999999999997557, -0.7053308728828809 
0.37999999999997447, -0.7015577421608615 
0.38999999999997337, -0.696235706390002 
0.39999999999997227, -0.6891946822312808 
0.40999999999997117, -0.6806728055176752 
0.41999999999997006, -0.6713787842363018 
0.42999999999996896, -0.6622552983388379 
0.43999999999996786, -0.6541067138854278 
0.44999999999996676, -0.6473767584062919 
0.45999999999996566, -0.6421573468749247 
0.46999999999996456, -0.6383146304957189 
0.47999999999996346, -0.6356145164338611 
0.48999999999996235, -0.6338041686731025 
0.49999999999996125, -0.6326532292769705 
0.5099999999999602, -0.6319698917004135 
0.519999999999959, -0.6316036693799891 
0.529999999999958, -0.6314417277493648 
0.5399999999999568, -0.6314024860293906 
0.5499999999999557, -0.6314286213168863 
0.5599999999999546, -0.6314808274104006 
0.5699999999999535, -0.6315331835314985 
0.5799999999999524, -0.6315704906019021 
0.5899999999999513, -0.6315872225894206 
0.5999999999999502, -0.6315867970990463 
0.6099999999999491, -0.6315792210438497 
0.619999999999948, -0.6315758066742234 
0.6299999999999469, -0.6315819032192834 
0.6399999999999458, -0.6315910295051979 
0.6499999999999447, -0.6315841656098586 
0.6599999999999436, -0.6315353495345437 
0.6699999999999425, -0.631420696981401 
0.6799999999999414, -0.6312258139597768 
0.6899999999999403, -0.6309483817764888 
0.6999999999999392, -0.6305966452869025 
0.7099999999999381, -0.6301869874102193 
0.719999999999937, -0.6297435590065968 
0.7299999999999359, -0.6293016185543517 
0.7399999999999348, -0.6289153728443737 
0.7499999999999337, -0.6286709182202885 
0.7599999999999326, -0.6287047454114671 
0.7699999999999315, -0.6292272978337318 
0.7799999999999304, -0.6305480283628698 
0.7899999999999293, -0.6330912793986974 
0.7999999999999282, -0.6373785255819816 
0.8099999999999271, -0.6439329633148978 
0.819999999999926, -0.6530563236903733 
0.8299999999999249, -0.6644937949949886 
0.8399999999999238, -0.6771948853501404 
0.8499999999999227, -0.6895300985088285 
0.8599999999999216, -0.7000121490550555 
0.8699999999999205, -0.7079408841007145 
0.8799999999999194, -0.7134327431184293 
0.8899999999999183, -0.7170165538570912 
0.8999999999999172, -0.7192612503647825 
0.9099999999999161, -0.7206125705034458 
0.919999999999915, -0.7213725629487369 
0.9299999999999139, -0.7217291377558219 
0.9399999999999128, -0.7217890762077988 
0.9499999999999117, -0.72160074337625 
0.9599999999999106, -0.7211651578029648 
0.9699999999999095, -0.7204367620772085 
0.9799999999999084, -0.7193154371673677 
0.9899999999999073, -0.717633013482246 
0.9999999999999062, -0.7151443913696073 
1.0099999999999052, -0.7115477893381581 
1.019999999999904, -0.7065713696754373 
1.029999999999903, -0.7001384788883633 
1.039999999999902, -0.6925293275919129 
1.0499999999999008, -0.6843781798292387 
1.0599999999998997, -0.6764519622957599 
1.0699999999998986, -0.66937335699885 
1.0799999999998975, -0.6634803556392158 
1.0899999999998964, -0.658847519700527 
1.0999999999998953, -0.6553794539849299 
1.1099999999998942, -0.6528997863341177 
1.119999999999893, -0.6512099570428551 
1.129999999999892, -0.6501212273491987 
1.1399999999998909, -0.6494696574417362 
1.1499999999998898, -0.6491213773465646 
1.1599999999998887, -0.6489723327417518 
1.1699999999998876, -0.6489449136588687 
1.1799999999998865, -0.6489831569526102 
1.1899999999998854, -0.6490478936571207 
1.1999999999998843, -0.6491128950183371 
1.2099999999998832, -0.6491625718162981 
1.219999999999882, -0.6491909847680705 
1.229999999999881, -0.6492009166043639 
1.2399999999998799, -0.6492011669433188 
1.2499999999998788, -0.6492010410466781 
1.2599999999998777, -0.6492033387928787 
1.2699999999998766, -0.6491993715622921 
1.2799999999998755, -0.6491694187689961 
1.2899999999998744, -0.649089024914362 
1.2999999999998733, -0.6489376865947822 
1.3099999999998722, -0.6487051301995294 
1.319999999999871, -0.648392852878528 
1.32999999999987, -0.6480123752278242 
1.3399999999998689, -0.6475834377933951 
1.3499999999998678, -0.6471347485866131 
1.3599999999998666, -0.6467085644223579 
1.3699999999998655, -0.6463695756635282 
1.3799999999998644, -0.6462182052530585 
1.3899999999998633, -0.6464078703795021 
1.3999999999998622, -0.6471642430542055 
1.4099999999998611, -0.6488012172513866 
1.41999999999986, -0.6517219102340708 
1.429999999999859, -0.6563824861006762 
1.4399999999998578, -0.6631849203092138 
1.4499999999998567, -0.6722707677364569 
1.4599999999998556, -0.6832558389770332 
1.4699999999998545, -0.6950952417004601 
1.4799999999998534, -0.7063405307309429 
1.4899999999998523, -0.7157571379996769 
1.4999999999998512, -0.7228149679687232 
1.5099999999998501, -0.7276690394647571 
1.519999999999849, -0.7308089345399681 
1.529999999999848, -0.7327470831744765 
1.5399999999998468, -0.7338821835467265 
1.5499999999998457, -0.734482625385508 
1.5599999999998446, -0.7347126507796148 
1.5699999999998435, -0.7346612058946604 
1.5799999999998424, -0.7343610159801188 
1.5899999999998413, -0.733796157825534 
1.5999999999998402, -0.7328986637032945 
1.6099999999998391, -0.7315347529532696 
1.619999999999838, -0.7294833292325201 
1.629999999999837, -0.7264184327281298 
1.6399999999998358, -0.7219285322771058 
1.6499999999998347, -0.7156295500199435 
1.6599999999998336, -0.7074022350387096 
1.6699999999998325, -0.697642864910554 
1.6799999999998314, -0.687271040448469 
1.6899999999998303, -0.6773878917738562 
1.6999999999998292, -0.6688433691569837 
1.709999999999828, -0.662032382588287 
1.719999999999827, -0.6569547573254523 
1.729999999999826, -0.6533811756522901 
1.7399999999998248, -0.6509983425577779 
1.7499999999998237, -0.6494967314675255 
1.7599999999998226, -0.6486112545069277 
1.7699999999998215, -0.6481334881237545 
1.7799999999998204, -0.6479091840452453 
1.7899999999998193, -0.6478292717139941 
1.7999999999998182, -0.6478190213767018 
1.809999999999817, -0.6478279992924086 
1.819999999999816, -0.6478222433338463 
1.8299999999998149, -0.6477793357494296 
1.8399999999998138, -0.647686419205667 
1.8499999999998127, -0.6475403309180205 
1.8599999999998116, -0.6473478913893208 
1.8699999999998105, -0.6471238164899009 
1.8799999999998094, -0.6468849973264605 
1.8899999999998083, -0.6466428802130573 
1.8999999999998072, -0.646397986415606 
1.909999999999806, -0.6461398961001973 
1.919999999999805, -0.6458526602044248 
1.9299999999998039, -0.6455223051094905 
1.9399999999998028, -0.6451424751350722 
1.9499999999998017, -0.6447165583413061 
1.9599999999998006, -0.6442575327060279 
1.9699999999997995, -0.6437879768561985 
1.9799999999997984, -0.6433421293814712 
1.9899999999997973, -0.6429707854873821 
1.9999999999997962, -0.642748990106266 
2.0099999999998173, -0.6427859019403218 
2.0199999999998384, -0.6432355182783849 
2.0299999999998595, -0.6443058206691646 
2.0399999999998806, -0.6462618749412468 
2.0499999999999017, -0.6494147092687363 
2.059999999999923, -0.6540817781779158 
2.069999999999944, -0.6604991044505186 
2.079999999999965, -0.6686729239546204 
2.089999999999986, -0.678207171665641 
2.100000000000007, -0.6882383981359949 
2.1100000000000283, -0.697644283231597 
2.1200000000000494, -0.7054900248323911 
2.1300000000000705, -0.711378434849475 
2.1400000000000916, -0.7154373353313856 
2.1500000000001127, -0.7180600327550817 
2.160000000000134, -0.7196639446986517 
2.170000000000155, -0.720577934320776 
2.180000000000176, -0.7210244522532275 
2.190000000000197, -0.7211380934704895 
2.2000000000002182, -0.7209876089860228 
2.2100000000002393, -0.7205899525614561 
2.2200000000002604, -0.7199139613340222 
2.2300000000002815, -0.7188733165891441 
2.2400000000003026, -0.7173087064067802 
2.2500000000003237, -0.714961933457526 
2.260000000000345, -0.7114562155310689 
2.270000000000366, -0.7063235527864609 
2.280000000000387, -0.6991488315799449 
2.290000000000408, -0.6898605751563657 
2.3000000000004293, -0.6790116456215582 
2.3100000000004504, -0.6677302763693588 
2.3200000000004715, -0.6572612597667445 
2.3300000000004926, -0.648468824983439 
2.3400000000005137, -0.6416647896005541 
2.3500000000005348, -0.6367373788202623 
2.360000000000556, -0.6333644077900957 
2.370000000000577, -0.6311737777401003 
2.380000000000598, -0.6298277828067455 
2.390000000000619, -0.6290541058121369 
2.4000000000006403, -0.6286486000382865 
2.4100000000006614, -0.6284658796893507 
2.4200000000006825, -0.6284061929684531 
2.4300000000007036, -0.6284026914436901 
2.4400000000007247, -0.6284109644133505 
2.450000000000746, -0.6284015975792585 
2.460000000000767, -0.6283559372037684 
2.470000000000788, -0.6282647181932145 
2.480000000000809, -0.6281283775677513 
2.49000000000083, -0.6279568603560322 
2.5000000000008513, -0.6277665423142281 
2.5100000000008724, -0.6275736401229004 
2.5200000000008935, -0.6273865180254323 
2.5300000000009146, -0.6272010856651237 
2.5400000000009357, -0.6270021592113837 
2.550000000000957, -0.6267700593284027 
2.560000000000978, -0.6264885946498733 
2.570000000000999, -0.6261504035013152 
2.58000000000102, -0.6257583521497893 
2.5900000000010412, -0.625324679685922 
2.6000000000010624, -0.6248706081266155 
2.6100000000010835, -0.6244284271673308 
2.6200000000011046, -0.6240470249381813 
2.6300000000011257, -0.6238012242083608 
2.6400000000011468, -0.6238049351071029 
2.650000000001168, -0.624227502942672 
2.660000000001189, -0.6253110304355266 
2.67000000000121, -0.6273828691095297 
2.680000000001231, -0.6308502993464257 
2.6900000000012523, -0.6361524964951064 
2.7000000000012734, -0.6436334244808793 
2.7100000000012945, -0.6533142175357229 
2.7200000000013156, -0.6646355301213193 
2.7300000000013367, -0.6764021605919196 
2.740000000001358, -0.6871641434245865 
2.750000000001379, -0.695863895379008 
2.7600000000014, -0.7022002376443798 
2.770000000001421, -0.7064708532207998 
2.780000000001442, -0.7091975169981477 
2.7900000000014633, -0.710864024947111 
2.8000000000014844, -0.7118262032067236 
2.8100000000015055, -0.7123160116572624 
2.8200000000015266, -0.7124715758365076 
2.8300000000015477, -0.7123637799554501 
2.840000000001569, -0.7120120323306449 
2.85000000000159, -0.7113890440808031 
2.860000000001611, -0.7104156598437904 
2.870000000001632, -0.7089473913157509 
2.8800000000016532, -0.7067583574543177 
2.8900000000016743, -0.7035402189298049 
2.9000000000016954, -0.6989530724832048 
2.9100000000017165, -0.6927686406908009 
2.9200000000017377, -0.6850798475387079 
2.9300000000017588, -0.6764205346072755 
2.94000000000178, -0.6676283690744494 
2.950000000001801, -0.6595170566635048 
2.960000000001822, -0.6526151105899124 
2.970000000001843, -0.6471130859383118 
2.9800000000018643, -0.6429546066947169 
2.9900000000018854, -0.6399547747562311 
3.0000000000019065, -0.637886817205361 
3.0100000000019276, -0.6365304679844412 
3.0200000000019487, -0.6356939605535196 
3.03000000000197, -0.6352212096227802 
3.040000000001991, -0.6349913427720739 
3.050000000002012, -0.6349144711834604 
3.060000000002033, -0.6349259343967486 
3.070000000002054, -0.6349805031504814 
3.0800000000020753, -0.6350475904038163 
3.0900000000020964, -0.6351080933001274 
3.1000000000021175, -0.6351528714142887 
3.1100000000021386, -0.6351819747027597 
3.1200000000021597, -0.6352028936112001 
3.130000000002181, -0.635226204516091 
3.140000000002202, -0.6352587190372834 
3.150000000002223, -0.6352968232337689 
3.160000000002244, -0.6353239465482151 
3.1700000000022652, -0.6353144270667951 
3.1800000000022863, -0.6352421149028659 
3.1900000000023074, -0.6350888819224298 
3.2000000000023285, -0.6348487747666566 
3.2100000000023496, -0.6345273281745845 
3.2200000000023707, -0.6341388531370854 
3.230000000002392, -0.633705034071985 
3.240000000002413, -0.6332569270115633 
3.250000000002434, -0.6328413278698954 
3.260000000002455, -0.6325321193591166 
3.2700000000024763, -0.6324471439951009 
3.2800000000024974, -0.6327705378549908 
3.2900000000025185, -0.6337781988146837 
3.3000000000025396, -0.6358584551715653 
3.3100000000025607, -0.6395085663714972 
3.3200000000025818, -0.6452694066446594 
3.330000000002603, -0.653546539205961 
3.340000000002624, -0.6643006203164907 
3.350000000002645, -0.6767424360339436 
3.360000000002666, -0.6893710462188845 
3.3700000000026873, -0.7005665759019372 
3.3800000000027084, -0.7093388735435263 
3.3900000000027295, -0.7155715854047635 
3.4000000000027506, -0.7197069615810775 
3.4100000000027717, -0.7223275570318529 
3.420000000002793, -0.7239258340438051 
3.430000000002814, -0.7248484842158298 
3.440000000002835, -0.7253167096077058 
3.450000000002856, -0.7254605447747303 
3.460000000002877, -0.7253453205414174 
3.4700000000028983, -0.724986333572621 
3.4800000000029194, -0.7243526336479608 
3.4900000000029405, -0.7233613109230467 
3.5000000000029616, -0.7218644566413426 
3.5100000000029827, -0.7196357397921075 
3.520000000003004, -0.71637592876694 
3.530000000003025, -0.711773658173387 
3.540000000003046, -0.7056522297989016 
3.550000000003067, -0.6981590888486233 
3.5600000000030882, -0.689843249864366 
3.5700000000031094, -0.6814951753635146 
3.5800000000031305, -0.6738467448970393 
3.5900000000031516, -0.6673582287247946 
3.6000000000031727, -0.6621889651249069 
3.6100000000031938, -0.6582822091912975 
3.620000000003215, -0.6554673998784861 
3.630000000003236, -0.6535345748368115 
3.640000000003257, -0.652277155248657 
3.650000000003278, -0.6515128200451584 
3.6600000000032993, -0.6510915149544667 
3.6700000000033204, -0.6508961790777242 
3.6800000000033415, -0.650839409611274 
3.6900000000033626, -0.6508581909620733 
3.7000000000033837, -0.6509083109357661 
3.710000000003405, -0.6509596990672861 
3.720000000003426, -0.6509934378246547 
3.730000000003447, -0.6510004733966149 
3.740000000003468, -0.6509810461107116 
3.750000000003489, -0.6509429867539984 
3.7600000000035103, -0.6508972740638587 
3.7700000000035314, -0.6508512267159349 
3.7800000000035525, -0.6508022920195918 
3.7900000000035736, -0.6507362372420314 
3.8000000000035947, -0.6506313851469381 
3.810000000003616, -0.650466686421934 
3.820000000003637, -0.6502290336733362 
3.830000000003658, -0.6499164831223424 
3.840000000003679, -0.64953762650016 
3.8500000000037002, -0.6491098876967699 
3.8600000000037213, -0.6486595718224912 
3.8700000000037424, -0.6482252717417583 
3.8800000000037635, -0.647865205542675 
3.8900000000037847, -0.6476685262152682 
3.9000000000038058, -0.6477701282544446 
3.910000000003827, -0.648367341881907 
3.920000000003848, -0.6497345114439516 
3.930000000003869, -0.6522269244281214 
3.94000000000389, -0.656257813173876 
3.9500000000039113, -0.6622219982681027 
3.9600000000039324, -0.6703375193934805 
3.9700000000039535, -0.6804137482146568 
3.9800000000039746, -0.6916660130145998 
3.9900000000039957, -0.7028123523885451 
4.000000000004016, -0.7125569259668465 
4.010000000003993, -0.7201425780056624 
4.02000000000397, -0.7255122609650451 
4.030000000003946, -0.7290553055326405 
4.040000000003923, -0.7312742600579074 
4.0500000000039, -0.7325951647276258 
4.0600000000038765, -0.7333182715858342 
4.070000000003853, -0.7336333412995113 
4.08000000000383, -0.7336480199847842 
4.090000000003807, -0.7334095392686656 
4.100000000003783, -0.7329153534367113 
4.11000000000376, -0.7321126587041988 
4.120000000003737, -0.7308870815772127 
4.130000000003713, -0.7290417082718263 
4.14000000000369, -0.7262737380672248 
4.150000000003667, -0.72217373911192 
4.1600000000036434, -0.7163013035883665 
4.17000000000362, -0.7083939492094349 
4.180000000003597, -0.6986604280689759 
4.1900000000035735, -0.6879152751179108 
4.20000000000355, -0.6773276938889887 
4.210000000003527, -0.6679350614264059 
4.220000000003504, -0.6603134306315006 
4.23000000000348, -0.6545654992349154 
4.240000000003457, -0.6504890696799498 
4.250000000003434, -0.6477542253548104 
4.26000000000341, -0.646018918486841 
4.270000000003387, -0.6449850942951914 
4.280000000003364, -0.6444170856676218 
4.2900000000033405, -0.6441404013563278 
4.300000000003317, -0.6440319625441555 
4.310000000003294, -0.644007872549483 
4.320000000003271, -0.6440119345056109 
4.330000000003247, -0.6440065282085524 
4.340000000003224, -0.6439665634571987 
4.350000000003201, -0.6438766361024311 
4.360000000003177, -0.6437307922737262 
4.370000000003154, -0.6435332229164763 
4.380000000003131, -0.6432973071839292 
4.390000000003107, -0.643041029534489 
4.400000000003084, -0.6427794698984555 
4.410000000003061, -0.6425179868924903 
4.4200000000030375, -0.6422500901745513 
4.430000000003014, -0.6419612368364989 
4.440000000002991, -0.6416361110351667 
4.450000000002968, -0.6412652711870661 
4.460000000002944, -0.6408485244234864 
4.470000000002921, -0.6403953742535162 
4.480000000002898, -0.639924778812257 
4.490000000002874, -0.6394663975871535 
4.500000000002851, -0.6390644833917016 
4.510000000002828, -0.6387846485516129 
4.520000000002804, -0.638723121454091 
4.530000000002781, -0.6390175216103391 
4.540000000002758, -0.6398572531078373 
4.5500000000027345, -0.6414899271390961 
4.560000000002711, -0.6442170531195646 
4.570000000002688, -0.6483666789684369 
4.580000000002665, -0.6542236157047185 
4.590000000002641, -0.6618982451439321 
4.600000000002618, -0.6711472493579421 
4.610000000002595, -0.6812468932443492 
4.620000000002571, -0.6910994401324305 
4.630000000002548, -0.6996361800969972 
4.640000000002525, -0.7062543116302202 
4.6500000000025015, -0.7109320070034664 
4.660000000002478, -0.7140135807974163 
4.670000000002455, -0.7159340676816585 
4.6800000000024315, -0.7170615022862402 
4.690000000002408, -0.717655105331003 
4.700000000002385, -0.7178775893006043 
4.710000000002362, -0.717818606656861 
4.720000000002338, -0.7175122870473001 
4.730000000002315, -0.7169446749439077 
4.740000000002292, -0.7160505684741212 
4.750000000002268, -0.7146996928328853 
4.760000000002245, -0.7126736896072065 
4.770000000002222, -0.7096433051938711 
4.7800000000021985, -0.7051761791164165 
4.790000000002175, -0.6988358993053264 
4.800000000002152, -0.6904234162097871 
4.810000000002129, -0.6802745713430466 
4.820000000002105, -0.6693317193449203 
4.830000000002082, -0.6588044716048636 
4.840000000002059, -0.6496648239941519 
4.850000000002035, -0.6423776839881227 
4.860000000002012, -0.636952954514699 
4.870000000001989, -0.6331382353182278 
4.880000000001965, -0.6305899136958 
4.890000000001942, -0.6289737080586073 
4.900000000001919, -0.6280080628040012 
4.9100000000018955, -0.6274747078286571 
4.920000000001872, -0.6272137146005836 
