t, s[1].omega / s[0].omega 
0, -0.6798727611158417 
0.009999999999999995, -0.6674522162405754 
0.019999999999999934, -0.6564079453018116 
0.029999999999999874, -0.6474268439395884 
0.04000000000000012, -0.6406233210627572 
0.050000000000000405, -0.6357568675786195 
0.06000000000000069, -0.6324468000246303 
0.07000000000000098, -0.6303043464016399 
0.08000000000000126, -0.6289927171678324 
0.09000000000000155, -0.6282450006342952 
0.10000000000000184, -0.6278617882471913 
0.11000000000000212, -0.6277005633121548 
0.12000000000000241, -0.6276628645053808 
0.130000000000002, -0.627682222602681 
0.1400000000000009, -0.6277143921095367 
0.1499999999999998, -0.6277306092642118 
0.1599999999999987, -0.6277140361094535 
0.1699999999999976, -0.6276588039780965 
0.1799999999999965, -0.6275699632033931 
0.1899999999999954, -0.6274617304528843 
0.1999999999999943, -0.627352017334968 
0.2099999999999932, -0.6272539260159731 
0.2199999999999921, -0.6271680128056478 
0.229999999999991, -0.62707985500876 
0.2399999999999899, -0.6269647960676255 
0.2499999999999888, -0.6267973805074913 
0.2599999999999877, -0.6265602077667312 
0.2699999999999866, -0.6262481708870214 
0.2799999999999855, -0.6258680841995218 
0.2899999999999844, -0.6254367747097279 
0.2999999999999833, -0.6249809636013327 
0.3099999999999822, -0.6245409806378593 
0.3199999999999811, -0.6241793055337871 
0.32999999999998, -0.6239945756296491 
0.3399999999999789, -0.6241415050941835 
0.3499999999999778, -0.6248562756769911 
0.35999999999997667, -0.6264842257968077 
0.36999999999997557, -0.6295000558446472 
0.37999999999997447, -0.6344969764842635 
0.38999999999997337, -0.6420984467747708 
0.39999999999997227, -0.6527284423857989 
0.40999999999997117, -0.6662240417808014 
0.41999999999997006, -0.6814795870039185 
0.42999999999996896, -0.6965680338630948 
0.43999999999996786, -0.7095592704615409 
0.44999999999996676, -0.7194272151230422 
0.45999999999996566, -0.7262261437290626 
0.46999999999996456, -0.7306084998735403 
0.47999999999996346, -0.733310795240149 
0.48999999999996235, -0.7349129550025743 
0.49999999999996125, -0.7358037659292246 
0.5099999999999602, -0.7362211039600329 
0.519999999999959, -0.7362978986311386 
0.529999999999958, -0.7360935417389445 
0.5399999999999568, -0.7356089733758122 
0.5499999999999557, -0.73478725480617 
0.5599999999999546, -0.733500794833047 
0.5699999999999535, -0.7315271089095928 
0.5799999999999524, -0.7285226905882093 
0.5899999999999513, -0.724026705285806 
0.5999999999999502, -0.7175594866038285 
0.6099999999999491, -0.7088736790229431 
0.619999999999948, -0.6982729400728271 
0.6299999999999469, -0.6867032969152314 
0.6399999999999458, -0.6754164987600144 
0.6499999999999447, -0.6654512396700817 
0.6599999999999436, -0.6573447084070607 
0.6699999999999425, -0.6511687410968245 
0.6799999999999414, -0.6467130174273393 
0.6899999999999403, -0.6436536181198272 
0.6999999999999392, -0.6416564145245783 
0.7099999999999381, -0.6404262291831737 
0.719999999999937, -0.6397238384703515 
0.7299999999999359, -0.6393665526536207 
0.7399999999999348, -0.6392211665205618 
0.7499999999999337, -0.6391940255388902 
0.7599999999999326, -0.6392209539680602 
0.7699999999999315, -0.6392587296292744 
0.7799999999999304, -0.6392790898499534 
0.7899999999999293, -0.6392656081848471 
0.7999999999999282, -0.6392128974310736 
0.8099999999999271, -0.6391263931504738 
0.819999999999926, -0.6390201382938668 
0.8299999999999249, -0.6389108484697362 
0.8399999999999238, -0.638809420982807 
0.8499999999999227, -0.6387139539333607 
0.8599999999999216, -0.6386085375580098 
0.8699999999999205, -0.6384689608684118 
0.8799999999999194, -0.6382721722677104 
0.8899999999999183, -0.6380042441112945 
0.8999999999999172, -0.637663569442977 
0.9099999999999161, -0.637260075487605 
0.919999999999915, -0.6368137147669064 
0.9299999999999139, -0.6363552660530063 
0.9399999999999128, -0.6359311127432411 
0.9499999999999117, -0.6356126714533948 
0.9599999999999106, -0.6355106939291371 
0.9699999999999095, -0.6357941626998398 
0.9799999999999084, -0.6367121951480794 
0.9899999999999073, -0.6386143315916856 
0.9999999999999062, -0.641958226111914 
1.0099999999999052, -0.6472817855229176 
1.019999999999904, -0.6550995780283795 
1.029999999999903, -0.6656772871310015 
1.039999999999902, -0.6786970938404446 
1.0499999999999008, -0.6930102231340903 
1.0599999999998997, -0.7068432766424331 
1.0699999999998986, -0.7185521089235257 
1.0799999999998975, -0.7273468343388034 
1.0899999999998964, -0.7333627877889042 
1.0999999999998953, -0.73721672456829 
1.1099999999998942, -0.7395725475176994 
1.119999999999893, -0.7409456319791999 
1.129999999999892, -0.7416788579878831 
1.1399999999998909, -0.7419795098947615 
1.1499999999998898, -0.7419594724037647 
1.1599999999998887, -0.7416616577472561 
1.1699999999998876, -0.7410708936301595 
1.1799999999998865, -0.740110215694555 
1.1899999999998854, -0.7386227000155785 
1.1999999999998843, -0.7363400010459459 
1.2099999999998832, -0.7328484083979985 
1.219999999999882, -0.7275916253081994 
1.229999999999881, -0.7199939573709844 
1.2399999999998799, -0.7097806986297966 
1.2499999999998788, -0.6973820540961834 
1.2599999999998777, -0.6840252290979748 
1.2699999999998766, -0.671263026438375 
1.2799999999998755, -0.6603015622812313 
1.2899999999998744, -0.6516745116358726 
1.2999999999998733, -0.6453436152868074 
1.3099999999998722, -0.640960725375834 
1.319999999999871, -0.6380837111881443 
1.32999999999987, -0.6362960410648523 
1.3399999999998689, -0.6352546040201716 
1.3499999999998678, -0.6346984382796995 
1.3599999999998666, -0.634439857411901 
1.3699999999998655, -0.6343494242246017 
1.3799999999998644, -0.6343404336261804 
1.3899999999998633, -0.6343555987112499 
1.3999999999998622, -0.6343571299500363 
1.4099999999998611, -0.634320615242059 
1.41999999999986, -0.6342325291486146 
1.429999999999859, -0.6340903332451681 
1.4399999999998578, -0.6339028837338573 
1.4499999999998567, -0.6336881658916222 
1.4599999999998556, -0.6334667487087511 
1.4699999999998545, -0.6332527727310728 
1.4799999999998534, -0.6330470826810057 
1.4899999999998523, -0.6328365834466507 
1.4999999999998512, -0.632600255225141 
1.5099999999998501, -0.6323182568908261 
1.519999999999849, -0.6319792300949361 
1.529999999999848, -0.6315832394581763 
1.5399999999998468, -0.6311414370046602 
1.5499999999998457, -0.6306754513030921 
1.5599999999998446, -0.6302190968490095 
1.5699999999998435, -0.6298237541669656 
1.5799999999998424, -0.6295678695377902 
1.5899999999998413, -0.6295705259463957 
1.5999999999998402, -0.6300084344565076 
1.6099999999998391, -0.6311343744303646 
1.619999999999838, -0.6332922304547227 
1.629999999999837, -0.6369177948463995 
1.6399999999998358, -0.6425033478175852 
1.6499999999998347, -0.6504889490196736 
1.6599999999998336, -0.6610423107366938 
1.6699999999998325, -0.67375415213567 
1.6799999999998314, -0.6874506029339014 
1.6899999999998303, -0.7004509227120433 
1.6999999999998292, -0.711291736412641 
1.709999999999828, -0.7193449103924442 
1.719999999999827, -0.7248129047152101 
1.729999999999826, -0.7282976606122036 
1.7399999999998248, -0.730415994330124 
1.7499999999998237, -0.7316375280953701 
1.7599999999998226, -0.7322713375251556 
1.7699999999998215, -0.7325020422671998 
1.7799999999998204, -0.7324262709492524 
1.7899999999998193, -0.7320755323074991 
1.7999999999998182, -0.7314241893441465 
1.809999999999817, -0.7303832012109656 
1.819999999999816, -0.728779646604693 
1.8299999999998149, -0.7263241326780331 
1.8399999999998138, -0.722580529620474 
1.8499999999998127, -0.7169847760428294 
1.8599999999998116, -0.7090013626010097 
1.8699999999998105, -0.6984725168890716 
1.8799999999998094, -0.6859873860486905 
1.8899999999998083, -0.6728616173395701 
1.8999999999998072, -0.660589041902864 
1.909999999999806, -0.6502219426366979 
1.919999999999805, -0.642151988624099 
1.9299999999998039, -0.6362650719318121 
1.9399999999998028, -0.6321971677959558 
1.9499999999998017, -0.6295235001070034 
1.9599999999998006, -0.6278561626594923 
1.9699999999997995, -0.6268798679449976 
1.9799999999997984, -0.626355855358216 
1.9899999999997973, -0.6261121810342182 
1.9999999999997962, -0.626029650854646 
2.0099999999998173, -0.6260278395277903 
2.0199999999998384, -0.6260532938915041 
2.0299999999998595, -0.62607086822807 
2.0399999999998806, -0.6260585073375933 
2.0499999999999017, -0.6260052086865062 
2.059999999999923, -0.6259109751345526 
2.069999999999944, -0.6257864195798174 
2.079999999999965, -0.6256493543166137 
2.089999999999986, -0.6255174571023604 
2.100000000000007, -0.625399441146252 
2.1100000000000283, -0.6252893848596182 
2.1200000000000494, -0.6251678027783402 
2.1300000000000705, -0.625009160603948 
2.1400000000000916, -0.6247915941193463 
2.1500000000001127, -0.6245037364846866 
2.160000000000134, -0.624146534745892 
2.170000000000155, -0.6237318461361976 
2.180000000000176, -0.6232812464344487 
2.190000000000197, -0.6228277458639798 
2.2000000000002182, -0.62242182417833 
2.2100000000002393, -0.6221425158357885 
2.2200000000002604, -0.6221140739286205 
2.2300000000002815, -0.6225283062070481 
2.2400000000003026, -0.6236710782954981 
2.2500000000003237, -0.6259472542094742 
2.260000000000345, -0.6298888481182943 
2.270000000000366, -0.6361130767245788 
2.280000000000387, -0.6451733535623272 
2.290000000000408, -0.6572495570659951 
2.3000000000004293, -0.6717398248038393 
2.3100000000004504, -0.687083613270193 
2.3200000000004715, -0.7012410756227977 
2.3300000000004926, -0.7126652503126664 
2.3400000000005137, -0.7209017480967106 
2.3500000000005348, -0.7263733512713388 
2.360000000000556, -0.7298171126221729 
2.370000000000577, -0.7319011119409532 
2.380000000000598, -0.7331046313772427 
2.390000000000619, -0.7337333998339806 
2.4000000000006403, -0.7339670322178067 
2.4100000000006614, -0.7338983392278452 
2.4200000000006825, -0.7335562625546196 
2.4300000000007036, -0.7329134413993434 
2.4400000000007247, -0.7318800239071646 
2.450000000000746, -0.7302848296789584 
2.460000000000767, -0.7278483931724298 
2.470000000000788, -0.7241665641396055 
2.480000000000809, -0.7187531688158085 
2.49000000000083, -0.7112131573963827 
2.5000000000008513, -0.7015502629032946 
2.5100000000008724, -0.6904072156521722 
2.5200000000008935, -0.6789367553367975 
2.5300000000009146, -0.6683223252619511 
2.5400000000009357, -0.6593473042069452 
2.550000000000957, -0.65228844760028 
2.560000000000978, -0.6470519351081708 
2.570000000000999, -0.6433585090094731 
2.58000000000102, -0.6408768439134275 
2.5900000000010412, -0.6392948522290289 
2.6000000000010624, -0.6383493293681551 
2.6100000000010835, -0.6378330998211879 
2.6200000000011046, -0.6375912359780062 
2.6300000000011257, -0.6375125256942853 
2.6400000000011468, -0.6375196016680985 
2.650000000001168, -0.6375597962770695 
2.660000000001189, -0.6375980037560407 
2.67000000000121, -0.6376122214420766 
2.680000000001231, -0.6375917199197398 
2.6900000000012523, -0.6375367327929624 
2.7000000000012734, -0.6374574193604304 
2.7100000000012945, -0.6373697383357385 
2.7200000000013156, -0.6372878328636146 
2.7300000000013367, -0.6372157405008056 
2.740000000001358, -0.637143019100529 
2.750000000001379, -0.637047314087028 
2.7600000000014, -0.6369027672529332 
2.770000000001421, -0.6366895020722294 
2.780000000001442, -0.6363993539464531 
2.7900000000014633, -0.6360365875129022 
2.8000000000014844, -0.6356160695395061 
2.8100000000015055, -0.6351624136735942 
2.8200000000015266, -0.634712527184649 
2.8300000000015477, -0.6343226989571253 
2.840000000001569, -0.6340807394133496 
2.85000000000159, -0.634123373781166 
2.860000000001611, -0.6346583356384925 
2.870000000001632, -0.6359885190440264 
2.8800000000016532, -0.638530778793664 
2.8900000000016743, -0.6428122320983766 
2.9000000000016954, -0.6494101101600909 
2.9100000000017165, -0.6587835922001861 
2.9200000000017377, -0.6709641130909447 
2.9300000000017588, -0.6852008247292785 
2.94000000000178, -0.6998941880430741 
2.950000000001801, -0.7131461037909499 
2.960000000001822, -0.7236492243265136 
2.970000000001843, -0.7311258419732448 
2.9800000000018643, -0.7360483123746645 
2.9900000000018854, -0.7391217773968164 
3.0000000000019065, -0.7409611256039372 
3.0100000000019276, -0.742000172709378 
3.0200000000019487, -0.742512404730723 
3.03000000000197, -0.7426554180133215 
3.040000000001991, -0.7425059055269515 
3.050000000002012, -0.7420787140851145 
3.060000000002033, -0.7413307479700749 
3.070000000002054, -0.7401505557163766 
3.0800000000020753, -0.7383339416926796 
3.0900000000020964, -0.7355502785375351 
3.1000000000021175, -0.7313218228853386 
3.1100000000021386, -0.7250761114407172 
3.1200000000021597, -0.716361159206915 
3.130000000002181, -0.7052259408301575 
3.140000000002202, -0.6925024292025554 
3.150000000002223, -0.6796095977020936 
3.160000000002244, -0.6679356637277505 
3.1700000000022652, -0.6583264046535195 
3.1800000000022863, -0.6510009994087326 
3.1900000000023074, -0.6457545500411502 
3.2000000000023285, -0.6421960279689571 
3.2100000000023496, -0.6399067741250508 
3.2200000000023707, -0.6385174502185993 
3.230000000002392, -0.6377337500216951 
3.240000000002413, -0.6373362449390457 
3.250000000002434, -0.6371692033980756 
3.260000000002455, -0.6371261064226289 
3.2700000000024763, -0.637135771695209 
3.2800000000024974, -0.6371510229592795 
3.2900000000025185, -0.6371407851568114 
3.3000000000025396, -0.6370858374155874 
3.3100000000025607, -0.636977748033808 
3.3200000000025818, -0.6368193982993513 
3.330000000002603, -0.6366243393451959 
3.340000000002624, -0.6364123994810127 
3.350000000002645, -0.6362015087253831 
3.360000000002666, -0.6359992155496987 
3.3700000000026873, -0.6357986887332222 
3.3800000000027084, -0.6355816891193355 
3.3900000000027295, -0.6353267567587576 
3.4000000000027506, -0.6350179026167708 
3.4100000000027717, -0.6346497287077681 
3.420000000002793, -0.6342283472458339 
3.430000000002814, -0.6337705044916598 
3.440000000002835, -0.6333039201493944 
3.450000000002856, -0.6328707908188073 
3.460000000002877, -0.6325352454443547 
3.4700000000028983, -0.6323948663366274 
3.4800000000029194, -0.6325958807161078 
3.4900000000029405, -0.6333507159198482 
3.5000000000029616, -0.6349546542874098 
3.5100000000029827, -0.637794257812912 
3.520000000003004, -0.6423322287759888 
3.530000000003025, -0.6490402542474241 
3.540000000003046, -0.6582402893257235 
3.550000000003067, -0.6698384176788481 
3.5600000000030882, -0.6830523119715073 
3.5700000000031094, -0.6964157168140581 
3.5800000000031305, -0.7082932388834898 
3.5900000000031516, -0.7176209144601533 
3.6000000000031727, -0.7242268442794947 
3.6100000000031938, -0.7285617921140719 
3.620000000003215, -0.7312568230544174 
3.630000000003236, -0.732854448761944 
3.640000000003257, -0.7337353783457143 
3.650000000003278, -0.734138044424435 
3.6600000000032993, -0.7341971631953798 
3.6700000000033204, -0.7339733242129214 
3.6800000000033415, -0.7334678712950667 
3.6900000000033626, -0.7326232929884459 
3.7000000000033837, -0.7313092664048829 
3.710000000003405, -0.7292944500007842 
3.720000000003426, -0.7262100572353722 
3.730000000003447, -0.7215329551228897 
3.740000000003468, -0.7146595153929725 
3.750000000003489, -0.7051663181659974 
3.7600000000035103, -0.6932298756020394 
3.7700000000035314, -0.6798723947327304 
3.7800000000035525, -0.6666491949487243 
3.7900000000035736, -0.6549513255541763 
3.8000000000035947, -0.6455267742103604 
3.810000000003616, -0.6384772341075672 
3.820000000003637, -0.6335111113578428 
3.830000000003658, -0.6301910314823098 
3.840000000003679, -0.6280825999326736 
3.8500000000037002, -0.6268186470035533 
3.8600000000037213, -0.6261151504822664 
3.8700000000037424, -0.6257649580491551 
3.8800000000037635, -0.6256234109222719 
3.8900000000037847, -0.6255926560581319 
3.9000000000038058, -0.625607756196693 
3.910000000003827, -0.6256259423871768 
3.920000000003848, -0.6256194974289693 
3.930000000003869, -0.6255722266812034 
3.94000000000389, -0.6254787747406401 
3.9500000000039113, -0.6253449390665007 
3.9600000000039324, -0.6251861905072537 
3.9700000000039535, -0.6250222512543877 
3.9800000000039746, -0.6248684367182161 
3.9900000000039957, -0.6247276946102568 
4.000000000004016, -0.6245879451770365 
4.010000000003993, -0.6244265589556017 
4.02000000000397, -0.624219502247057 
4.030000000003946, -0.6239500431688193 
4.040000000003923, -0.6236131274607409 
4.0500000000039, -0.623215375647048 
4.0600000000038765, -0.6227735886441965 
4.070000000003853, -0.6223149320060497 
4.08000000000383, -0.6218807702625099 
4.090000000003807, -0.6215350960449679 
4.100000000003783, -0.621378093602821 
4.11000000000376, -0.6215651130125818 
4.120000000003737, -0.6223304307949726 
4.130000000003713, -0.6240125748860926 
4.14000000000369, -0.6270718204918305 
4.150000000003667, -0.6320776387135381 
4.1600000000036434, -0.6396227280823064 
4.17000000000362, -0.6501038786686519 
4.180000000003597, -0.6633545504201719 
4.1900000000035735, -0.6783061043650453 
4.20000000000355, -0.6930981973136988 
4.210000000003527, -0.7058557932935724 
4.220000000003504, -0.7155670359103878 
4.23000000000348, -0.722269972192706 
4.240000000003457, -0.7265948269916166 
4.250000000003434, -0.7292619504470644 
4.26000000000341, -0.7308417354177458 
4.270000000003387, -0.7317175937233772 
4.280000000003364, -0.7321242601373197 
4.2900000000033405, -0.7321926908003343 
4.300000000003317, -0.7319808991557976 
4.310000000003294, -0.7314886968945753 
4.320000000003271, -0.730658017624799 
4.330000000003247, -0.7293599410080958 
4.340000000003224, -0.7273703408519658 
4.350000000003201, -0.724343974916071 
4.360000000003177, -0.7198192861466476 
4.370000000003154, -0.7133194543635054 
4.380000000003131, -0.7046064057604353 
4.390000000003107, -0.6939981622201475 
4.400000000003084, -0.6824514226921319 
4.410000000003061, -0.671215765470234 
4.4200000000030375, -0.6613159561192471 
4.430000000003014, -0.6532728616696261 
4.440000000002991, -0.6471472681273724 
4.450000000002968, -0.6427248903916819 
4.460000000002944, -0.6396830962677795 
4.470000000002921, -0.6376916961861637 
4.480000000002898, -0.6364600795677693 
4.490000000002874, -0.6357530308382987 
4.500000000002851, -0.6353908241554173 
4.510000000002828, -0.6352421617363577 
4.520000000002804, -0.6352144802261598 
4.530000000002781, -0.6352441986580636 
4.540000000002758, -0.6352884816448263 
4.5500000000027345, -0.6353194425048211 
4.560000000002711, -0.6353210942945648 
4.570000000002688, -0.6352884892489776 
4.580000000002665, -0.6352273190315771 
4.590000000002641, -0.6351514725925682 
4.600000000002618, -0.6350769432095078 
4.610000000002595, -0.6350133198698401 
4.620000000002571, -0.6349569274463731 
4.630000000002548, -0.6348898559935642 
4.640000000002525, -0.6347859998750988 
4.6500000000025015, -0.6346208476211961 
4.660000000002478, -0.6343795962010915 
4.670000000002455, -0.6340602151711063 
4.6800000000024315, -0.6336723190670812 
4.690000000002408, -0.6332352745445595 
4.700000000002385, -0.632778707619278 
4.710000000002362, -0.6323471704748258 
4.720000000002338, -0.6320097732650514 
4.730000000002315, -0.6318752600268276 
4.740000000002292, -0.6321126508576165 
4.750000000002268, -0.6329763156490389 
4.760000000002245, -0.6348310341897055 
4.770000000002222, -0.6381652497076653 
4.7800000000021985, -0.6435664411339135 
4.790000000002175, -0.6516114283761248 
4.800000000002152, -0.6626156564962739 
4.810000000002129, -0.6762537622280221 
4.820000000002105, -0.6912795987729532 
4.830000000002082, -0.7057681477091874 
4.840000000002059, -0.7179658198252682 
4.850000000002035, -0.7270703360675921 
4.860000000002012, -0.7332664348196742 
4.870000000001989, -0.737224993084613 
4.880000000001965, -0.739645304805136 
4.890000000001942, -0.7410615887229506 
4.900000000001919, -0.7418263539622593 
4.9100000000018955, -0.7421522038719953 
4.920000000001872, -0.7421544737382327 
