t, s[1].omega / s[0].omega 
0, -0.6199977205452429 
0.009999999999999995, -0.6197703651111579 
0.019999999999999934, -0.6195389555035158 
0.029999999999999874, -0.619290434895232 
0.04000000000000012, -0.6190099534449204 
0.050000000000000405, -0.6186869112263498 
0.06000000000000069, -0.6183183284704605 
0.07000000000000098, -0.617909350174129 
0.08000000000000126, -0.6174726186228799 
0.09000000000000155, -0.6170285304143583 
0.10000000000000184, -0.6166076746042537 
0.11000000000000212, -0.6162560177141552 
0.12000000000000241, -0.6160429903936612 
0.130000000000002, -0.6160722896137165 
0.1400000000000009, -0.616494466764471 
0.1499999999999998, -0.6175186078719161 
0.1599999999999987, -0.6194167292555145 
0.1699999999999976, -0.6225079194131269 
0.1799999999999965, -0.6271006389264414 
0.1899999999999954, -0.6333699673105038 
0.1999999999999943, -0.6411773272352821 
0.2099999999999932, -0.6499281029415284 
0.2199999999999921, -0.6586469211544419 
0.229999999999991, -0.6663425660091031 
0.2399999999999899, -0.6724207086444907 
0.2499999999999888, -0.6768082679883386 
0.2599999999999877, -0.6797734393800702 
0.2699999999999866, -0.6816825981134482 
0.2799999999999855, -0.6828565921472477 
0.2899999999999844, -0.6835285879637587 
0.2999999999999833, -0.6838510843476455 
0.3099999999999822, -0.6839148487432251 
0.3199999999999811, -0.6837646883364576 
0.32999999999998, -0.6834083896429981 
0.3399999999999789, -0.6828189702945414 
0.3499999999999778, -0.6819314910362088 
0.35999999999997667, -0.6806372124020632 
0.36999999999997557, -0.6787820619344179 
0.37999999999997447, -0.6761837795689657 
0.38999999999997337, -0.6726865192701846 
0.39999999999997227, -0.6682550132698128 
0.40999999999997117, -0.6630616222025875 
0.41999999999997006, -0.6574839645048322 
0.42999999999996896, -0.6519858143839905 
0.43999999999996786, -0.6469622132343693 
0.44999999999996676, -0.6426509950410279 
0.45999999999996566, -0.6391334722027827 
0.46999999999996456, -0.6363820107682138 
0.47999999999996346, -0.6343109028958291 
0.48999999999996235, -0.6328122651790211 
0.49999999999996125, -0.6317765636805299 
0.5099999999999602, -0.631102904238886 
0.519999999999959, -0.6307036320697301 
0.529999999999958, -0.630505900186596 
0.5399999999999568, -0.6304515142519783 
0.5499999999999557, -0.6304957532179428 
0.5599999999999546, -0.6306057013046653 
0.5699999999999535, -0.6307585755896818 
0.5799999999999524, -0.6309403604037638 
0.5899999999999513, -0.6311446458024872 
0.5999999999999502, -0.6313709854508444 
0.6099999999999491, -0.6316217450784702 
0.619999999999948, -0.6318969451422523 
0.6299999999999469, -0.6321882440387184 
0.6399999999999458, -0.6324750639802741 
0.6499999999999447, -0.6327261041978951 
0.6599999999999436, -0.6329068563740169 
0.6699999999999425, -0.6329895215357544 
0.6799999999999414, -0.6329597500233398 
0.6899999999999403, -0.6328172219406356 
0.6999999999999392, -0.6325716460786216 
0.7099999999999381, -0.632238008351371 
0.719999999999937, -0.6318340717753985 
0.7299999999999359, -0.6313814263809608 
0.7399999999999348, -0.6309105442826565 
0.7499999999999337, -0.6304704218461349 
0.7599999999999326, -0.6301437711977063 
0.7699999999999315, -0.6300683760687351 
0.7799999999999304, -0.6304626708246193 
0.7899999999999293, -0.6316463768521285 
0.7999999999999282, -0.6340323940755122 
0.8099999999999271, -0.6380468500026106 
0.819999999999926, -0.6439348664744138 
0.8299999999999249, -0.6514883255189041 
0.8399999999999238, -0.6599044789522793 
0.8499999999999227, -0.6680359395225647 
0.8599999999999216, -0.6749382272201684 
0.8699999999999205, -0.6802290924226542 
0.8799999999999194, -0.6840120949099173 
0.8899999999999183, -0.6866014680759734 
0.8999999999999172, -0.6883207108543207 
0.9099999999999161, -0.689426181948697 
0.919999999999915, -0.6900995308199958 
0.9299999999999139, -0.6904614038319912 
0.9399999999999128, -0.6905864100319451 
0.9499999999999117, -0.6905138780788252 
0.9599999999999106, -0.6902538066255797 
0.9699999999999095, -0.6897886762758871 
0.9799999999999084, -0.6890724617808911 
0.9899999999999073, -0.6880296838764399 
0.9999999999999062, -0.6865603401857421 
1.0099999999999052, -0.6845597596335979 
1.019999999999904, -0.6819599661701319 
1.029999999999903, -0.6787828378970955 
1.039999999999902, -0.6751711627525412 
1.0499999999999008, -0.6713636130817902 
1.0599999999998997, -0.6676218004381052 
1.0699999999998986, -0.6641581390267737 
1.0799999999998975, -0.6611031470180185 
1.0899999999998964, -0.6585116691599173 
1.0999999999998953, -0.6563861962241125 
1.1099999999998942, -0.6546994026264897 
1.119999999999893, -0.6534093360791432 
1.129999999999892, -0.6524678543322538 
1.1399999999998909, -0.6518250186031648 
1.1499999999998898, -0.6514317147391905 
1.1599999999998887, -0.6512416912754806 
1.1699999999998876, -0.6512133342171478 
1.1799999999998865, -0.6513110759471881 
1.1899999999998854, -0.6515062911039077 
1.1999999999998843, -0.6517776521478638 
1.2099999999998832, -0.6521109562295984 
1.219999999999882, -0.6524982346018492 
1.229999999999881, -0.6529355919064306 
1.2399999999998799, -0.653419119018946 
1.2499999999998788, -0.653938988853912 
1.2599999999998777, -0.6544736307339681 
1.2699999999998766, -0.6549876233256485 
1.2799999999998755, -0.6554365024978871 
1.2899999999998744, -0.6557777668777891 
1.2999999999998733, -0.655982380596049 
1.3099999999998722, -0.6560401932522202 
1.319999999999871, -0.6559574362886765 
1.32999999999987, -0.6557498746616031 
1.3399999999998689, -0.6554365180623809 
1.3499999999998678, -0.6550367708426563 
1.3599999999998666, -0.6545717896864451 
1.3699999999998655, -0.6540701937723992 
1.3799999999998644, -0.653578753912058 
1.3899999999998633, -0.6531792863399117 
1.3999999999998622, -0.6530125422070862 
1.4099999999998611, -0.6533066347915453 
1.41999999999986, -0.6543986184332802 
1.429999999999859, -0.6567207283248082 
1.4399999999998578, -0.6607033724310227 
1.4499999999998567, -0.6665577918578964 
1.4599999999998556, -0.6740031428104405 
1.4699999999998545, -0.682177309042406 
1.4799999999998534, -0.6899540459039217 
1.4899999999998523, -0.6964800958873927 
1.4999999999998512, -0.701454341672257 
1.5099999999998501, -0.7050059239614889 
1.519999999999849, -0.7074358094629933 
1.529999999999848, -0.7090448303355578 
1.5399999999998468, -0.7100710731785493 
1.5499999999998457, -0.7106840095921393 
1.5599999999998446, -0.7109962006157065 
1.5699999999998435, -0.7110762071995371 
1.5799999999998424, -0.7109578399940991 
1.5899999999998413, -0.7106448890598924 
1.5999999999998402, -0.7101116986616889 
1.6099999999998391, -0.7093008115458304 
1.619999999999838, -0.7081208145668849 
1.629999999999837, -0.7064513070591711 
1.6399999999998358, -0.7041660927187376 
1.6499999999998347, -0.7011829663371435 
1.6599999999998336, -0.6975283567430504 
1.6699999999998325, -0.6933749158426873 
1.6799999999998314, -0.6890102986840586 
1.6899999999998303, -0.6847480068287056 
1.6999999999998292, -0.6808403638630408 
1.709999999999828, -0.6774397123146682 
1.719999999999827, -0.6746060393131879 
1.729999999999826, -0.6723345991362881 
1.7399999999998248, -0.6705827019431886 
1.7499999999998237, -0.669288369518561 
1.7599999999998226, -0.6683816609695656 
1.7699999999998215, -0.6677915620477138 
1.7799999999998204, -0.6674505952279406 
1.7899999999998193, -0.6672980743105643 
1.7999999999998182, -0.6672821678187051 
1.809999999999817, -0.6673607816649535 
1.819999999999816, -0.6675014697569526 
1.8299999999998149, -0.6676807890371368 
1.8399999999998138, -0.6678834705957508 
1.8499999999998127, -0.6681013844903287 
1.8599999999998116, -0.668331705994452 
1.8699999999998105, -0.6685734779643595 
1.8799999999998094, -0.6688225411109477 
1.8899999999998083, -0.669066524438712 
1.8999999999998072, -0.6692829603150894 
1.909999999999806, -0.6694428123695546 
1.919999999999805, -0.669518418487079 
1.9299999999998039, -0.669491494316153 
1.9399999999998028, -0.6693568395255666 
1.9499999999998017, -0.6691209338921269 
1.9599999999998006, -0.6687981139468182 
1.9699999999997995, -0.6684077394981149 
1.9799999999997984, -0.6679744538606321 
1.9899999999997973, -0.6675323298843516 
1.9999999999997962, -0.6671332015018951 
2.0099999999998173, -0.6668593946842611 
2.0199999999998384, -0.6668405666714685 
2.0299999999998595, -0.6672725572797455 
2.0399999999998806, -0.6684320797513028 
2.0499999999999017, -0.6706738178591813 
2.059999999999923, -0.6743866150650645 
2.069999999999944, -0.6798799352325616 
2.079999999999965, -0.6871927535541273 
2.089999999999986, -0.6958957237343477 
2.100000000000007, -0.7050667211475953 
2.1100000000000283, -0.7135884392578976 
2.1200000000000494, -0.7206216851823425 
2.1300000000000705, -0.725875211214043 
2.1400000000000916, -0.7295131152611984 
2.1500000000001127, -0.7318967747992665 
2.160000000000134, -0.7333876258953083 
2.170000000000155, -0.7342664613090086 
2.180000000000176, -0.7347249806304568 
2.190000000000197, -0.7348824283538036 
2.2000000000002182, -0.7348037180400943 
2.2100000000002393, -0.7345113883455955 
2.2200000000002604, -0.7339900630936362 
2.2300000000002815, -0.7331837391058444 
2.2400000000003026, -0.7319869344392541 
2.2500000000003237, -0.7302332532640189 
2.260000000000345, -0.7276921240235973 
2.270000000000366, -0.7240970443057925 
2.280000000000387, -0.7192353117421184 
2.290000000000408, -0.7130980460402375 
2.3000000000004293, -0.7060054854046246 
2.3100000000004504, -0.6985741734097497 
2.3200000000004715, -0.6915040887577665 
2.3300000000004926, -0.6853376210469281 
2.3400000000005137, -0.6803459252954506 
2.3500000000005348, -0.6765556381976461 
2.360000000000556, -0.6738381132319733 
2.370000000000577, -0.671995077389188 
2.380000000000598, -0.6708168036314771 
2.390000000000619, -0.6701139940682882 
2.4000000000006403, -0.6697313011029186 
2.4100000000006614, -0.6695495950119652 
2.4200000000006825, -0.6694820441675539 
2.4300000000007036, -0.6694674985516162 
2.4400000000007247, -0.6694635468783939 
2.450000000000746, -0.6694407705122687 
2.460000000000767, -0.6693790529714188 
2.470000000000788, -0.6692661688855309 
2.480000000000809, -0.6690980394130855 
2.49000000000083, -0.6688790397117078 
2.5000000000008513, -0.6686203097508843 
2.5100000000008724, -0.6683351579616563 
2.5200000000008935, -0.6680331169050898 
2.5300000000009146, -0.6677159400539219 
2.5400000000009357, -0.667377962750759 
2.550000000000957, -0.667010397786287 
2.560000000000978, -0.6666067889289582 
2.570000000000999, -0.6661668762524141 
2.58000000000102, -0.6656980976523156 
2.5900000000010412, -0.6652158608683967 
2.6000000000010624, -0.6647442319888219 
2.6100000000010835, -0.6643180590555142 
2.6200000000011046, -0.6639866549401885 
2.6300000000011257, -0.6638184671830925 
2.6400000000011468, -0.6639056689960208 
2.650000000001168, -0.6643671996282604 
2.660000000001189, -0.6653483501584971 
2.67000000000121, -0.6670143014820449 
2.680000000001231, -0.6695337061316861 
2.6900000000012523, -0.6730465661649098 
2.7000000000012734, -0.6776106077737618 
2.7100000000012945, -0.6831288037626991 
2.7200000000013156, -0.6892860028761152 
2.7300000000013367, -0.6955560764839901 
2.740000000001358, -0.7013327048136363 
2.750000000001379, -0.7061407825919779 
2.7600000000014, -0.7097837267054925 
2.770000000001421, -0.7123293927173733 
2.780000000001442, -0.7139874546016592 
2.7900000000014633, -0.7149897152132649 
2.8000000000014844, -0.7155266525509278 
2.8100000000015055, -0.7157311179819614 
2.8200000000015266, -0.7156835394182501 
2.8300000000015477, -0.7154212023053879 
2.840000000001569, -0.7149439923952446 
2.85000000000159, -0.7142140162542352 
2.860000000001611, -0.7131481534957222 
2.870000000001632, -0.7116034107621185 
2.8800000000016532, -0.7093578942310853 
2.8900000000016743, -0.7060997880203209 
2.9000000000016954, -0.7014570852874211 
2.9100000000017165, -0.6951207581653616 
2.9200000000017377, -0.6870797418862664 
2.9300000000017588, -0.6778405726474999 
2.94000000000178, -0.6683780310262949 
2.950000000001801, -0.6597487712249677 
2.960000000001822, -0.6526672204261963 
2.970000000001843, -0.6473560651665556 
2.9800000000018643, -0.6436639776168225 
2.9900000000018854, -0.6412634401382756 
3.0000000000019065, -0.639800169807864 
3.0100000000019276, -0.6389687453645048 
3.0200000000019487, -0.63853579015661 
3.03000000000197, -0.6383361663100876 
3.040000000001991, -0.6382589701588934 
3.050000000002012, -0.6382320335128894 
3.060000000002033, -0.6382086658160476 
3.070000000002054, -0.6381578502901453 
3.0800000000020753, -0.6380580574774231 
3.0900000000020964, -0.6378944862796078 
3.1000000000021175, -0.637659227435755 
3.1100000000021386, -0.6373530863148118 
3.1200000000021597, -0.6369867506650345 
3.130000000002181, -0.6365787947903472 
3.140000000002202, -0.6361498689651025 
3.150000000002223, -0.6357155219422596 
3.160000000002244, -0.6352816550390293 
3.1700000000022652, -0.6348449997262252 
3.1800000000022863, -0.6343977450075348 
3.1900000000023074, -0.6339332834537408 
3.2000000000023285, -0.6334503784103438 
3.2100000000023496, -0.6329550458857799 
3.2200000000023707, -0.6324612074254153 
3.230000000002392, -0.631991632057391 
3.240000000002413, -0.6315801577818951 
3.250000000002434, -0.6312754417416688 
3.260000000002455, -0.6311459269233095 
3.2700000000024763, -0.6312853024374832 
3.2800000000024974, -0.6318172882082576 
3.2900000000025185, -0.6328978467039567 
3.3000000000025396, -0.6347115283557628 
3.3100000000025607, -0.6374561324734096 
3.3200000000025818, -0.6413065041927077 
3.330000000002603, -0.6463475894440347 
3.340000000002624, -0.6524789220870957 
3.350000000002645, -0.6593299342688288 
3.360000000002666, -0.6662727723210194 
3.3700000000026873, -0.6725996425488865 
3.3800000000027084, -0.6777889867321274 
3.3900000000027295, -0.6816633760719744 
3.4000000000027506, -0.6843409592050183 
3.4100000000027717, -0.6860770918807161 
3.420000000002793, -0.6871319799800096 
3.430000000002814, -0.6877103415770939 
3.440000000002835, -0.6879514357149643 
3.450000000002856, -0.6879386258729269 
3.460000000002877, -0.6877108232684688 
3.4700000000028983, -0.6872691507799311 
3.4800000000029194, -0.686577061345589 
3.4900000000029405, -0.6855537197131591 
3.5000000000029616, -0.6840618273775971 
3.5100000000029827, -0.6818954213025348 
3.520000000003004, -0.6787839569519266 
3.530000000003025, -0.6744446105527129 
3.540000000003046, -0.6687132299804278 
3.550000000003067, -0.6617222433607892 
3.5600000000030882, -0.6539861498027636 
3.5700000000031094, -0.6462613918698829 
3.5800000000031305, -0.6392533783179248 
3.5900000000031516, -0.6333954934659093 
3.6000000000031727, -0.6288152445035561 
3.6100000000031938, -0.6254247940817812 
3.620000000003215, -0.6230317645971801 
3.630000000003236, -0.6214182118658057 
3.640000000003257, -0.6203827788639327 
3.650000000003278, -0.6197576398372597 
3.6600000000032993, -0.6194116321148323 
3.6700000000033204, -0.6192468542337733 
3.6800000000033415, -0.6191927396624529 
3.6900000000033626, -0.619199748849029 
3.7000000000033837, -0.6192338556096371 
3.710000000003405, -0.6192724694907108 
3.720000000003426, -0.6193020240944489 
3.730000000003447, -0.6193169423508886 
3.740000000003468, -0.6193189888676808 
3.750000000003489, -0.6193154742919419 
3.7600000000035103, -0.6193151412121675 
3.7700000000035314, -0.6193222383186927 
3.7800000000035525, -0.6193313717142732 
3.7900000000035736, -0.6193263612209579 
3.8000000000035947, -0.6192844513996304 
3.810000000003616, -0.6191838441134088 
3.820000000003637, -0.619010362098402 
3.830000000003658, -0.6187601544219707 
3.840000000003679, -0.6184385898065828 
3.8500000000037002, -0.6180578238590366 
3.8600000000037213, -0.6176356267158984 
3.8700000000037424, -0.6171969984263098 
3.8800000000037635, -0.6167792820648443 
3.8900000000037847, -0.6164412834449722 
3.9000000000038058, -0.6162769014675604 
3.910000000003827, -0.6164332262219772 
3.920000000003848, -0.6171309125258876 
3.930000000003869, -0.6186792125902588 
3.94000000000389, -0.6214673394182492 
3.9500000000039113, -0.6258987853995327 
3.9600000000039324, -0.6322306663030188 
3.9700000000039535, -0.6403285575611917 
3.9800000000039746, -0.6494842144259938 
3.9900000000039957, -0.6585504225522636 
4.000000000004016, -0.6664360546796055 
4.010000000003993, -0.6725717664089856 
4.02000000000397, -0.67696458042045 
4.030000000003946, -0.679939252808007 
4.040000000003923, -0.6818791028827611 
4.0500000000039, -0.6831009996678268 
4.0600000000038765, -0.6838301802897262 
4.070000000003853, -0.6842141103272212 
4.08000000000383, -0.6843424683578303 
4.090000000003807, -0.6842624018806237 
4.100000000003783, -0.6839872965833058 
4.11000000000376, -0.6834998602376465 
4.120000000003737, -0.6827510704261585 
4.130000000003713, -0.6816578604921957 
4.14000000000369, -0.680105618735509 
4.150000000003667, -0.6779661074905385 
4.1600000000036434, -0.6751415138209083 
4.17000000000362, -0.6716296252283684 
4.180000000003597, -0.6675734144266956 
4.1900000000035735, -0.6632460660589985 
4.20000000000355, -0.6589669742560564 
4.210000000003527, -0.6550053364387232 
4.220000000003504, -0.6515290896849737 
4.23000000000348, -0.6486071889017692 
4.240000000003457, -0.6462386047352284 
4.250000000003434, -0.6443827179082493 
4.26000000000341, -0.6429806724179986 
4.270000000003387, -0.6419676141691857 
4.280000000003364, -0.641279078484731 
4.2900000000033405, -0.6408544382881048 
4.300000000003317, -0.6406390384763905 
4.310000000003294, -0.640585617846071 
4.320000000003271, -0.6406551306396702 
4.330000000003247, -0.6408170041764514 
4.340000000003224, -0.6410489556874871 
4.350000000003201, -0.6413364911137318 
4.360000000003177, -0.6416719660820115 
4.370000000003154, -0.6420526592162002 
4.380000000003131, -0.6424770764000112 
4.390000000003107, -0.6429392865002916 
4.400000000003084, -0.6434227514062362 
4.410000000003061, -0.6438970134736157 
4.4200000000030375, -0.6443207492188281 
4.430000000003014, -0.6446514994288891 
4.440000000002991, -0.64485737321608 
4.450000000002968, -0.6449240232391578 
4.460000000002944, -0.6448538598725759 
4.470000000002921, -0.644660057081113 
4.480000000002898, -0.6443601389132358 
4.490000000002874, -0.6439724408070692 
4.500000000002851, -0.6435165436226433 
4.510000000002828, -0.6430178657086139 
4.520000000002804, -0.6425169080195637 
4.530000000002781, -0.6420842920536929 
4.540000000002758, -0.6418426436650221 
4.5500000000027345, -0.6419939470432311 
4.560000000002711, -0.6428434602860795 
4.570000000002688, -0.6447955363863717 
4.580000000002665, -0.6482758922174744 
4.590000000002641, -0.6535364577652404 
4.600000000002618, -0.6603845943502621 
4.610000000002595, -0.6680551309745641 
4.620000000002571, -0.6754736094345534 
4.630000000002548, -0.6817815634549115 
4.640000000002525, -0.6866461427489171 
4.6500000000025015, -0.6901634262378609 
4.660000000002478, -0.6926063852466815 
4.670000000002455, -0.6942540194860857 
4.6800000000024315, -0.695329685901721 
4.690000000002408, -0.6959948477289605 
4.700000000002385, -0.6963592287757185 
4.710000000002362, -0.6964921260254108 
4.720000000002338, -0.6964307111536937 
4.730000000002315, -0.6961846357053246 
4.740000000002292, -0.6957372534845659 
4.750000000002268, -0.695044508889892 
4.760000000002245, -0.6940340970391081 
4.770000000002222, -0.6926104146136178 
4.7800000000021985, -0.6906737857375498 
4.790000000002175, -0.6881599076253297 
4.800000000002152, -0.6850899821493989 
4.810000000002129, -0.6815996380992306 
4.820000000002105, -0.6779152648991832 
4.830000000002082, -0.6742857187150667 
4.840000000002059, -0.6709146833596213 
4.850000000002035, -0.6679295435452957 
4.860000000002012, -0.6653865214747989 
4.870000000001989, -0.6632919897033076 
4.880000000001965, -0.661623301225973 
4.890000000001942, -0.6603429009285007 
4.900000000001919, -0.6594062067693758 
4.9100000000018955, -0.6587657960649909 
4.920000000001872, -0.6583740436039699 
