t, s[1].omega / s[0].omega 
0, -1.069996767791614 
0.009999999999999995, -1.0695691850067053 
0.019999999999999934, -1.0689342678195088 
0.029999999999999874, -1.068091148431175 
0.04000000000000012, -1.0670422287866677 
0.050000000000000405, -1.065797520191207 
0.06000000000000069, -1.064378444631383 
0.07000000000000098, -1.0628202548962178 
0.08000000000000126, -1.0611726138071857 
0.09000000000000155, -1.0594978964462844 
0.10000000000000184, -1.0578668987919349 
0.11000000000000212, -1.0563524090255685 
0.12000000000000241, -1.055022199168771 
0.130000000000002, -1.0539331649432626 
0.1400000000000009, -1.05312691656934 
0.1499999999999998, -1.0526254868754346 
0.1599999999999987, -1.0524262632782277 
0.1699999999999976, -1.0524978967862046 
0.1799999999999965, -1.0527808461171588 
0.1899999999999954, -1.053194583960961 
0.1999999999999943, -1.0536493903293493 
0.2099999999999932, -1.0540580394234085 
0.2199999999999921, -1.0543437600717547 
0.229999999999991, -1.054443987988451 
0.2399999999999899, -1.0543116773479784 
0.2499999999999888, -1.0539159863703191 
0.2599999999999877, -1.0532427096896297 
0.2699999999999866, -1.0522934551835854 
0.2799999999999855, -1.0510824771301346 
0.2899999999999844, -1.0496313738956475 
0.2999999999999833, -1.047963424419145 
0.3099999999999822, -1.0460998375585369 
0.3199999999999811, -1.044059272474849 
0.32999999999998, -1.041860434903384 
0.3399999999999789, -1.0395263798389374 
0.3499999999999778, -1.0370888126604931 
0.35999999999997667, -1.0345910094859059 
0.36999999999997557, -1.0320885992342304 
0.37999999999997447, -1.0296481212769526 
0.38999999999997337, -1.0273438004482218 
0.39999999999997227, -1.0252530057929896 
0.40999999999997117, -1.0234501578032713 
0.41999999999997006, -1.0219980942425737 
0.42999999999996896, -1.0209366139025327 
0.43999999999996786, -1.0202707231512682 
0.44999999999996676, -1.0199639705569128 
0.45999999999996566, -1.0199416462623783 
0.46999999999996456, -1.0201036786216664 
0.47999999999996346, -1.0203415866952108 
0.48999999999996235, -1.020552527511695 
0.49999999999996125, -1.0206468079457167 
0.5099999999999602, -1.0205497586269339 
0.519999999999959, -1.02020134480873 
0.529999999999958, -1.0195565963752078 
0.5399999999999568, -1.0185878771358854 
0.5499999999999557, -1.0172876110540476 
0.5599999999999546, -1.0156687676486331 
0.5699999999999535, -1.0137611707876708 
0.5799999999999524, -1.0116041687111679 
0.5899999999999513, -1.0092385403932238 
0.5999999999999502, -1.0067009416966115 
0.6099999999999491, -1.0040226453426224 
0.619999999999948, -1.001232184582649 
0.6299999999999469, -0.9983601063794909 
0.6399999999999458, -0.9954437701875398 
0.6499999999999447, -0.9925306484979306 
0.6599999999999436, -0.9896793777853027 
0.6699999999999425, -0.9869584904491281 
0.6799999999999414, -0.984443068833119 
0.6899999999999403, -0.9822093673505989 
0.6999999999999392, -0.9803270206973124 
0.7099999999999381, -0.9788486493924959 
0.719999999999937, -0.9777982607727487 
0.7299999999999359, -0.9771622090491927 
0.7399999999999348, -0.9768873531389543 
0.7499999999999337, -0.9768885715342733 
0.7599999999999326, -0.9770630992263607 
0.7699999999999315, -0.9773058882432523 
0.7799999999999304, -0.977520821127578 
0.7899999999999293, -0.9776260634641093 
0.7999999999999282, -0.9775551952563847 
0.8099999999999271, -0.9772570811999436 
0.819999999999926, -0.9766966506570101 
0.8299999999999249, -0.9758568037430623 
0.8399999999999238, -0.9747397695008619 
0.8499999999999227, -0.9733656304523957 
0.8599999999999216, -0.9717669923448804 
0.8699999999999205, -0.9699811436572933 
0.8799999999999194, -0.9680427197241044 
0.8899999999999183, -0.9659796440574171 
0.8999999999999172, -0.9638133692037517 
0.9099999999999161, -0.9615625364399547 
0.919999999999915, -0.9592481347560766 
0.9299999999999139, -0.9568982216441368 
0.9399999999999128, -0.9545508575847556 
0.9499999999999117, -0.9522546215532345 
0.9599999999999106, -0.9500666786758292 
0.9699999999999095, -0.9480488375312528 
0.9799999999999084, -0.9462623122359731 
0.9899999999999073, -0.9447618595153846 
0.9999999999999062, -0.943589659490502 
1.0099999999999052, -0.9427692107268579 
1.019999999999904, -0.9423000544390853 
1.029999999999903, -0.9421550191761144 
1.039999999999902, -0.9422818117051583 
1.0499999999999008, -0.9426094389134289 
1.0599999999998997, -0.9430578060984116 
1.0699999999998986, -0.9435475330202621 
1.0799999999998975, -0.9440075170776576 
1.0899999999998964, -0.9443794501019191 
1.0999999999998953, -0.9446199630023159 
1.1099999999998942, -0.9447014209506999 
1.119999999999893, -0.9446117286991259 
1.129999999999892, -0.9443526576138893 
1.1399999999998909, -0.9439360691835051 
1.1499999999998898, -0.9433782742914872 
1.1599999999998887, -0.9426940238913621 
1.1699999999998876, -0.9418922507014209 
1.1799999999998865, -0.9409751349427421 
1.1899999999998854, -0.9399406900490557 
1.1999999999998843, -0.9387876912519313 
1.2099999999998832, -0.9375211181590377 
1.219999999999882, -0.9361565490836216 
1.229999999999881, -0.934722728609673 
1.2399999999998799, -0.9332621645782248 
1.2499999999998788, -0.9318297384917724 
1.2599999999998777, -0.9304891728116947 
1.2699999999998766, -0.9293073329138958 
1.2799999999998755, -0.9283470030808075 
1.2899999999998744, -0.9276595817454892 
1.2999999999998733, -0.9272793673138445 
1.3099999999998722, -0.9272204437958319 
1.319999999999871, -0.9274761477049426 
1.32999999999987, -0.9280205408505153 
1.3399999999998689, -0.9288114676008682 
1.3499999999998678, -0.9297950911692937 
1.3599999999998666, -0.930911678725843 
1.3699999999998655, -0.9321018859504083 
1.3799999999998644, -0.9333124194056853 
1.3899999999998633, -0.9345000735701298 
1.3999999999998622, -0.93563357111817 
1.4099999999998611, -0.9366930215645823 
1.41999999999986, -0.9376670781608426 
1.429999999999859, -0.9385482437620956 
1.4399999999998578, -0.939327405094648 
1.4499999999998567, -0.9399893275339842 
1.4599999999998556, -0.9405109974431296 
1.4699999999998545, -0.9408639428540637 
1.4799999999998534, -0.9410200835356112 
1.4899999999998523, -0.9409590190994334 
1.4999999999998512, -0.9406740678253678 
1.5099999999998501, -0.9401753674935888 
1.519999999999849, -0.939490233179438 
1.529999999999848, -0.9386622920118775 
1.5399999999998468, -0.9377507911008199 
1.5499999999998457, -0.9368301649669516 
1.5599999999998446, -0.9359884297018799 
1.5699999999998435, -0.9353222969471957 
1.5799999999998424, -0.9349277926488473 
1.5899999999998413, -0.9348875307291828 
1.5999999999998402, -0.9352583145421851 
1.6099999999998391, -0.936063462859101 
1.619999999999838, -0.9372923166435431 
1.629999999999837, -0.9389061150616566 
1.6399999999998358, -0.9408472020779747 
1.6499999999998347, -0.9430484758874008 
1.6599999999998336, -0.9454413148853779 
1.6699999999998325, -0.9479614426099716 
1.6799999999998314, -0.9505526349553008 
1.6899999999998303, -0.9531680856135464 
1.6999999999998292, -0.9557691846729782 
1.709999999999828, -0.9583217603478033 
1.719999999999827, -0.9607905303285516 
1.729999999999826, -0.9631334512768603 
1.7399999999998248, -0.9652984500791472 
1.7499999999998237, -0.9672250014068242 
1.7599999999998226, -0.9688515259511377 
1.7699999999998215, -0.970126749978667 
1.7799999999998204, -0.9710205655389119 
1.7899999999998193, -0.9715297980965959 
1.7999999999998182, -0.9716772320543497 
1.809999999999817, -0.9715061353967018 
1.819999999999816, -0.9710745120370304 
1.8299999999998149, -0.9704525000934708 
1.8399999999998138, -0.9697238657067145 
1.8499999999998127, -0.9689898281937578 
1.8599999999998116, -0.968371284950636 
1.8699999999998105, -0.9680046262828665 
1.8799999999998094, -0.968027941334808 
1.8899999999998083, -0.9685591271877025 
1.8999999999998072, -0.9696732240472263 
1.909999999999806, -0.9713887050071354 
1.919999999999805, -0.973668522797065 
1.9299999999998039, -0.9764340314923774 
1.9399999999998028, -0.9795844147378843 
1.9499999999998017, -0.983014210139397 
1.9599999999998006, -0.9866250925077812 
1.9699999999997995, -0.9903315747027925 
1.9799999999997984, -0.9940618279889778 
1.9899999999997973, -0.9977548721300766 
1.9999999999997962, -1.0013551912781107 
2.0099999999998173, -1.0048061597044944 
2.0199999999998384, -1.0080444833879103 
2.0299999999998595, -1.0109985272338202 
2.0399999999998806, -1.0135929031308477 
2.0499999999999017, -1.015759319175254 
2.059999999999923, -1.0174500875639816 
2.069999999999944, -1.0186483314682426 
2.079999999999965, -1.0193702930335204 
2.089999999999986, -1.019659743570509 
2.100000000000007, -1.0195788236662033 
2.1100000000000283, -1.01920072092833 
2.1200000000000494, -1.0186075385156017 
2.1300000000000705, -1.0178934456110182 
2.1400000000000916, -1.017170127205823 
2.1500000000001127, -1.0165692096814438 
2.160000000000134, -1.0162357121694285 
2.170000000000155, -1.0163094991977777 
2.180000000000176, -1.0168986764788723 
2.190000000000197, -1.0180559861795302 
2.2000000000002182, -1.0197698419995922 
2.2100000000002393, -1.0219736317723103 
2.2200000000002604, -1.0245667673710435 
2.2300000000002815, -1.0274369259413534 
2.2400000000003026, -1.0304762919019088 
2.2500000000003237, -1.033590283658266 
2.260000000000345, -1.0367005599495627 
2.270000000000366, -1.039744398061 
2.280000000000387, -1.042671633310408 
2.290000000000408, -1.0454398517120649 
2.3000000000004293, -1.0480088447828213 
2.3100000000004504, -1.0503360538055895 
2.3200000000004715, -1.0523751343054946 
2.3300000000004926, -1.0540791499075564 
2.3400000000005137, -1.0554079974064001 
2.3500000000005348, -1.0563372602314283 
2.360000000000556, -1.0568645479263616 
2.370000000000577, -1.0570107888185536 
2.380000000000598, -1.0568170927772222 
2.390000000000619, -1.0563402764334253 
2.4000000000006403, -1.0556502198466977 
2.4100000000006614, -1.0548301201563586 
2.4200000000006825, -1.05397778949792 
2.4300000000007036, -1.0532039233322794 
2.4400000000007247, -1.0526233150558117 
2.450000000000746, -1.0523384761436927 
2.460000000000767, -1.0524208495742202 
2.470000000000788, -1.052898283794074 
2.480000000000809, -1.0537545853735768 
2.49000000000083, -1.0549396160223408 
2.5000000000008513, -1.0563831745324035 
2.5100000000008724, -1.05800669405516 
2.5200000000008935, -1.059731051456764 
2.5300000000009146, -1.061481812709593 
2.5400000000009357, -1.06319331667211 
2.550000000000957, -1.0648116939833516 
2.560000000000978, -1.0662961468290162 
2.570000000000999, -1.067618018854979 
2.58000000000102, -1.068757822056761 
2.5900000000010412, -1.0697010280331802 
2.6000000000010624, -1.070433958825738 
2.6100000000010835, -1.0709413453152201 
2.6200000000011046, -1.0712067257725135 
2.6300000000011257, -1.07121574035178 
2.6400000000011468, -1.070961044971778 
2.650000000001168, -1.070446922104135 
2.660000000001189, -1.0696922217544098 
2.67000000000121, -1.068731518930546 
2.680000000001231, -1.0676151547093604 
2.6900000000012523, -1.0664084121628181 
2.7000000000012734, -1.0651889167308357 
2.7100000000012945, -1.0640407893880615 
2.7200000000013156, -1.0630452700017556 
2.7300000000013367, -1.062270066007481 
2.740000000001358, -1.0617612873351656 
2.750000000001379, -1.0615404166518563 
2.7600000000014, -1.0616053160803616 
2.770000000001421, -1.0619323201523057 
2.780000000001442, -1.0624779207692936 
2.7900000000014633, -1.0631813149676892 
2.8000000000014844, -1.0639697480065406 
2.8100000000015055, -1.064766547611918 
2.8200000000015266, -1.0654995410923833 
2.8300000000015477, -1.066107423214997 
2.840000000001569, -1.066543197835037 
2.85000000000159, -1.066775188762501 
2.860000000001611, -1.066786307621106 
2.870000000001632, -1.0665717841649482 
2.8800000000016532, -1.0661354259522886 
2.8900000000016743, -1.0654850612774454 
2.9000000000016954, -1.0646285799798063 
2.9100000000017165, -1.0635720883319708 
2.9200000000017377, -1.0623208829625435 
2.9300000000017588, -1.0608827494366975 
2.94000000000178, -1.0592722680726345 
2.950000000001801, -1.0575147113582475 
2.960000000001822, -1.0556484897364748 
2.970000000001843, -1.0537254922957822 
2.9800000000018643, -1.0518089806709499 
2.9900000000018854, -1.0499692185456233 
3.0000000000019065, -1.0482777868845732 
3.0100000000019276, -1.0468018469276779 
3.0200000000019487, -1.0455987545491296 
3.03000000000197, -1.0447100622120198 
3.040000000001991, -1.0441540310059652 
3.050000000002012, -1.0439182097337663 
3.060000000002033, -1.0439562715701858 
3.070000000002054, -1.0441926908348067 
3.0800000000020753, -1.0445345458430735 
3.0900000000020964, -1.0448855073639571 
3.1000000000021175, -1.045156706470157 
3.1100000000021386, -1.0452723719488328 
3.1200000000021597, -1.0451716143194536 
3.130000000002181, -1.0448090302353665 
3.140000000002202, -1.0441557824192167 
3.150000000002223, -1.0432008102269374 
3.160000000002244, -1.0419504484018893 
3.1700000000022652, -1.040425035181183 
3.1800000000022863, -1.0386528850187917 
3.1900000000023074, -1.0366638414923466 
3.2000000000023285, -1.0344850398522243 
3.2100000000023496, -1.0321403147012984 
3.2200000000023707, -1.0296529216748507 
3.230000000002392, -1.0270500199936763 
3.240000000002413, -1.0243670869997865 
3.250000000002434, -1.0216508628350127 
3.260000000002455, -1.01896013397766 
3.2700000000024763, -1.016364342825569 
3.2800000000024974, -1.0139403732607246 
3.2900000000025185, -1.011767618624033 
3.3000000000025396, -1.0099207175480662 
3.3100000000025607, -1.0084591596945254 
3.3200000000025818, -1.0074145809877064 
3.330000000002603, -1.0067796650962082 
3.340000000002624, -1.0065043724409188 
3.350000000002645, -1.0065028629298682 
3.360000000002666, -1.0066688081100266 
3.3700000000026873, -1.0068923912842151 
3.3800000000027084, -1.0070726964002288 
3.3900000000027295, -1.0071233010994403 
3.4000000000027506, -1.0069729950304223 
3.4100000000027717, -1.0065651874786437 
3.420000000002793, -1.0058586966261538 
3.430000000002814, -1.0048303645749113 
3.440000000002835, -1.0034776649181314 
3.450000000002856, -1.0018185108424666 
3.460000000002877, -0.9998866518865865 
3.4700000000028983, -0.9977237083031242 
3.4800000000029194, -0.9953710314641149 
3.4900000000029405, -0.9928646164924084 
3.5000000000029616, -0.9902344906040926 
3.5100000000029827, -0.9875078682704291 
3.520000000003004, -0.9847141252540222 
3.530000000003025, -0.9818895335746022 
3.540000000003046, -0.9790802981668919 
3.550000000003067, -0.9763432342576919 
3.5600000000030882, -0.9737440927418924 
3.5700000000031094, -0.9713538809570414 
3.5800000000031305, -0.9692434264271189 
3.5900000000031516, -0.967476083077861 
3.6000000000031727, -0.9660985597131218 
3.6100000000031938, -0.9651310251831448 
3.620000000003215, -0.9645595045454167 
3.630000000003236, -0.9643343512899397 
3.640000000003257, -0.9643766904520831 
3.650000000003278, -0.964590923115221 
3.6600000000032993, -0.9648785322992887 
3.6700000000033204, -0.9651486917704536 
3.6800000000033415, -0.9653239310104881 
3.6900000000033626, -0.9653419912793634 
3.7000000000033837, -0.9651562508156946 
3.710000000003405, -0.9647364762673591 
3.720000000003426, -0.9640699868293745 
3.730000000003447, -0.9631617872769126 
3.740000000003468, -0.9620319384203061 
3.750000000003489, -0.960709748708283 
3.7600000000035103, -0.9592263959976819 
3.7700000000035314, -0.9576087550917659 
3.7800000000035525, -0.9558766764810053 
3.7900000000035736, -0.954044276547054 
3.8000000000035947, -0.9521241513886494 
3.810000000003616, -0.9501326275458903 
3.820000000003637, -0.9480942848884149 
3.830000000003658, -0.9460446042647049 
3.840000000003679, -0.9440302281591989 
3.8500000000037002, -0.9421067900691609 
3.8600000000037213, -0.9403346669052719 
3.8700000000037424, -0.9387734048703456 
3.8800000000037635, -0.937475777176573 
3.8900000000037847, -0.9364822396587743 
3.9000000000038058, -0.9358161395604383 
3.910000000003827, -0.9354799367118674 
3.920000000003848, -0.9354531459995991 
3.930000000003869, -0.9356931541802771 
3.94000000000389, -0.9361396581919291 
3.9500000000039113, -0.9367221272637798 
3.9600000000039324, -0.9373683690701382 
3.9700000000039535, -0.938012039948222 
3.9800000000039746, -0.9385978521622571 
3.9900000000039957, -0.9390844144071901 
4.000000000004016, -0.9394452001367269 
4.010000000003993, -0.939667912599534 
4.02000000000397, -0.939752068439524 
4.030000000003946, -0.9397046686093558 
4.040000000003923, -0.9395345813270937 
4.0500000000039, -0.9392472121497387 
4.0600000000038765, -0.9388413759418747 
4.070000000003853, -0.9383096196525116 
4.08000000000383, -0.9376418780793198 
4.090000000003807, -0.9368310334207679 
4.100000000003783, -0.9358784263537553 
4.11000000000376, -0.9347978608338017 
4.120000000003737, -0.9336176652576841 
4.130000000003713, -0.9323810796628546 
4.14000000000369, -0.9311451766365199 
4.150000000003667, -0.929977991937698 
4.1600000000036434, -0.9289532905784516 
4.17000000000362, -0.9281429749145638 
4.180000000003597, -0.9276083721962038 
4.1900000000035735, -0.927392612907929 
4.20000000000355, -0.9275161245132368 
4.210000000003527, -0.9279759455051346 
4.220000000003504, -0.92874813669829 
4.23000000000348, -0.9297920244181841 
4.240000000003457, -0.9310553643841418 
4.250000000003434, -0.9324800025981612 
4.26000000000341, -0.9340076526923962 
4.270000000003387, -0.9355851208368493 
4.280000000003364, -0.9371681308962536 
4.2900000000033405, -0.9387230390019605 
4.300000000003317, -0.9402260671097331 
4.310000000003294, -0.9416601138410595 
4.320000000003271, -0.9430097637775517 
4.330000000003247, -0.9442558354613925 
4.340000000003224, -0.9453714336931038 
4.350000000003201, -0.9463214994218878 
4.360000000003177, -0.9470668458850315 
4.370000000003154, -0.9475717472518378 
4.380000000003131, -0.9478122849458244 
4.390000000003107, -0.9477822560239627 
4.400000000003084, -0.9474950415765447 
4.410000000003061, -0.9469822954779875 
4.4200000000030375, -0.9462918067623428 
4.430000000003014, -0.9454865234641464 
4.440000000002991, -0.9446450026796532 
4.450000000002968, -0.9438615720591353 
4.460000000002944, -0.9432432991075241 
4.470000000002921, -0.9429013441380556 
4.480000000002898, -0.9429367882431495 
4.490000000002874, -0.9434246031554291 
4.500000000002851, -0.9444016293144117 
4.510000000002828, -0.9458631671109 
4.520000000002804, -0.9477686692938331 
4.530000000002781, -0.9500531100413548 
4.540000000002758, -0.9526394299385725 
4.5500000000027345, -0.9554488610706742 
4.560000000002711, -0.9584079884173787 
4.570000000002688, -0.9614525949510465 
4.580000000002665, -0.9645285397727467 
4.590000000002641, -0.9675898043052581 
4.600000000002618, -0.9705940206843403 
4.610000000002595, -0.9734964681899285 
4.620000000002571, -0.9762445081258285 
4.630000000002548, -0.9787752032730687 
4.640000000002525, -0.9810186160294777 
4.6500000000025015, -0.9829073039480223 
4.660000000002478, -0.9843892214327868 
4.670000000002455, -0.9854386693499231 
4.6800000000024315, -0.9860605509025205 
4.690000000002408, -0.9862870699711411 
4.700000000002385, -0.9861702352785453 
4.710000000002362, -0.985775109416627 
4.720000000002338, -0.9851772902496958 
4.730000000002315, -0.9844652397894391 
4.740000000002292, -0.9837452133252784 
4.750000000002268, -0.9831442847354693 
4.760000000002245, -0.9828060283382362 
4.770000000002222, -0.9828752619525222 
4.7800000000021985, -0.9834737186502183 
4.790000000002175, -0.9846752435948939 
4.800000000002152, -0.9864916810670666 
4.810000000002129, -0.9888756483336881 
4.820000000002105, -0.9917373030776807 
4.830000000002082, -0.9949662278264416 
4.840000000002059, -0.998450151481486 
4.850000000002035, -1.0020867388623196 
4.860000000002012, -1.0057886559946065 
4.870000000001989, -1.009483626824475 
4.880000000001965, -1.013111025860007 
4.890000000001942, -1.0166162028907233 
4.900000000001919, -1.0199439996801216 
4.9100000000018955, -1.023033667244104 
4.920000000001872, -1.02581788523066 
4.930000000001849, -1.0282278467474923 
