t, s[1].omega / s[0].omega 
0, -1.160008541919111 
0.009999999999999995, -1.1607066428374202 
0.019999999999999934, -1.161096222367092 
0.029999999999999874, -1.1611931023667337 
0.04000000000000012, -1.1610301999948647 
0.050000000000000405, -1.1606529336560283 
0.06000000000000069, -1.160116497912789 
0.07000000000000098, -1.1594870474518042 
0.08000000000000126, -1.1588436777293782 
0.09000000000000155, -1.1582737436509394 
0.10000000000000184, -1.1578569335643096 
0.11000000000000212, -1.1576442479191675 
0.12000000000000241, -1.1576445912140445 
0.130000000000002, -1.157824962911424 
0.1400000000000009, -1.1581211086245753 
0.1499999999999998, -1.158453712232735 
0.1599999999999987, -1.1587447612771198 
0.1699999999999976, -1.1589282344773266 
0.1799999999999965, -1.1589533825033709 
0.1899999999999954, -1.158783915437708 
0.1999999999999943, -1.158396788340658 
0.2099999999999932, -1.1577815347213678 
0.2199999999999921, -1.156939567143751 
0.229999999999991, -1.155883656151004 
0.2399999999999899, -1.154638835646716 
0.2499999999999888, -1.1532455269939916 
0.2599999999999877, -1.1517640140997762 
0.2699999999999866, -1.1502775323658825 
0.2799999999999855, -1.1488897176846522 
0.2899999999999844, -1.1477112365043913 
0.2999999999999833, -1.1468320337299098 
0.3099999999999822, -1.1462857046781874 
0.3199999999999811, -1.1460289651684228 
0.32999999999998, -1.1459573150195819 
0.3399999999999789, -1.1459461728394524 
0.3499999999999778, -1.1458840137399826 
0.35999999999997667, -1.1456793217455759 
0.36999999999997557, -1.1452489344294376 
0.37999999999997447, -1.144503659569595 
0.38999999999997337, -1.143342786594901 
0.39999999999997227, -1.1416633011187696 
0.40999999999997117, -1.139383068052382 
0.41999999999997006, -1.1364693483927768 
0.42999999999996896, -1.13296111009991 
0.43999999999996786, -1.1289809665271453 
0.44999999999996676, -1.1247414815252519 
0.45999999999996566, -1.1205457527318896 
0.46999999999996456, -1.1167625050331251 
0.47999999999996346, -1.1137448541294315 
0.48999999999996235, -1.111698417019631 
0.49999999999996125, -1.1105836619278595 
0.5099999999999602, -1.1101503380595599 
0.519999999999959, -1.1100804319395556 
0.529999999999958, -1.110114076821453 
0.5399999999999568, -1.1100854322305742 
0.5499999999999557, -1.109892974194921 
0.5599999999999546, -1.1094520388473037 
0.5699999999999535, -1.1086520025357887 
0.5799999999999524, -1.1073203068547122 
0.5899999999999513, -1.105194846824867 
0.5999999999999502, -1.1019199052690796 
0.6099999999999491, -1.0970984384177682 
0.619999999999948, -1.0904317901907006 
0.6299999999999469, -1.0819292451807134 
0.6399999999999458, -1.0720897921477233 
0.6499999999999447, -1.061919452091845 
0.6599999999999436, -1.0526966526622528 
0.6699999999999425, -1.0455247609100176 
0.6799999999999414, -1.040889630535205 
0.6899999999999403, -1.0385310921147664 
0.6999999999999392, -1.037725250621509 
0.7099999999999381, -1.0377139975222303 
0.719999999999937, -1.0379629399440566 
0.7299999999999359, -1.0381855413930567 
0.7399999999999348, -1.0382553872827156 
0.7499999999999337, -1.0381142890020763 
0.7599999999999326, -1.0377092877706933 
0.7699999999999315, -1.0369505801787156 
0.7799999999999304, -1.035674998792293 
0.7899999999999293, -1.0336068052412029 
0.7999999999999282, -1.0303241544454051 
0.8099999999999271, -1.0252698224857426 
0.819999999999926, -1.0178786950205514 
0.8299999999999249, -1.0078756209565174 
0.8399999999999238, -0.995651465589155 
0.8499999999999227, -0.9824267691183003 
0.8599999999999216, -0.9699422362858747 
0.8699999999999205, -0.9597765194057313 
0.8799999999999194, -0.9527309436148732 
0.8899999999999183, -0.9486700734713939 
0.8999999999999172, -0.9468353374905423 
0.9099999999999161, -0.9463245010181648 
0.919999999999915, -0.9464219630226897 
0.9299999999999139, -0.9466891355751894 
0.9399999999999128, -0.9469057993428228 
0.9499999999999117, -0.9469757895636827 
0.9599999999999106, -0.9468525955530314 
0.9699999999999095, -0.9464922026775021 
0.9799999999999084, -0.9458228316478199 
0.9899999999999073, -0.9447215983287023 
0.9999999999999062, -0.9429958158507323 
1.0099999999999052, -0.9403791453869476 
1.019999999999904, -0.9365673159458074 
1.029999999999903, -0.9313186306302743 
1.039999999999902, -0.9246040247613667 
1.0499999999999008, -0.9167211948857978 
1.0599999999998997, -0.9082740444553922 
1.0699999999998986, -0.9000134613901964 
1.0799999999998975, -0.8926348326944338 
1.0899999999998964, -0.8866243161730061 
1.0999999999998953, -0.8821862568268056 
1.1099999999998942, -0.8792499826048203 
1.119999999999893, -0.8775438684559566 
1.129999999999892, -0.8767073797260354 
1.1399999999998909, -0.87639553857255 
1.1499999999998898, -0.8763397998803997 
1.1599999999998887, -0.8763598684444357 
1.1699999999998876, -0.8763446712766119 
1.1799999999998865, -0.8762239521304265 
1.1899999999998854, -0.875943316397227 
1.1999999999998843, -0.875447351090205 
1.2099999999998832, -0.8746723926665967 
1.219999999999882, -0.8735509090072199 
1.229999999999881, -0.8720287143697861 
1.2399999999998799, -0.8700900740578348 
1.2499999999998788, -0.8677764538973708 
1.2599999999998777, -0.8651840345336359 
1.2699999999998766, -0.8624400036457285 
1.2799999999998755, -0.8596738953206652 
1.2899999999998744, -0.8569998367435451 
1.2999999999998733, -0.8545124692127333 
1.3099999999998722, -0.852289421244263 
1.319999999999871, -0.8503924981759422 
1.32999999999987, -0.8488641364896786 
1.3399999999998689, -0.8477205156129 
1.3499999999998678, -0.846945875784533 
1.3599999999998666, -0.8464928988582182 
1.3699999999998655, -0.8462910045002436 
1.3799999999998644, -0.846259760764809 
1.3899999999998633, -0.8463218297977239 
1.3999999999998622, -0.8464110785763381 
1.4099999999998611, -0.8464751734419023 
1.41999999999986, -0.8464749802116638 
1.429999999999859, -0.8463836545901312 
1.4399999999998578, -0.8461866990770506 
1.4499999999998567, -0.8458819080483193 
1.4599999999998556, -0.8454770463241441 
1.4699999999998545, -0.8449847139105356 
1.4799999999998534, -0.8444168481857522 
1.4899999999998523, -0.8437823395649279 
1.4999999999998512, -0.8430889730349576 
1.5099999999998501, -0.8423478515004602 
1.519999999999849, -0.8415775647001433 
1.529999999999848, -0.8408066477268191 
1.5399999999998468, -0.8400741746594859 
1.5499999999998457, -0.8394283650574839 
1.5599999999998446, -0.8389225693711317 
1.5699999999998435, -0.8386083270880293 
1.5799999999998424, -0.8385267073044698 
1.5899999999998413, -0.8387007202705622 
1.5999999999998402, -0.8391317036687223 
1.6099999999998391, -0.8398008923500037 
1.619999999999838, -0.8406750343022928 
1.629999999999837, -0.8417133541637373 
1.6399999999998358, -0.8428729545060542 
1.6499999999998347, -0.8441106161722759 
1.6599999999998336, -0.8453805312798929 
1.6699999999998325, -0.8466297091921147 
1.6799999999998314, -0.8477952872167164 
1.6899999999998303, -0.8488088691890321 
1.6999999999998292, -0.8496094501441173 
1.709999999999828, -0.8501590630118534 
1.719999999999827, -0.8504511104365312 
1.729999999999826, -0.8505065361190074 
1.7399999999998248, -0.8503625619760499 
1.7499999999998237, -0.8500627557704767 
1.7599999999998226, -0.8496541737956175 
1.7699999999998215, -0.849192795460422 
1.7799999999998204, -0.8487557423824754 
1.7899999999998193, -0.8484567423035208 
1.7999999999998182, -0.84845813661821 
1.809999999999817, -0.8489694277771862 
1.819999999999816, -0.8502234331698932 
1.8299999999998149, -0.8524302953215367 
1.8399999999998138, -0.8557225321695665 
1.8499999999998127, -0.8601093619057787 
1.8599999999998116, -0.8654507792524351 
1.8699999999998105, -0.8714522828560154 
1.8799999999998094, -0.8776842473250038 
1.8899999999998083, -0.8836419920137848 
1.8999999999998072, -0.8888562528391641 
1.909999999999806, -0.8930197454627378 
1.919999999999805, -0.896054513991871 
1.9299999999998039, -0.8980766149876958 
1.9399999999998028, -0.8992967351783594 
1.9499999999998017, -0.8999286292978296 
1.9599999999998006, -0.9001415016144051 
1.9699999999997995, -0.9000502175317366 
1.9799999999997984, -0.8997246735149519 
1.9899999999997973, -0.8992066689600758 
1.9999999999997962, -0.898533011270065 
2.0099999999998173, -0.8977715532289728 
2.0199999999998384, -0.8970808166680395 
2.0299999999998595, -0.896797964503118 
2.0399999999998806, -0.8975317297987349 
2.0499999999999017, -0.9001812305688409 
2.059999999999923, -0.9057555490640888 
2.069999999999944, -0.9149264954991656 
2.079999999999965, -0.9274699167869416 
2.089999999999986, -0.9420079195608102 
2.100000000000007, -0.9564222450181274 
2.1100000000000283, -0.9687873982045682 
2.1200000000000494, -0.9781302384381881 
2.1300000000000705, -0.9844957857885914 
2.1400000000000916, -0.9884984957212076 
2.1500000000001127, -0.9908532470553775 
2.160000000000134, -0.9921352628029523 
2.170000000000155, -0.9927320282245246 
2.180000000000176, -0.9928770130361093 
2.190000000000197, -0.9926966981663545 
2.2000000000002182, -0.9922482384844775 
2.2100000000002393, -0.9915488236092793 
2.2200000000002604, -0.9906092240679328 
2.2300000000002815, -0.9894934238797666 
2.2400000000003026, -0.988432471386815 
2.2500000000003237, -0.9880001215914431 
2.260000000000345, -0.9892641444179917 
2.270000000000366, -0.9936667991106687 
2.280000000000387, -1.002378058983357 
2.290000000000408, -1.01532150823988 
2.3000000000004293, -1.030723179034433 
2.3100000000004504, -1.045860132997066 
2.3200000000004715, -1.0584842926844529 
2.3300000000004926, -1.0676874413189026 
2.3400000000005137, -1.0737330536343777 
2.3500000000005348, -1.077401684261204 
2.360000000000556, -1.0794779347189745 
2.370000000000577, -1.0805463481732078 
2.380000000000598, -1.0809809057458593 
2.390000000000619, -1.0809986511332246 
2.4000000000006403, -1.0807156955500676 
2.4100000000006614, -1.0801927726395546 
2.4200000000006825, -1.0794801594120187 
2.4300000000007036, -1.0786814987181343 
2.4400000000007247, -1.0780524010869335 
2.450000000000746, -1.0781093343528858 
2.460000000000767, -1.0796327632061227 
2.470000000000788, -1.0834049708688707 
2.480000000000809, -1.0897275802690682 
2.49000000000083, -1.0981011611815696 
2.5000000000008513, -1.1073896713025797 
2.5100000000008724, -1.1163205237880167 
2.5200000000008935, -1.1239353667936927 
2.5300000000009146, -1.1297835006403292 
2.5400000000009357, -1.1338735287450556 
2.550000000000957, -1.1364931466991945 
2.560000000000978, -1.1380171139520798 
2.570000000000999, -1.1387810193747845 
2.58000000000102, -1.1390336476161285 
2.5900000000010412, -1.1389410751042048 
2.6000000000010624, -1.138613827733158 
2.6100000000010835, -1.1381432231173032 
2.6200000000011046, -1.1376432974517292 
2.6300000000011257, -1.137289516950344 
2.6400000000011468, -1.137324705617894 
2.650000000001168, -1.137994799959732 
2.660000000001189, -1.1394297950841061 
2.67000000000121, -1.1415647374584839 
2.680000000001231, -1.1441736956481556 
2.6900000000012523, -1.1469741645923637 
2.7000000000012734, -1.149713370735681 
2.7100000000012945, -1.152202169986755 
2.7200000000013156, -1.1543147710803412 
2.7300000000013367, -1.1559799232153254 
2.740000000001358, -1.1571747449415253 
2.750000000001379, -1.1579191680205698 
2.7600000000014, -1.1582655847626695 
2.770000000001421, -1.1582838404727496 
2.780000000001442, -1.1580480768171235 
2.7900000000014633, -1.157632014368164 
2.8000000000014844, -1.1571137635805546 
2.8100000000015055, -1.1565841160647365 
2.8200000000015266, -1.1561465384903182 
2.8300000000015477, -1.1558990312084978 
2.840000000001569, -1.155903563028525 
2.85000000000159, -1.1561650919741937 
2.860000000001611, -1.156635323409603 
2.870000000001632, -1.1572339350342957 
2.8800000000016532, -1.1578716781936331 
2.8900000000016743, -1.1584670922562792 
2.9000000000016954, -1.1589552084299164 
2.9100000000017165, -1.1592893931771246 
2.9200000000017377, -1.1594391762229843 
2.9300000000017588, -1.1593870196430975 
2.94000000000178, -1.1591257783632902 
2.950000000001801, -1.1586575770743397 
2.960000000001822, -1.1579942682800068 
2.970000000001843, -1.1571592264141703 
2.9800000000018643, -1.1561900123659488 
2.9900000000018854, -1.1551409691492727 
3.0000000000019065, -1.1540835213151994 
3.0100000000019276, -1.1531010668747679 
3.0200000000019487, -1.1522767153991638 
3.03000000000197, -1.1516747749279013 
3.040000000001991, -1.1513199427990688 
3.050000000002012, -1.151183908153227 
3.060000000002033, -1.151191436525532 
3.070000000002054, -1.1512449735203034 
3.0800000000020753, -1.1512498897456074 
3.0900000000020964, -1.1511250577274097 
3.1000000000021175, -1.1507998963065829 
3.1100000000021386, -1.1502085133669158 
3.1200000000021597, -1.149289634945918 
3.130000000002181, -1.1479943303950786 
3.140000000002202, -1.1462973018432914 
3.150000000002223, -1.1442054363531606 
3.160000000002244, -1.1417613161181444 
3.1700000000022652, -1.1390453510485066 
3.1800000000022863, -1.1361810707490199 
3.1900000000023074, -1.1333415296020581 
3.2000000000023285, -1.1307438584458898 
3.2100000000023496, -1.1286118436815404 
3.2200000000023707, -1.127100646622232 
3.230000000002392, -1.1262224419740565 
3.240000000002413, -1.125839746474989 
3.250000000002434, -1.1257401262238862 
3.260000000002455, -1.1257255430942228 
3.2700000000024763, -1.1256523216428724 
3.2800000000024974, -1.1254197146727827 
3.2900000000025185, -1.1249368608608188 
3.3000000000025396, -1.1240895357586953 
3.3100000000025607, -1.1227151225841823 
3.3200000000025818, -1.1205934008781684 
3.330000000002603, -1.1174673913182285 
3.340000000002624, -1.1131085109403434 
3.350000000002645, -1.107420678674286 
3.360000000002666, -1.1005469314297351 
3.3700000000026873, -1.0929293414425527 
3.3800000000027084, -1.0852844552799117 
3.3900000000027295, -1.0784647436441002 
3.4000000000027506, -1.0731991970104617 
3.4100000000027717, -1.0698071296144405 
3.420000000002793, -1.0680906397636485 
3.430000000002814, -1.0675142160924511 
3.440000000002835, -1.0675111062566265 
3.450000000002856, -1.0676768007611723 
3.460000000002877, -1.0677890902291027 
3.4700000000028983, -1.067741027161722 
3.4800000000029194, -1.0674680132002854 
3.4900000000029405, -1.0668940276081185 
3.5000000000029616, -1.0658905171507285 
3.5100000000029827, -1.0642371951905198 
3.520000000003004, -1.061584614803797 
3.530000000003025, -1.057441909696411 
3.540000000003046, -1.0512464713303937 
3.550000000003067, -1.0425819160613217 
3.5600000000030882, -1.0315271438985172 
3.5700000000031094, -1.0189381699070876 
3.5800000000031305, -1.0063697383462384 
3.5900000000031516, -0.9955409462187426 
3.6000000000031727, -0.9876258735456405 
3.6100000000031938, -0.9828401318891501 
3.620000000003215, -0.9805754298802546 
3.630000000003236, -0.9798923080845855 
3.640000000003257, -0.9799669993181903 
3.650000000003278, -0.980270673284631 
3.6600000000032993, -0.9805347469045855 
3.6700000000033204, -0.9806455840497545 
3.6800000000033415, -0.9805543163866963 
3.6900000000033626, -0.9802193914407555 
3.7000000000033837, -0.9795704549139266 
3.710000000003405, -0.9784795564363676 
3.720000000003426, -0.9767329569141342 
3.730000000003447, -0.9740101448941868 
3.740000000003468, -0.9698977393550094 
3.750000000003489, -0.9639849056629096 
3.7600000000035103, -0.9560649964584309 
3.7700000000035314, -0.9463699974031676 
3.7800000000035525, -0.9356620383659283 
3.7900000000035736, -0.9250604176147939 
3.8000000000035947, -0.915682490967374 
3.810000000003616, -0.9083008063073118 
3.820000000003637, -0.9031714976369745 
3.830000000003658, -0.9000739242074417 
3.840000000003679, -0.8985024224060225 
3.8500000000037002, -0.8978933994441898 
3.8600000000037213, -0.8977826544018137 
3.8700000000037424, -0.8978582364399701 
3.8800000000037635, -0.8979392653574534 
3.8900000000037847, -0.8979280685331122 
3.9000000000038058, -0.8977655977676406 
3.910000000003827, -0.8973992856050668 
3.920000000003848, -0.8967623176412625 
3.930000000003869, -0.8957627845438761 
3.94000000000389, -0.8942855610253131 
3.9500000000039113, -0.8922135710034163 
3.9600000000039324, -0.8894705631587658 
3.9700000000039535, -0.8860700649850382 
3.9800000000039746, -0.8821386403432392 
3.9900000000039957, -0.8778928498278219 
4.000000000004016, -0.8735853089593636 
4.010000000003993, -0.8694546322779582 
4.02000000000397, -0.8656983321116763 
4.030000000003946, -0.8624635004766447 
4.040000000003923, -0.859842218277071 
4.0500000000039, -0.8578657178070868 
4.0600000000038765, -0.8565012539826983 
4.070000000003853, -0.8556594151774906 
4.08000000000383, -0.8552145572504515 
4.090000000003807, -0.8550318971319829 
4.100000000003783, -0.8549902278240029 
4.11000000000376, -0.8549930059678518 
4.120000000003737, -0.8549681346781692 
4.130000000003713, -0.8548617403782254 
4.14000000000369, -0.8546318554021595 
4.150000000003667, -0.8542459925886485 
4.1600000000036434, -0.8536836839959493 
4.17000000000362, -0.85294156644888 
4.180000000003597, -0.8520359297691718 
4.1900000000035735, -0.8509987540858248 
4.20000000000355, -0.8498685520436929 
4.210000000003527, -0.8486818105490166 
4.220000000003504, -0.847469801750546 
4.23000000000348, -0.8462608551340807 
4.240000000003457, -0.8450848668117823 
4.250000000003434, -0.8439767104652756 
4.26000000000341, -0.8429766909615333 
4.270000000003387, -0.8421275378561031 
4.280000000003364, -0.8414684584846898 
4.2900000000033405, -0.8410278125330543 
4.300000000003317, -0.8408168152071249 
4.310000000003294, -0.840826658711868 
4.320000000003271, -0.8410302649048468 
4.330000000003247, -0.841388029682619 
4.340000000003224, -0.8418553922446849 
4.350000000003201, -0.8423896969623487 
4.360000000003177, -0.8429545985663254 
4.370000000003154, -0.8435213599559246 
4.380000000003131, -0.8440671193034699 
4.390000000003107, -0.8445708309157205 
4.400000000003084, -0.8450087698199319 
4.410000000003061, -0.8453527381261112 
4.4200000000030375, -0.845573485827525 
4.430000000003014, -0.8456483932207334 
4.440000000002991, -0.845568779865763 
4.450000000002968, -0.8453424986301064 
4.460000000002944, -0.8449918184796154 
4.470000000002921, -0.8445503571053576 
4.480000000002898, -0.8440627592183609 
4.490000000002874, -0.8435880634683739 
4.500000000002851, -0.8432046150025883 
4.510000000002828, -0.8430121532351219 
4.520000000002804, -0.8431262863301999 
4.530000000002781, -0.8436632878494044 
4.540000000002758, -0.8447187290434008 
4.5500000000027345, -0.846348059153566 
4.560000000002711, -0.8485562353603143 
4.570000000002688, -0.851297086673363 
4.580000000002665, -0.854476901109026 
4.590000000002641, -0.8579562030460632 
4.600000000002618, -0.8615498817141616 
4.610000000002595, -0.8650351289544258 
4.620000000002571, -0.8681804055897263 
4.630000000002548, -0.8707962907850895 
4.640000000002525, -0.87278423968145 
4.6500000000025015, -0.8741502943893549 
4.660000000002478, -0.8749762641055552 
4.670000000002455, -0.8753729872698901 
4.6800000000024315, -0.8754439205203719 
4.690000000002408, -0.8752693369322897 
4.700000000002385, -0.8749073179142737 
4.710000000002362, -0.8744057993880414 
4.720000000002338, -0.873824259787024 
4.730000000002315, -0.8732676389263725 
4.740000000002292, -0.8729342047196029 
4.750000000002268, -0.8731686965252008 
4.760000000002245, -0.8744903822187016 
4.770000000002222, -0.8775443422652524 
4.7800000000021985, -0.8829330001690121 
4.790000000002175, -0.8909462535215198 
4.800000000002152, -0.9012992179831205 
4.810000000002129, -0.9130438568443429 
4.820000000002105, -0.9247843337697821 
4.830000000002082, -0.9351597908835153 
4.840000000002059, -0.9433283366994019 
4.850000000002035, -0.9491373413404949 
4.860000000002012, -0.9529317496383769 
4.870000000001989, -0.9552343305109003 
4.880000000001965, -0.9565211435477765 
4.890000000001942, -0.9571393127071405 
4.900000000001919, -0.9573102599057386 
4.9100000000018955, -0.957160410374648 
4.920000000001872, -0.9567519789019148 
4.930000000001849, -0.956109190997464 
