t, s[1].omega / s[0].omega 
0, -1.2599981299117513 
0.009999999999999995, -1.259683961488569 
0.019999999999999934, -1.259123246986215 
0.029999999999999874, -1.2583320276232077 
0.04000000000000012, -1.2573396301534987 
0.050000000000000405, -1.2561930884636539 
0.06000000000000069, -1.2549618192763599 
0.07000000000000098, -1.2537391218314746 
0.08000000000000126, -1.2526360090442756 
0.09000000000000155, -1.2517615148398347 
0.10000000000000184, -1.2511855295873429 
0.11000000000000212, -1.250899592005924 
0.12000000000000241, -1.2508125889542405 
0.130000000000002, -1.25079206764388 
0.1400000000000009, -1.2507110880228502 
0.1499999999999998, -1.2504626686745686 
0.1599999999999987, -1.2499440322985351 
0.1699999999999976, -1.2490316968280932 
0.1799999999999965, -1.2475639822931053 
0.1899999999999954, -1.2453420914457163 
0.1999999999999943, -1.2421585614275767 
0.2099999999999932, -1.2378560013679396 
0.2199999999999921, -1.232410649013312 
0.229999999999991, -1.2260310457204517 
0.2399999999999899, -1.2192478874414163 
0.2499999999999888, -1.2129118183667693 
0.2599999999999877, -1.207954269206203 
0.2699999999999866, -1.2049152051949685 
0.2799999999999855, -1.2036271459889472 
0.2899999999999844, -1.20343007619981 
0.2999999999999833, -1.2036568622291235 
0.3099999999999822, -1.2038958787003042 
0.3199999999999811, -1.203963593382367 
0.32999999999998, -1.203783126780777 
0.3399999999999789, -1.2032864364516114 
0.3499999999999778, -1.2023471722736496 
0.35999999999997667, -1.2007165777835846 
0.36999999999997557, -1.1979409644559602 
0.37999999999997447, -1.1932718157180564 
0.38999999999997337, -1.185672276745532 
0.39999999999997227, -1.1742025244354655 
0.40999999999997117, -1.1591048979591618 
0.41999999999997006, -1.1430778385430425 
0.42999999999996896, -1.1306835118659107 
0.43999999999996786, -1.1250240157211415 
0.44999999999996676, -1.1253325130075542 
0.45999999999996566, -1.128522767135985 
0.46999999999996456, -1.132008770335472 
0.47999999999996346, -1.1346769653168285 
0.48999999999996235, -1.136385962503997 
0.49999999999996125, -1.1373321695224798 
0.5099999999999602, -1.1377328437103842 
0.519999999999959, -1.137732623294235 
0.529999999999958, -1.1373940444277857 
0.5399999999999568, -1.1367046105600553 
0.5499999999999557, -1.1355827862019734 
0.5599999999999546, -1.133895617388041 
0.5699999999999535, -1.1315387613480765 
0.5799999999999524, -1.1286836680556938 
0.5899999999999513, -1.1262761223690205 
0.5999999999999502, -1.1264940781507222 
0.6099999999999491, -1.1321355421486115 
0.619999999999948, -1.1443233105176946 
0.6299999999999469, -1.1606741223862735 
0.6399999999999458, -1.1767986126784309 
0.6499999999999447, -1.1895136512551918 
0.6599999999999436, -1.1980776966577291 
0.6699999999999425, -1.2032621953543248 
0.6799999999999414, -1.2061683291930902 
0.6899999999999403, -1.2076710980709393 
0.6999999999999392, -1.2083312306765939 
0.7099999999999381, -1.20847022524743 
0.719999999999937, -1.208260504222912 
0.7299999999999359, -1.2077970157011957 
0.7399999999999348, -1.2071619428614684 
0.7499999999999337, -1.2065041038280437 
0.7599999999999326, -1.2061311804674686 
0.7699999999999315, -1.2065377445220427 
0.7799999999999304, -1.208234372891641 
0.7899999999999293, -1.2114075807123144 
0.7999999999999282, -1.215737031372284 
0.8099999999999271, -1.2205802612067675 
0.819999999999926, -1.225300289878178 
0.8299999999999249, -1.2294536257565378 
0.8399999999999238, -1.2328118866438773 
0.8499999999999227, -1.2353147673315028 
0.8599999999999216, -1.2370161044659942 
0.8699999999999205, -1.238035470021366 
0.8799999999999194, -1.2385156282086225 
0.8899999999999183, -1.2385914608447735 
0.8999999999999172, -1.2383765461008782 
0.9099999999999161, -1.2379675546861186 
0.919999999999915, -1.2374602111200654 
0.9299999999999139, -1.2369643126972725 
0.9399999999999128, -1.236600019034018 
0.9499999999999117, -1.2364663910743632 
0.9599999999999106, -1.2366025421439042 
0.9699999999999095, -1.2369764968892096 
0.9799999999999084, -1.2375073932249712 
0.9899999999999073, -1.2380966413228718 
0.9999999999999062, -1.2386504346389717 
1.0099999999999052, -1.239091698710173 
1.019999999999904, -1.2393635729377084 
1.029999999999903, -1.2394273808774154 
1.039999999999902, -1.2392589695182585 
1.0499999999999008, -1.2388459267608722 
1.0599999999998997, -1.238186237650237 
1.0699999999998986, -1.2372884575543672 
1.0799999999998975, -1.2361738432466087 
1.0899999999998964, -1.2348807804163777 
1.0999999999998953, -1.2334707511586411 
1.1099999999998942, -1.2320331963847937 
1.119999999999893, -1.2306843765701099 
1.129999999999892, -1.2295522781455124 
1.1399999999998909, -1.2287395031652841 
1.1499999999998898, -1.2282737271420778 
1.1599999999998887, -1.228085220609014 
1.1699999999998876, -1.2280396037793613 
1.1799999999998865, -1.2279952547971438 
1.1899999999998854, -1.2278343310447695 
1.1999999999998843, -1.2274554754140719 
1.2099999999998832, -1.226747883352182 
1.219999999999882, -1.2255664143127118 
1.229999999999881, -1.223720161480035 
1.2399999999998799, -1.220985469702282 
1.2499999999998788, -1.2171523664325927 
1.2599999999998777, -1.212103626230678 
1.2699999999998766, -1.2059138276422023 
1.2799999999998755, -1.1989478430082414 
1.2899999999998744, -1.191912677818403 
1.2999999999998733, -1.1857556408828882 
1.3099999999998722, -1.1813097130127836 
1.319999999999871, -1.1788441557978877 
1.32999999999987, -1.177955047332264 
1.3399999999998689, -1.1779320319936026 
1.3499999999998678, -1.1781850982609645 
1.3599999999998666, -1.178387048687634 
1.3699999999998655, -1.1783986220585863 
1.3799999999998644, -1.1781541998708627 
1.3899999999998633, -1.1775791061588277 
1.3999999999998622, -1.1765297648433672 
1.4099999999998611, -1.1747306110884796 
1.41999999999986, -1.1716919621727695 
1.429999999999859, -1.1666284419751678 
1.4399999999998578, -1.1584906211681916 
1.4499999999998567, -1.1463758989638675 
1.4599999999998556, -1.130554887568567 
1.4699999999998545, -1.1135574533586161 
1.4799999999998534, -1.0995857510696196 
1.4899999999998523, -1.091695180287019 
1.4999999999998512, -1.0896701121750487 
1.5099999999998501, -1.0910455584715963 
1.519999999999849, -1.0934196861034147 
1.529999999999848, -1.0955175520230624 
1.5399999999998468, -1.0969722133716604 
1.5499999999998457, -1.097821596384064 
1.5599999999998446, -1.098197081367882 
1.5699999999998435, -1.0982021180812322 
1.5799999999998424, -1.0978792686343488 
1.5899999999998413, -1.0972011638149965 
1.5999999999998402, -1.0960591723578343 
1.6099999999998391, -1.0942460677341148 
1.619999999999838, -1.0914533375615032 
1.629999999999837, -1.0873528761045885 
1.6399999999998358, -1.0819032842253034 
1.6499999999998347, -1.0759735065766227 
1.6599999999998336, -1.0718723541001909 
1.6699999999998325, -1.072596371508236 
1.6799999999998314, -1.0794145167750209 
1.6899999999998303, -1.090290432060905 
1.6999999999998292, -1.1015208872474862 
1.709999999999828, -1.110512343991655 
1.719999999999827, -1.1166298173666145 
1.729999999999826, -1.120377291077705 
1.7399999999998248, -1.1225017701390567 
1.7499999999998237, -1.1235986296284752 
1.7599999999998226, -1.1240491946503008 
1.7699999999998215, -1.1240670230284677 
1.7799999999998204, -1.123752333075387 
1.7899999999998193, -1.1231319682797316 
1.7999999999998182, -1.122194381401094 
1.809999999999817, -1.1209483947331604 
1.819999999999816, -1.1195549037947923 
1.8299999999998149, -1.1185716227818356 
1.8399999999998138, -1.1192071253317568 
1.8499999999998127, -1.1231626623995579 
1.8599999999998116, -1.1316391788119147 
1.8699999999998105, -1.1440888345801674 
1.8799999999998094, -1.1581706746764584 
1.8899999999998083, -1.1711653846554737 
1.8999999999998072, -1.1813841738221467 
1.909999999999806, -1.1884834585017443 
1.919999999999805, -1.1929638480224245 
1.9299999999998039, -1.1955709383952244 
1.9399999999998028, -1.1969531986772308 
1.9499999999998017, -1.1975641906844645 
1.9599999999998006, -1.1976855774617907 
1.9699999999997995, -1.1974830037167457 
1.9799999999997984, -1.1970623134984437 
1.9899999999997973, -1.1965252085981803 
1.9999999999997962, -1.1960284564928156 
2.0099999999998173, -1.195827009330916 
2.0199999999998384, -1.1962422094110485 
2.0299999999998595, -1.1975172962601606 
2.0399999999998806, -1.1996559521250345 
2.0499999999999017, -1.2024091298420516 
2.059999999999923, -1.205415658453924 
2.069999999999944, -1.2083491131307125 
2.079999999999965, -1.2109802781741472 
2.089999999999986, -1.2131744746164301 
2.100000000000007, -1.2148698020533335 
2.1100000000000283, -1.2160590763601058 
2.1200000000000494, -1.2167766217260974 
2.1300000000000705, -1.217084658462141 
2.1400000000000916, -1.2170584234309227 
2.1500000000001127, -1.2167749473418064 
2.160000000000134, -1.216310609671114 
2.170000000000155, -1.2157471977817964 
2.180000000000176, -1.2151786514756397 
2.190000000000197, -1.2147059558339484 
2.2000000000002182, -1.214414512383402 
2.2100000000002393, -1.2143470938323437 
2.2200000000002604, -1.2144931575519338 
2.2300000000002815, -1.2147983637730806 
2.2400000000003026, -1.2151829544296555 
2.2500000000003237, -1.2155604765427515 
2.260000000000345, -1.215852637936313 
2.270000000000366, -1.2159967224715749 
2.280000000000387, -1.2159460393945563 
2.290000000000408, -1.2156677689069466 
2.3000000000004293, -1.2151415113060298 
2.3100000000004504, -1.2143588794533544 
2.3200000000004715, -1.2133236101678049 
2.3300000000004926, -1.2120527672913928 
2.3400000000005137, -1.2105802940149224 
2.3500000000005348, -1.2089632232402825 
2.360000000000556, -1.2072886648572987 
2.370000000000577, -1.2056766552330687 
2.380000000000598, -1.204269703905722 
2.390000000000619, -1.2031979196044893 
2.4000000000006403, -1.2025235025093377 
2.4100000000006614, -1.2022022850169967 
2.4200000000006825, -1.2021035815054337 
2.4300000000007036, -1.202072345090414 
2.4400000000007247, -1.2019762780499927 
2.450000000000746, -1.2017104004908497 
2.460000000000767, -1.2011738516817603 
2.470000000000788, -1.2002414101935819 
2.480000000000809, -1.1987435611528652 
2.49000000000083, -1.1964657432227919 
2.5000000000008513, -1.1931783701606649 
2.5100000000008724, -1.188703277804151 
2.5200000000008935, -1.1830068136613388 
2.5300000000009146, -1.1762968650565901 
2.5400000000009357, -1.169093095279972 
2.550000000000957, -1.1622111684372298 
2.560000000000978, -1.156564877484352 
2.570000000000999, -1.1527760210334907 
2.58000000000102, -1.1508502289143345 
2.5900000000010412, -1.1502549557946138 
2.6000000000010624, -1.1503200012074477 
2.6100000000010835, -1.1505547082325702 
2.6200000000011046, -1.1507029130391186 
2.6300000000011257, -1.150654126573774 
2.6400000000011468, -1.1503453385046631 
2.650000000001168, -1.149691807143316 
2.660000000001189, -1.1485326836064413 
2.67000000000121, -1.1465699208193343 
2.680000000001231, -1.1432918636952074 
2.6900000000012523, -1.1379108110002287 
2.7000000000012734, -1.1294303262188372 
2.7100000000012945, -1.1170660851664036 
2.7200000000013156, -1.101141087926068 
2.7300000000013367, -1.0839040859964233 
2.740000000001358, -1.0689880631634912 
2.750000000001379, -1.0592348639087759 
2.7600000000014, -1.0549507250304815 
2.770000000001421, -1.054396671626659 
2.780000000001442, -1.0554953945067707 
2.7900000000014633, -1.056892606569083 
2.8000000000014844, -1.0580126899458995 
2.8100000000015055, -1.0587232197992824 
2.8200000000015266, -1.0590547350121349 
2.8300000000015477, -1.0590595667232912 
2.840000000001569, -1.0587560927730393 
2.85000000000159, -1.058104004238156 
2.860000000001611, -1.0569800761143728 
2.870000000001632, -1.0551398619462973 
2.8800000000016532, -1.05216365821968 
2.8900000000016743, -1.047413589233353 
2.9000000000016954, -1.0400972062670926 
2.9100000000017165, -1.0296263206283418 
2.9200000000017377, -1.0163867683569663 
2.9300000000017588, -1.0024501557579306 
2.94000000000178, -0.9910579195425671 
2.950000000001801, -0.9846084445436045 
2.960000000001822, -0.9830963589862968 
2.970000000001843, -0.98467821902003 
2.9800000000018643, -0.9873259241431903 
2.9900000000018854, -0.9897999172004404 
3.0000000000019065, -0.9916493460182331 
3.0100000000019276, -0.9928523824588066 
3.0200000000019487, -0.9935285240733706 
3.03000000000197, -0.9937998673421413 
3.040000000001991, -0.993743871759745 
3.050000000002012, -0.9933809660719902 
3.060000000002033, -0.9926663220154497 
3.070000000002054, -0.9914714476854364 
3.0800000000020753, -0.98954854561391 
3.0900000000020964, -0.9864781646661254 
3.1000000000021175, -0.9816231349409799 
3.1100000000021386, -0.9741680072678447 
3.1200000000021597, -0.9634029347571136 
3.130000000002181, -0.9493730615775201 
3.140000000002202, -0.9335870516265814 
3.150000000002223, -0.9188730252640166 
3.160000000002244, -0.9079244443115047 
3.1700000000022652, -0.9017445369507963 
3.1800000000022863, -0.8995077009400217 
3.1900000000023074, -0.8996095626369666 
3.2000000000023285, -0.9006625876436031 
3.2100000000023496, -0.9018461590015361 
3.2200000000023707, -0.9028079455042191 
3.230000000002392, -0.9034552672883087 
3.240000000002413, -0.9037990651518276 
3.250000000002434, -0.9038702652797024 
3.260000000002455, -0.9036815579180001 
3.2700000000024763, -0.9032080942380402 
3.2800000000024974, -0.9023706473997561 
3.2900000000025185, -0.9010127685119388 
3.3000000000025396, -0.8988709852107164 
3.3100000000025607, -0.8955510861697927 
3.3200000000025818, -0.8905503110355071 
3.330000000002603, -0.8833915188326401 
3.340000000002624, -0.87390037682045 
3.350000000002645, -0.8625010157351598 
3.360000000002666, -0.850257803985988 
3.3700000000026873, -0.8385328367256994 
3.3800000000027084, -0.8284837290097334 
3.3900000000027295, -0.8207372249700233 
3.4000000000027506, -0.8153558904522165 
3.4100000000027717, -0.8120014765594536 
3.420000000002793, -0.8101536797281165 
3.430000000002814, -0.809289551767914 
3.440000000002835, -0.808985419069842 
3.450000000002856, -0.8089458483935104 
3.460000000002877, -0.8089865682767592 
3.4700000000028983, -0.8089999603998971 
3.4800000000029194, -0.8089215189895496 
3.4900000000029405, -0.8087045953176997 
3.5000000000029616, -0.8083044996835221 
3.5100000000029827, -0.8076717002000923 
3.520000000003004, -0.8067548838624242 
3.530000000003025, -0.8055144621190043 
3.540000000003046, -0.8039424808656765 
3.550000000003067, -0.8020773696885921 
3.5600000000030882, -0.8000008881980921 
3.5700000000031094, -0.7978166785647867 
3.5800000000031305, -0.7956244181490253 
3.5900000000031516, -0.793504370712265 
3.6000000000031727, -0.7915157680668148 
3.6100000000031938, -0.78970294209399 
3.620000000003215, -0.7881018018705375 
3.630000000003236, -0.7867426058573653 
3.640000000003257, -0.785648516589817 
3.650000000003278, -0.7848315753845465 
3.6600000000032993, -0.7842886262248081 
3.6700000000033204, -0.7839995858660249 
3.6800000000033415, -0.783929371502065 
3.6900000000033626, -0.7840331210330295 
3.7000000000033837, -0.7842629254592401 
3.710000000003405, -0.7845739571248597 
3.720000000003426, -0.7849286546992513 
3.730000000003447, -0.7852986916541983 
3.740000000003468, -0.7856649093456314 
3.750000000003489, -0.7860151470504412 
3.7600000000035103, -0.7863398471424274 
3.7700000000035314, -0.7866264342986777 
3.7800000000035525, -0.7868553272239233 
3.7900000000035736, -0.787000887463899 
3.8000000000035947, -0.7870379423247709 
3.810000000003616, -0.786950299956716 
3.820000000003637, -0.7867361406820612 
3.830000000003658, -0.7864082511959595 
3.840000000003679, -0.7859914819017209 
3.8500000000037002, -0.7855213626799473 
3.8600000000037213, -0.7850462112131458 
3.8700000000037424, -0.7846324946767602 
3.8800000000037635, -0.7843710302960283 
3.8900000000037847, -0.7843801221165232 
3.9000000000038058, -0.7848014919043027 
3.910000000003827, -0.7857868231167477 
3.920000000003848, -0.7874766494432038 
3.930000000003869, -0.7899765707108731 
3.94000000000389, -0.793335230671393 
3.9500000000039113, -0.7975243096260597 
3.9600000000039324, -0.8024178771898187 
3.9700000000039535, -0.8077734620175837 
3.9800000000039746, -0.8132319862812547 
3.9900000000039957, -0.8183656550679187 
4.000000000004016, -0.8227837796903795 
4.010000000003993, -0.826249999191044 
4.02000000000397, -0.8287315479700762 
4.030000000003946, -0.8303524287548416 
4.040000000003923, -0.8313011017660263 
4.0500000000039, -0.8317563350277373 
4.0600000000038765, -0.8318533507219407 
4.070000000003853, -0.8316792484298862 
4.08000000000383, -0.8312812971296376 
4.090000000003807, -0.8306793821154883 
4.100000000003783, -0.8298824051538405 
4.11000000000376, -0.8289153114559236 
4.120000000003737, -0.8278693256020165 
4.130000000003713, -0.826990112782769 
4.14000000000369, -0.8268048373502642 
4.150000000003667, -0.8282369005980998 
4.1600000000036434, -0.8325572962636466 
4.17000000000362, -0.8409526166868648 
4.180000000003597, -0.8536806230892038 
4.1900000000035735, -0.8693688550637239 
4.20000000000355, -0.8853661100729893 
4.210000000003527, -0.8991540260378497 
4.220000000003504, -0.9095161785791829 
4.23000000000348, -0.9165521668796419 
4.240000000003457, -0.9210048824547823 
4.250000000003434, -0.9236813153425596 
4.26000000000341, -0.925206994295374 
4.270000000003387, -0.9259965813342438 
4.280000000003364, -0.9262990265887476 
4.2900000000033405, -0.9262472793542396 
4.300000000003317, -0.9258916841615757 
4.310000000003294, -0.9252151093651166 
4.320000000003271, -0.9241322314877005 
4.330000000003247, -0.922476240055151 
4.340000000003224, -0.9199801548231923 
4.350000000003201, -0.9162731401016236 
4.360000000003177, -0.9109387147269599 
4.370000000003154, -0.9037062827721304 
4.380000000003131, -0.8948029360450892 
4.390000000003107, -0.8852878548479947 
4.400000000003084, -0.8769357137509782 
4.410000000003061, -0.8714129440723202 
4.4200000000030375, -0.8692923023317206 
4.430000000003014, -0.8698601460137763 
4.440000000002991, -0.8718185694750289 
4.450000000002968, -0.874069776877444 
4.460000000002944, -0.8760143716444693 
4.470000000002921, -0.8774570120424663 
4.480000000002898, -0.8784117882395748 
4.490000000002874, -0.8789605533393396 
4.500000000002851, -0.8791820069319055 
4.510000000002828, -0.8791239108206904 
4.520000000002804, -0.8787923510234789 
4.530000000002781, -0.8781424600542099 
4.540000000002758, -0.8770623513314637 
4.5500000000027345, -0.8753468519667932 
4.560000000002711, -0.8726654917532773 
4.570000000002688, -0.8685484097552052 
4.580000000002665, -0.8624471618646382 
4.590000000002641, -0.8539429495181693 
4.600000000002618, -0.8430864532526956 
4.610000000002595, -0.8306439308227214 
4.620000000002571, -0.8179538882611475 
4.630000000002548, -0.8064174212506613 
4.640000000002525, -0.7970013261280403 
4.6500000000025015, -0.7900520846843161 
4.660000000002478, -0.7854013538290977 
4.670000000002455, -0.7825910820427167 
4.6800000000024315, -0.7810828699982922 
4.690000000002408, -0.7803946436510795 
4.700000000002385, -0.7801603134250168 
4.710000000002362, -0.7801334004765751 
4.720000000002338, -0.7801618675233163 
4.730000000002315, -0.7801556215907719 
4.740000000002292, -0.7800583109547208 
4.750000000002268, -0.7798272986948013 
4.760000000002245, -0.7794221570971344 
4.770000000002222, -0.7788016773573416 
4.7800000000021985, -0.7779297575273885 
4.790000000002175, -0.7767887009620973 
4.800000000002152, -0.7753933173658211 
4.810000000002129, -0.7737951793478568 
4.820000000002105, -0.7720710808188209 
4.830000000002082, -0.770301993613169 
4.840000000002059, -0.7685557711321958 
4.850000000002035, -0.7668814707103603 
4.860000000002012, -0.7653134440533197 
4.870000000001989, -0.7638787924799754 
4.880000000001965, -0.7626030640504005 
4.890000000001942, -0.7615121638901953 
4.900000000001919, -0.760630703926447 
4.9100000000018955, -0.7599781219291456 
4.920000000001872, -0.7595643479482946 
4.930000000001849, -0.7593868028433458 
