t, s[1].omega / s[0].omega 
0, -0.43999924595179085 
0.009999999999999995, -0.4399691134485392 
0.019999999999999934, -0.44001281449847773 
0.029999999999999874, -0.44009231199067217 
0.04000000000000012, -0.4401603449409648 
0.050000000000000405, -0.44017407376514195 
0.06000000000000069, -0.44010441933350836 
0.07000000000000098, -0.43993759384464104 
0.08000000000000126, -0.43967050298256327 
0.09000000000000155, -0.4393041169544937 
0.10000000000000184, -0.43883771435309366 
0.11000000000000212, -0.4382645438101851 
0.12000000000000241, -0.43756763506630636 
0.130000000000002, -0.4367128868139205 
0.1400000000000009, -0.43563348428042226 
0.1499999999999998, -0.43419268099000774 
0.1599999999999987, -0.43210000316714475 
0.1699999999999976, -0.4287538423731343 
0.1799999999999965, -0.4230651796318289 
0.1899999999999954, -0.41361029242195063 
0.1999999999999943, -0.3996798374733508 
0.2099999999999932, -0.38270455497966643 
0.2199999999999921, -0.3658762765616881 
0.229999999999991, -0.3518619478798668 
0.2399999999999899, -0.34150556984986075 
0.2499999999999888, -0.33435606318348104 
0.2599999999999877, -0.32957608820595097 
0.2699999999999866, -0.32641780163621714 
0.2799999999999855, -0.32433939054557 
0.2899999999999844, -0.322980828532604 
0.2999999999999833, -0.3221123448159965 
0.3099999999999822, -0.3215912678559836 
0.3199999999999811, -0.32133269225603467 
0.32999999999998, -0.32129147181852613 
0.3399999999999789, -0.3214522986130168 
0.3499999999999778, -0.32182551442867563 
0.35999999999997667, -0.3224471628212671 
0.36999999999997557, -0.3233821542742509 
0.37999999999997447, -0.324728955857669 
0.38999999999997337, -0.3266222813501825 
0.39999999999997227, -0.3292256973525366 
0.40999999999997117, -0.3326984215044384 
0.41999999999997006, -0.3371160127301918 
0.42999999999996896, -0.34234648025053555 
0.43999999999996786, -0.34795823647506097 
0.44999999999996676, -0.35330324252189127 
0.45999999999996566, -0.35779958029348213 
0.46999999999996456, -0.36118307692000673 
0.47999999999996346, -0.36351418166990485 
0.48999999999996235, -0.36501471657758694 
0.49999999999996125, -0.3659187819058896 
0.5099999999999602, -0.3664069395312525 
0.519999999999959, -0.3665974097754593 
0.529999999999958, -0.36655746348712104 
0.5399999999999568, -0.3663165649704575 
0.5499999999999557, -0.36587662230710544 
0.5599999999999546, -0.3652209154661679 
0.5699999999999535, -0.3643256241990062 
0.5799999999999524, -0.363177464304058 
0.5899999999999513, -0.3617958952440953 
0.5999999999999502, -0.36024882803030883 
0.6099999999999491, -0.3586461932326222 
0.619999999999948, -0.357108539673466 
0.6299999999999469, -0.35572953586539763 
0.6399999999999458, -0.35455537014901234 
0.6499999999999447, -0.3535868010259738 
0.6599999999999436, -0.35279418070330565 
0.6699999999999425, -0.3521344462406547 
0.6799999999999414, -0.3515644124614436 
0.6899999999999403, -0.3510487968214905 
0.6999999999999392, -0.35056341337691854 
0.7099999999999381, -0.3500951319036939 
0.719999999999937, -0.34964068331534565 
0.7299999999999359, -0.3492061266064616 
0.7399999999999348, -0.3488081885445857 
0.7499999999999337, -0.34847815403440974 
0.7599999999999326, -0.3482682829106541 
0.7699999999999315, -0.3482583666905862 
0.7799999999999304, -0.3485517933871228 
0.7899999999999293, -0.3492269035561742 
0.7999999999999282, -0.35016089230959097 
0.8099999999999271, -0.3506177543277419 
0.819999999999926, -0.3487639931342219 
0.8299999999999249, -0.3421526136541947 
0.8399999999999238, -0.3301133999683253 
0.8499999999999227, -0.31539935474146613 
0.8599999999999216, -0.3018686149661849 
0.8699999999999205, -0.29152680353879323 
0.8799999999999194, -0.2843987979163055 
0.8899999999999183, -0.27971815351362694 
0.8999999999999172, -0.2766982412526814 
0.9099999999999161, -0.27475855580215586 
0.919999999999915, -0.27351886679103093 
0.9299999999999139, -0.2727426805958239 
0.9399999999999128, -0.272287634828645 
0.9499999999999117, -0.2720722326764634 
0.9599999999999106, -0.27205603756415 
0.9699999999999095, -0.2722292829643479 
0.9799999999999084, -0.2726090480726598 
0.9899999999999073, -0.27324031756011996 
0.9999999999999062, -0.27420080859097873 
1.0099999999999052, -0.27560803668823725 
1.019999999999904, -0.2776247896640273 
1.029999999999903, -0.28045310007589624 
1.039999999999902, -0.28429556160132063 
1.0499999999999008, -0.28925431823079484 
1.0599999999998997, -0.29516711868607626 
1.0699999999998986, -0.3014888915338251 
1.0799999999998975, -0.30742031015753796 
1.0899999999998964, -0.3122919790924875 
1.0999999999998953, -0.31585939150405506 
1.1099999999998942, -0.3182577282050166 
1.119999999999893, -0.319775605798478 
1.129999999999892, -0.320685554434856 
1.1399999999998909, -0.3211852907012195 
1.1499999999998898, -0.32140012503122156 
1.1599999999998887, -0.32140180765193266 
1.1699999999998876, -0.3212258541025996 
1.1799999999998865, -0.3208844402342845 
1.1899999999998854, -0.32037712320702033 
1.1999999999998843, -0.3197024033143466 
1.2099999999998832, -0.31887127166393003 
1.219999999999882, -0.31791947727456404 
1.229999999999881, -0.31691084872467845 
1.2399999999998799, -0.31592583320269135 
1.2499999999998788, -0.31503942294294374 
1.2599999999998777, -0.3143010456627925 
1.2699999999998766, -0.31372594406156795 
1.2799999999998755, -0.31329818159387834 
1.2899999999998744, -0.31298040172069774 
1.2999999999998733, -0.3127259542544553 
1.3099999999998722, -0.31249011949657424 
1.319999999999871, -0.3122375100308666 
1.32999999999987, -0.3119440855150649 
1.3399999999998689, -0.3115945761602815 
1.3499999999998678, -0.3111774598116098 
1.3599999999998666, -0.31067904052673395 
1.3699999999998655, -0.31007638866195564 
1.3799999999998644, -0.3093265928533423 
1.3899999999998633, -0.3083464457783965 
1.3999999999998622, -0.3069712237974983 
1.4099999999998611, -0.30487540481164144 
1.41999999999986, -0.3014502744946593 
1.429999999999859, -0.2957260932437836 
1.4399999999998578, -0.2866565354171152 
1.4499999999998567, -0.27408715516176113 
1.4599999999998556, -0.2596518465900119 
1.4699999999998545, -0.24598998568014308 
1.4799999999998534, -0.23491824289056945 
1.4899999999998523, -0.22679090868239377 
1.4999999999998512, -0.22111157530750264 
1.5099999999998501, -0.2172045438406494 
1.519999999999849, -0.2145095394968018 
1.529999999999848, -0.21263328228140047 
1.5399999999998468, -0.21131951108301394 
1.5499999999998457, -0.21040908533117278 
1.5599999999998446, -0.20980984150879184 
1.5699999999998435, -0.20947813180601874 
1.5799999999998424, -0.20941024409517617 
1.5899999999998413, -0.20964244582774957 
1.5999999999998402, -0.2102600644398797 
1.6099999999998391, -0.21141806794536486 
1.619999999999838, -0.21337756058867968 
1.629999999999837, -0.21656205879887835 
1.6399999999998358, -0.22162460335122208 
1.6499999999998347, -0.22946257772571074 
1.6599999999998336, -0.24097323364769765 
1.6699999999998325, -0.2561923211869666 
1.6799999999998314, -0.27299301285713173 
1.6899999999998303, -0.2873169541221155 
1.6999999999998292, -0.29629800208996004 
1.709999999999828, -0.30038710497651766 
1.719999999999827, -0.3016943533453368 
1.729999999999826, -0.30189384120513685 
1.7399999999998248, -0.3017909682771582 
1.7499999999998237, -0.30166569757222894 
1.7599999999998226, -0.301583355082747 
1.7699999999998215, -0.30154252183307023 
1.7799999999998204, -0.3015285310082688 
1.7899999999998193, -0.3015291088334732 
1.7999999999998182, -0.3015377662263913 
1.809999999999817, -0.30155436575625927 
1.819999999999816, -0.3015859199872556 
1.8299999999998149, -0.30164829746694544 
1.8399999999998138, -0.30176834780447503 
1.8499999999998127, -0.3019851049740204 
1.8599999999998116, -0.3023482262539257 
1.8699999999998105, -0.30291186717127827 
1.8799999999998094, -0.30372256541697296 
1.8899999999998083, -0.30480057620918943 
1.8999999999998072, -0.3061176777680624 
1.909999999999806, -0.3075828106514101 
1.919999999999805, -0.3090532437461841 
1.9299999999998039, -0.31037700811219915 
1.9399999999998028, -0.31144335774680687 
1.9499999999998017, -0.3122069034319562 
1.9599999999998006, -0.31267609766173476 
1.9699999999997995, -0.3128847112633749 
1.9799999999997984, -0.3128665813369906 
1.9899999999997973, -0.3126403965253454 
1.9999999999997962, -0.3122017872597505 
2.0099999999998173, -0.31151844297222514 
2.0199999999998384, -0.3105267848479095 
2.0299999999998595, -0.30913380196299073 
2.0399999999998806, -0.3072343296648382 
2.0499999999999017, -0.30475687836868426 
2.059999999999923, -0.301734651736392 
2.069999999999944, -0.2983558271152702 
2.079999999999965, -0.2949270163333281 
2.089999999999986, -0.2917528263880246 
2.100000000000007, -0.28902605281661825 
2.1100000000000283, -0.2868021776064122 
2.1200000000000494, -0.28504027082142114 
2.1300000000000705, -0.28365660726664793 
2.1400000000000916, -0.2825617337807467 
2.1500000000001127, -0.2816787175944566 
2.160000000000134, -0.2809493912214026 
2.170000000000155, -0.2803347167456078 
2.180000000000176, -0.2798131128540572 
2.190000000000197, -0.2793790847794605 
2.2000000000002182, -0.2790437023832783 
2.2100000000002393, -0.27883813039623867 
2.2200000000002604, -0.2788213502740696 
2.2300000000002815, -0.2790928499499837 
2.2400000000003026, -0.27980833112878395 
2.2500000000003237, -0.2811849901729014 
2.260000000000345, -0.2834467009452065 
2.270000000000366, -0.28657892708910515 
2.280000000000387, -0.28971392507391547 
2.290000000000408, -0.29042000399469337 
2.3000000000004293, -0.2855384843081925 
2.3100000000004504, -0.2745425445354913 
2.3200000000004715, -0.26096110244571513 
2.3300000000004926, -0.2488489842263628 
2.3400000000005137, -0.23987307120966017 
2.3500000000005348, -0.2338097376249447 
2.360000000000556, -0.229864625953903 
2.370000000000577, -0.22732236711642656 
2.380000000000598, -0.2256846468968193 
2.390000000000619, -0.22463599197057693 
2.4000000000006403, -0.2239856193737734 
2.4100000000006614, -0.2236232430253296 
2.4200000000006825, -0.22349160641396648 
2.4300000000007036, -0.22357159379011854 
2.4400000000007247, -0.2238762372530994 
2.450000000000746, -0.22445154644713688 
2.460000000000767, -0.22538336646173782 
2.470000000000788, -0.22680994139279687 
2.480000000000809, -0.2289384933363491 
2.49000000000083, -0.232057915317298 
2.5000000000008513, -0.23652261407561803 
2.5100000000008724, -0.24265190985006252 
2.5200000000008935, -0.2504797986949088 
2.5300000000009146, -0.25942199544852523 
2.5400000000009357, -0.2682398746358192 
2.550000000000957, -0.27563964357074794 
2.560000000000978, -0.2810143052299452 
2.570000000000999, -0.2845314843436703 
2.58000000000102, -0.2866977752934071 
2.5900000000010412, -0.28799117314360106 
2.6000000000010624, -0.28874324837753607 
2.6100000000010835, -0.28915523291450695 
2.6200000000011046, -0.2893419291700464 
2.6300000000011257, -0.2893664536575279 
2.6400000000011468, -0.28926225450856713 
2.650000000001168, -0.28904699130057027 
2.660000000001189, -0.2887327361402534 
2.67000000000121, -0.2883349769392743 
2.680000000001231, -0.2878803202069797 
2.6900000000012523, -0.28741029010041663 
2.7000000000012734, -0.28697813483906304 
2.7100000000012945, -0.28663854673474054 
2.7200000000013156, -0.28643438804678706 
2.7300000000013367, -0.28638555239625174 
2.740000000001358, -0.28648284892321557 
2.750000000001379, -0.28668824857678066 
2.7600000000014, -0.28694284933393177 
2.770000000001421, -0.28718176623192965 
2.780000000001442, -0.287350088384114 
2.7900000000014633, -0.28741194420555316 
2.8000000000014844, -0.28734935693528413 
2.8100000000015055, -0.28715393512283144 
2.8200000000015266, -0.2868162563398717 
2.8300000000015477, -0.28631527637281035 
2.840000000001569, -0.28560684709609896 
2.85000000000159, -0.2846085538710559 
2.860000000001611, -0.2831784771415736 
2.870000000001632, -0.28109120147522215 
2.8800000000016532, -0.2780331660430696 
2.8900000000016743, -0.27367435571456156 
2.9000000000016954, -0.2678787491380222 
2.9100000000017165, -0.26097389431288426 
2.9200000000017377, -0.2537681073358785 
2.9300000000017588, -0.24715520164303367 
2.94000000000178, -0.2416770127054276 
2.950000000001801, -0.23743444792841145 
2.960000000001822, -0.2342626063409357 
2.970000000001843, -0.2319178822372495 
2.9800000000018643, -0.2301772821979085 
2.9900000000018854, -0.22886918174793705 
3.0000000000019065, -0.22787313992442434 
3.0100000000019276, -0.22711091242522544 
3.0200000000019487, -0.22653769076235147 
3.03000000000197, -0.22613656860517764 
3.040000000001991, -0.22591731132355744 
3.050000000002012, -0.2259203775279944 
3.060000000002033, -0.22622782403272557 
3.070000000002054, -0.22698364980672694 
3.0800000000020753, -0.2284258124765782 
3.0900000000020964, -0.23092491364768147 
3.1000000000021175, -0.23499221356572245 
3.1100000000021386, -0.241122064422381 
3.1200000000021597, -0.24917084071784967 
3.130000000002181, -0.25716790800728606 
3.140000000002202, -0.2610651785638164 
3.150000000002223, -0.2579942140455023 
3.160000000002244, -0.2497994040795371 
3.1700000000022652, -0.24072181720004818 
3.1800000000022863, -0.23336983738962896 
3.1900000000023074, -0.22822072142237704 
3.2000000000023285, -0.22483495528179445 
3.2100000000023496, -0.2226593515430039 
3.2200000000023707, -0.22127232506483957 
3.230000000002392, -0.22039790595084924 
3.240000000002413, -0.21986719129572094 
3.250000000002434, -0.2195822941170531 
3.260000000002455, -0.21949245009604362 
3.2700000000024763, -0.2195806712359171 
3.2800000000024974, -0.21985814870479206 
3.2900000000025185, -0.22036452995706174 
3.3000000000025396, -0.22117309681279312 
3.3100000000025607, -0.22240010087525958 
3.3200000000025818, -0.22421620474683115 
3.330000000002603, -0.22685291051901602 
3.340000000002624, -0.23058409612287165 
3.350000000002645, -0.23564239657969926 
3.360000000002666, -0.24203022216389836 
3.3700000000026873, -0.24928587454280926 
3.3800000000027084, -0.2564712467844689 
3.3900000000027295, -0.26259840053977423 
3.4000000000027506, -0.26716129690548845 
3.4100000000027717, -0.27023083591574965 
3.420000000002793, -0.272165541893148 
3.430000000002814, -0.27333466110131116 
3.440000000002835, -0.27400987975879965 
3.450000000002856, -0.2743634343280405 
3.460000000002877, -0.27449634268155687 
3.4700000000028983, -0.2744645746852742 
3.4800000000029194, -0.2742973095108296 
3.4900000000029405, -0.27400965298084434 
3.5000000000029616, -0.2736130443585796 
3.5100000000029827, -0.2731249871819862 
3.520000000003004, -0.27257700745028957 
3.530000000003025, -0.2720172767591894 
3.540000000003046, -0.2715048365263856 
3.550000000003067, -0.271096809294586 
3.5600000000030882, -0.2708343719780536 
3.5700000000031094, -0.2707328773649779 
3.5800000000031305, -0.2707780114052408 
3.5900000000031516, -0.2709282697888732 
3.6000000000031727, -0.27112431420204697 
3.6100000000031938, -0.27130371958172106 
3.620000000003215, -0.27141524330273376 
3.630000000003236, -0.2714257801960976 
3.640000000003257, -0.27131797576250694 
3.650000000003278, -0.27108179187753134 
3.6600000000032993, -0.2707042100552805 
3.6700000000033204, -0.2701586534590431 
3.6800000000033415, -0.2693928264871163 
3.6900000000033626, -0.2683122524446508 
3.7000000000033837, -0.26675813364244616 
3.710000000003405, -0.2644864840129931 
3.720000000003426, -0.26117877251885 
3.730000000003447, -0.25654747627989716 
3.740000000003468, -0.25057461509926 
3.750000000003489, -0.24373393929280499 
3.7600000000035103, -0.23688144729485816 
3.7700000000035314, -0.2308083911782452 
3.7800000000035525, -0.2259006634519522 
3.7900000000035736, -0.22215506730032125 
3.8000000000035947, -0.21937282381721257 
3.810000000003616, -0.21731730022926632 
3.820000000003637, -0.2157858924073167 
3.830000000003658, -0.2146274136345805 
3.840000000003679, -0.21373780034492706 
3.8500000000037002, -0.2130508934098158 
3.8600000000037213, -0.21253060043295752 
3.8700000000037424, -0.21216645909346982 
3.8800000000037635, -0.21197343352262124 
3.8900000000037847, -0.21199685890773218 
3.9000000000038058, -0.2123239889842173 
3.910000000003827, -0.2131036765967445 
3.920000000003848, -0.21457232469105297 
3.930000000003869, -0.21706728232551203 
3.94000000000389, -0.220951609452742 
3.9500000000039113, -0.22624489714596074 
3.9600000000039324, -0.23170677301384984 
3.9700000000039535, -0.23398868935736022 
3.9800000000039746, -0.22943090093064247 
3.9900000000039957, -0.2184995269903922 
4.000000000004016, -0.20579148226894275 
4.010000000003993, -0.19513604871071047 
4.02000000000397, -0.18755909093225884 
4.030000000003946, -0.1825472322529513 
4.040000000003923, -0.17930784297490338 
4.0500000000039, -0.17721719640067357 
4.0600000000038765, -0.17586577283755062 
4.070000000003853, -0.17500342042700753 
4.08000000000383, -0.17448442168524564 
4.090000000003807, -0.17423083478542398 
4.100000000003783, -0.17421191243662948 
4.11000000000376, -0.1744352283001391 
4.120000000003737, -0.17494688464730973 
4.130000000003713, -0.17584022263944332 
4.14000000000369, -0.17727403340302472 
4.150000000003667, -0.17950141313736412 
4.1600000000036434, -0.18290543154417516 
4.17000000000362, -0.18801696743667717 
4.180000000003597, -0.1954345304858996 
4.1900000000035735, -0.20548894231418938 
4.20000000000355, -0.21759708356981236 
4.210000000003527, -0.22988212291522586 
4.220000000003504, -0.24007040036820104 
4.23000000000348, -0.2470698911583785 
4.240000000003457, -0.2512689444030091 
4.250000000003434, -0.25361873989827893 
4.26000000000341, -0.25491245340306234 
4.270000000003387, -0.25563206250047543 
4.280000000003364, -0.25603447371902716 
4.2900000000033405, -0.25625100022318575 
4.300000000003317, -0.25634918973167 
4.310000000003294, -0.2563652572160369 
4.320000000003271, -0.2563208068167277 
4.330000000003247, -0.25623246173307834 
4.340000000003224, -0.25611867067413446 
4.350000000003201, -0.2560051184888768 
4.360000000003177, -0.25592821402112587 
4.370000000003154, -0.2559351250936285 
4.380000000003131, -0.2560791922374865 
4.390000000003107, -0.25641076883477054 
4.400000000003084, -0.256964233732124 
4.410000000003061, -0.25774237103564984 
4.4200000000030375, -0.2587023608929204 
4.430000000003014, -0.2597534667797312 
4.440000000002991, -0.260776491529085 
4.450000000002968, -0.26166034802571825 
4.460000000002944, -0.2623334814220008 
4.470000000002921, -0.2627712180680178 
4.480000000002898, -0.26298128337888305 
4.490000000002874, -0.26298255800670256 
4.500000000002851, -0.2627880574776933 
4.510000000002828, -0.26239420263834 
4.520000000002804, -0.2617740967700564 
4.530000000002781, -0.26087323989990835 
4.540000000002758, -0.2596100731566723 
4.5500000000027345, -0.2578897541438341 
4.560000000002711, -0.25564310211389013 
4.570000000002688, -0.252890431212575 
4.580000000002665, -0.24979286668070383 
4.590000000002641, -0.24662893935200253 
4.600000000002618, -0.24368801708922438 
4.610000000002595, -0.241162127011459 
4.620000000002571, -0.23911293381320387 
4.630000000002548, -0.23750585213109088 
4.640000000002525, -0.23626086332271737 
4.6500000000025015, -0.23528917078990647 
4.660000000002478, -0.2345119025123963 
4.670000000002455, -0.23386701524636738 
4.6800000000024315, -0.23331002655761363 
4.690000000002408, -0.23281193423588595 
4.700000000002385, -0.23235630549030825 
4.710000000002362, -0.231936699425001 
4.720000000002338, -0.23155478426891665 
4.730000000002315, -0.23121833681774331 
4.740000000002292, -0.23093578825555236 
4.750000000002268, -0.23069738160239145 
4.760000000002245, -0.23041656505479832 
4.770000000002222, -0.22977434742847375 
4.7800000000021985, -0.22790071311961305 
4.790000000002175, -0.22304797676307414 
4.800000000002152, -0.21313751459864028 
4.810000000002129, -0.1980279332009871 
4.820000000002105, -0.18097614421732583 
4.830000000002082, -0.16601589051833937 
4.840000000002059, -0.15491547638798842 
4.850000000002035, -0.14736403421662264 
