t, s[1].omega / s[0].omega 
0, -1.560024145402974 
0.009999999999999995, -1.5619176558249697 
0.019999999999999934, -1.5629496768129276 
0.029999999999999874, -1.5633420123133488 
0.04000000000000012, -1.5632646763490676 
0.050000000000000405, -1.5628435213977128 
0.06000000000000069, -1.5621806419813977 
0.07000000000000098, -1.5613769141636404 
0.08000000000000126, -1.560541610585787 
0.09000000000000155, -1.5597858336653385 
0.10000000000000184, -1.5592117708870448 
0.11000000000000212, -1.5588820925851408 
0.12000000000000241, -1.5587627950500293 
0.130000000000002, -1.5587182699010191 
0.1400000000000009, -1.558581427726632 
0.1499999999999998, -1.5581969959782214 
0.1599999999999987, -1.5573867011560296 
0.1699999999999976, -1.555863789862861 
0.1799999999999965, -1.5531164832851518 
0.1899999999999954, -1.5482789356136535 
0.1999999999999943, -1.5401204410860885 
0.2099999999999932, -1.527617314170379 
0.2199999999999921, -1.511836620629772 
0.229999999999991, -1.4979285585114654 
0.2399999999999899, -1.4917471773827147 
0.2499999999999888, -1.4928250424870946 
0.2599999999999877, -1.4963010491779687 
0.2699999999999866, -1.4991294994482294 
0.2799999999999855, -1.5007572055606144 
0.2899999999999844, -1.5014776204070317 
0.2999999999999833, -1.5016057967735603 
0.3099999999999822, -1.501323129614261 
0.3199999999999811, -1.50071928759136 
0.32999999999998, -1.4998981009855112 
0.3399999999999789, -1.4991588206901465 
0.3499999999999778, -1.4991507868254363 
0.35999999999997667, -1.500593414408475 
0.36999999999997557, -1.5035331244829482 
0.37999999999997447, -1.5071964439518193 
0.38999999999997337, -1.510706760455757 
0.39999999999997227, -1.5135837364085183 
0.40999999999997117, -1.5157022477731754 
0.41999999999997006, -1.517107608936849 
0.42999999999996896, -1.5178991443198138 
0.43999999999996786, -1.5181815193420245 
0.44999999999996676, -1.5180481716267158 
0.45999999999996566, -1.5175786946785141 
0.46999999999996456, -1.5168453934217674 
0.47999999999996346, -1.5159260235560856 
0.48999999999996235, -1.5149151419118767 
0.49999999999996125, -1.5139281089122347 
0.5099999999999602, -1.5130969587954437 
0.519999999999959, -1.5125377143800236 
0.529999999999958, -1.5122736698585335 
0.5399999999999568, -1.5121942496303211 
0.5499999999999557, -1.5121204642306183 
0.5599999999999546, -1.5118858073621086 
0.5699999999999535, -1.5113359879294932 
0.5799999999999524, -1.5102617666729399 
0.5899999999999513, -1.508297898813607 
0.5999999999999502, -1.5047950921978814 
0.6099999999999491, -1.4987080415068517 
0.619999999999948, -1.488732511439335 
0.6299999999999469, -1.4743034425870882 
0.6399999999999458, -1.457832220219608 
0.6499999999999447, -1.4454347999172192 
0.6599999999999436, -1.4415051198806068 
0.6699999999999425, -1.4437127953089917 
0.6799999999999414, -1.4473298004331292 
0.6899999999999403, -1.4500310726052639 
0.6999999999999392, -1.4515522975057427 
0.7099999999999381, -1.4522178984838365 
0.719999999999937, -1.4523220353258348 
0.7299999999999359, -1.4520281937943422 
0.7399999999999348, -1.451412238280563 
0.7499999999999337, -1.4505566372058338 
0.7599999999999326, -1.4497221659285455 
0.7699999999999315, -1.4495431543969413 
0.7799999999999304, -1.450873608413364 
0.7899999999999293, -1.4540314006289143 
0.7999999999999282, -1.4583436419795759 
0.8099999999999271, -1.4627515769030977 
0.819999999999926, -1.4665365480893628 
0.8299999999999249, -1.469437848932616 
0.8399999999999238, -1.4714641346361867 
0.8499999999999227, -1.4727300972557944 
0.8599999999999216, -1.4733753537970844 
0.8699999999999205, -1.4735311549138923 
0.8799999999999194, -1.4733090579201096 
0.8899999999999183, -1.4728029506635347 
0.8999999999999172, -1.4721009454049931 
0.9099999999999161, -1.4712986785896225 
0.919999999999915, -1.470500994451553 
0.9299999999999139, -1.469809834219613 
0.9399999999999128, -1.4693083700828764 
0.9499999999999117, -1.469035279024133 
0.9599999999999106, -1.468949730657197 
0.9699999999999095, -1.4689341408576513 
0.9799999999999084, -1.4688451683151877 
0.9899999999999073, -1.4685488195236163 
0.9999999999999062, -1.4679037639467003 
1.0099999999999052, -1.466712503768184 
1.019999999999904, -1.4646646623515451 
1.029999999999903, -1.4612910491369844 
1.039999999999902, -1.4559706104082806 
1.0499999999999008, -1.4480960616536656 
1.0599999999998997, -1.4375827831638137 
1.0699999999998986, -1.4257543543382576 
1.0799999999998975, -1.4156772638033688 
1.0899999999998964, -1.4102059673535419 
1.0999999999998953, -1.4092169630112723 
1.1099999999998942, -1.4103518222343874 
1.119999999999893, -1.4117063903028182 
1.129999999999892, -1.4125975563847721 
1.1399999999998909, -1.4129743800896266 
1.1499999999998898, -1.4129251842263422 
1.1599999999998887, -1.412500179016594 
1.1699999999998876, -1.411680928504468 
1.1799999999998865, -1.4104216076606912 
1.1899999999998854, -1.4088208351124583 
1.1999999999998843, -1.4075420683813211 
1.2099999999998832, -1.408226931512485 
1.219999999999882, -1.4127296439695711 
1.229999999999881, -1.4210058515031954 
1.2399999999998799, -1.4307267253505673 
1.2499999999998788, -1.4394417620574613 
1.2599999999998777, -1.4460280482175054 
1.2699999999998766, -1.450463290192797 
1.2799999999998755, -1.453180648539217 
1.2899999999998744, -1.4546725491342585 
1.2999999999998733, -1.4553391921338867 
1.3099999999998722, -1.4554620371618243 
1.319999999999871, -1.4552286247330823 
1.32999999999987, -1.4547748911413572 
1.3399999999998689, -1.4542266547834075 
1.3499999999998678, -1.4537178575701593 
1.3599999999998666, -1.453365580118573 
1.3699999999998655, -1.4532252191695192 
1.3799999999998644, -1.4532797804316935 
1.3899999999998633, -1.4534633119935936 
1.3999999999998622, -1.4536818161603475 
1.4099999999998611, -1.4538301085286203 
1.41999999999986, -1.4538085135374252 
1.429999999999859, -1.453525758002907 
1.4399999999998578, -1.4528870074205187 
1.4499999999998567, -1.451780675880185 
1.4599999999998556, -1.4500746535349898 
1.4699999999998545, -1.447625976507856 
1.4799999999998534, -1.4443093968347804 
1.4899999999998523, -1.4400834017041306 
1.4999999999998512, -1.4351255588964036 
1.5099999999998501, -1.430019319998529 
1.519999999999849, -1.4257601661083903 
1.529999999999848, -1.423215496837664 
1.5399999999998468, -1.4223858096950128 
1.5499999999998457, -1.4225151096218787 
1.5599999999998446, -1.4228565681644287 
1.5699999999998435, -1.423034164732155 
1.5799999999998424, -1.4229226555102148 
1.5899999999998413, -1.422457901241762 
1.5999999999998402, -1.4215207278504611 
1.6099999999998391, -1.4198677259559687 
1.619999999999838, -1.4171162681552432 
1.629999999999837, -1.4129748030622526 
1.6399999999998358, -1.4082017805932245 
1.6499999999998347, -1.4062016005529359 
1.6599999999998336, -1.4119962639025028 
1.6699999999998325, -1.4261011137296893 
1.6799999999998314, -1.4425788434542997 
1.6899999999998303, -1.4557934297333812 
1.6999999999998292, -1.4643072814815565 
1.709999999999828, -1.469132028303599 
1.719999999999827, -1.471627718410599 
1.729999999999826, -1.4727722530011889 
1.7399999999998248, -1.473141952634948 
1.7499999999998237, -1.4730522016909722 
1.7599999999998226, -1.4726862829927507 
1.7699999999998215, -1.4721941902710571 
1.7799999999998204, -1.4717580526473548 
1.7899999999998193, -1.4715822183779208 
1.7999999999998182, -1.4717879550449111 
1.809999999999817, -1.4723290188417983 
1.819999999999816, -1.473044697746413 
1.8299999999998149, -1.4737665822939046 
1.8399999999998138, -1.47436719931771 
1.8499999999998127, -1.4747596234941587 
1.8599999999998116, -1.47488518757342 
1.8699999999998105, -1.4747007127899119 
1.8799999999998094, -1.4741686921004478 
1.8899999999998083, -1.4732527919296599 
1.8999999999998072, -1.4719188163965975 
1.909999999999806, -1.4701421473489447 
1.919999999999805, -1.467927298040261 
1.9299999999998039, -1.4653505119191848 
1.9399999999998028, -1.4626297911560637 
1.9499999999998017, -1.4601703317315553 
1.9599999999998006, -1.4584355298204257 
1.9699999999997995, -1.4576118795870951 
1.9799999999997984, -1.4574490151896162 
1.9899999999997973, -1.4575211942597162 
1.9999999999997962, -1.4575184070749363 
2.0099999999998173, -1.4572763494025842 
2.0199999999998384, -1.4566686923525434 
2.0299999999998595, -1.4554907593367732 
2.0399999999998806, -1.4533413791098657 
2.0499999999999017, -1.44950001985409 
2.059999999999923, -1.4429742303408764 
2.069999999999944, -1.4333991239717805 
2.079999999999965, -1.4235638983620427 
2.089999999999986, -1.4205312035948503 
2.100000000000007, -1.4285706145682522 
2.1100000000000283, -1.4424630573270978 
2.1200000000000494, -1.4546658970616608 
2.1300000000000705, -1.4625346542086233 
2.1400000000000916, -1.4668577318826 
2.1500000000001127, -1.4690002256161798 
2.160000000000134, -1.469919142807022 
2.170000000000155, -1.4701475876074246 
2.180000000000176, -1.4699607709586628 
2.190000000000197, -1.4695171351495464 
2.2000000000002182, -1.4689716268358963 
2.2100000000002393, -1.4685630001381378 
2.2200000000002604, -1.468597057006836 
2.2300000000002815, -1.4692583656570002 
2.2400000000003026, -1.4704417472531588 
2.2500000000003237, -1.4718482838890545 
2.260000000000345, -1.4731976205117474 
2.270000000000366, -1.4743185767086617 
2.280000000000387, -1.4751299228813815 
2.290000000000408, -1.4756008531187284 
2.3000000000004293, -1.4757240549582527 
2.3100000000004504, -1.4755015075484432 
2.3200000000004715, -1.4749386631140007 
2.3300000000004926, -1.474044247722078 
2.3400000000005137, -1.4728353773211207 
2.3500000000005348, -1.4713496570606266 
2.360000000000556, -1.4696664851987231 
2.370000000000577, -1.4679367723728114 
2.380000000000598, -1.4663976324132966 
2.390000000000619, -1.4653032864333064 
2.4000000000006403, -1.464753478467025 
2.4100000000006614, -1.4646007998371204 
2.4200000000006825, -1.4645774611851254 
2.4300000000007036, -1.464459638703374 
2.4400000000007247, -1.4640921564963176 
2.450000000000746, -1.4633133033829904 
2.460000000000767, -1.4618479001427325 
2.470000000000788, -1.459170262579415 
2.480000000000809, -1.4543357346679606 
2.49000000000083, -1.4459392035048644 
2.5000000000008513, -1.4328403451269418 
2.5100000000008724, -1.4165990501911765 
2.5200000000008935, -1.403685816561678 
2.5300000000009146, -1.4006675277765093 
2.5400000000009357, -1.4060441011327531 
2.550000000000957, -1.41337337717534 
2.560000000000978, -1.4188725137275777 
2.570000000000999, -1.4221071480949916 
2.58000000000102, -1.4237514659528343 
2.5900000000010412, -1.4244358530274384 
2.6000000000010624, -1.424540813123308 
2.6100000000010835, -1.424261877210307 
2.6200000000011046, -1.4237052366783027 
2.6300000000011257, -1.4229946921055419 
2.6400000000011468, -1.4224085125094308 
2.650000000001168, -1.422457919776355 
2.660000000001189, -1.42366407841236 
2.67000000000121, -1.426080623299233 
2.680000000001231, -1.4291879731449622 
2.6900000000012523, -1.4323248717203667 
2.7000000000012734, -1.4350539202594907 
2.7100000000012945, -1.4371961219744347 
2.7200000000013156, -1.438727651186015 
2.7300000000013367, -1.43969406660931 
2.740000000001358, -1.4401660732606012 
2.750000000001379, -1.440219806407091 
2.7600000000014, -1.4399284533758139 
2.770000000001421, -1.439361387072279 
2.780000000001442, -1.438590456988259 
2.7900000000014633, -1.4376993243554443 
2.8000000000014844, -1.4367868851823247 
2.8100000000015055, -1.4359605697457936 
2.8200000000015266, -1.4353216155960737 
2.8300000000015477, -1.4349334744473423 
2.840000000001569, -1.4347764157406666 
2.85000000000159, -1.4347403322221048 
2.860000000001611, -1.4346772364156826 
2.870000000001632, -1.4344492354837781 
2.8800000000016532, -1.4339232426407582 
2.8900000000016743, -1.4329270975127975 
2.9000000000016954, -1.431193756268231 
2.9100000000017165, -1.428310465240981 
2.9200000000017377, -1.4237030173453955 
2.9300000000017588, -1.416731785239836 
2.94000000000178, -1.40704427293077 
2.950000000001801, -1.39529914784254 
2.960000000001822, -1.383840399330803 
2.970000000001843, -1.3758669314737522 
2.9800000000018643, -1.3727492320044046 
2.9900000000018854, -1.3729710968560302 
3.0000000000019065, -1.3742700882041965 
3.0100000000019276, -1.3754004835474298 
3.0200000000019487, -1.3760429516484591 
3.03000000000197, -1.3762289975759256 
3.040000000001991, -1.3760286875772283 
3.050000000002012, -1.3754547066168876 
3.060000000002033, -1.3744520632858284 
3.070000000002054, -1.372951403942818 
3.0800000000020753, -1.3710806560894935 
3.0900000000020964, -1.3696681124356558 
3.1000000000021175, -1.3706924045137252 
3.1100000000021386, -1.3763030143559256 
3.1200000000021597, -1.3863403692455565 
3.130000000002181, -1.3979545918464766 
3.140000000002202, -1.4082011953799694 
3.150000000002223, -1.415783706538767 
3.160000000002244, -1.42076407030621 
3.1700000000022652, -1.4237411082307552 
3.1800000000022863, -1.4253461260376548 
3.1900000000023074, -1.4260638807042287 
3.2000000000023285, -1.4262173243706078 
3.2100000000023496, -1.4260108894938772 
3.2200000000023707, -1.4255870037563174 
3.230000000002392, -1.4250778990114292 
3.240000000002413, -1.424631542435905 
3.250000000002434, -1.4243848285359255 
3.260000000002455, -1.4244013692829274 
3.2700000000024763, -1.4246473708784513 
3.2800000000024974, -1.4250289436754033 
3.2900000000025185, -1.4254362727116767 
3.3000000000025396, -1.4257654398079818 
3.3100000000025607, -1.425927920276974 
3.3200000000025818, -1.4258514105329292 
3.330000000002603, -1.425472806921198 
3.340000000002624, -1.4247307166629157 
3.350000000002645, -1.4235633834469064 
3.360000000002666, -1.421912800651965 
3.3700000000026873, -1.41973553718527 
3.3800000000027084, -1.4170264032529842 
3.3900000000027295, -1.4138677284279813 
3.4000000000027506, -1.4105088135646784 
3.4100000000027717, -1.407419007880494 
3.420000000002793, -1.4051548622764785 
3.430000000002814, -1.4039899751770268 
3.440000000002835, -1.4036930910421777 
3.450000000002856, -1.403779880909006 
3.460000000002877, -1.4038689682660146 
3.4700000000028983, -1.4037639132793096 
3.4800000000029194, -1.4033543840963136 
3.4900000000029405, -1.4025015390880928 
3.5000000000029616, -1.4009370099657057 
3.5100000000029827, -1.3981522511265794 
3.520000000003004, -1.3933176697183964 
3.530000000003025, -1.3855278397226451 
3.540000000003046, -1.375118003107819 
3.550000000003067, -1.3660499271042812 
3.5600000000030882, -1.3650571142813364 
3.5700000000031094, -1.37404554942982 
3.5800000000031305, -1.3870654029053207 
3.5900000000031516, -1.397918222128974 
3.6000000000031727, -1.4048396949315898 
3.6100000000031938, -1.4086617391276492 
3.620000000003215, -1.4105705785355216 
3.630000000003236, -1.411386953574654 
3.640000000003257, -1.4115708512001888 
3.650000000003278, -1.411360243138133 
3.6600000000032993, -1.4108906050343055 
3.6700000000033204, -1.4102989106401174 
3.6800000000033415, -1.4098238216098555 
3.6900000000033626, -1.4098319555411791 
3.7000000000033837, -1.4106423169639597 
3.710000000003405, -1.4122511867045617 
3.720000000003426, -1.4143185725008407 
3.730000000003447, -1.4164316556532572 
3.740000000003468, -1.4183051845763028 
3.750000000003489, -1.4198016247975258 
3.7600000000035103, -1.4208776048846326 
3.7700000000035314, -1.4215368982272816 
3.7800000000035525, -1.421804457794478 
3.7900000000035736, -1.4217145167926843 
3.8000000000035947, -1.42130588703396 
3.810000000003616, -1.4206217949878288 
3.820000000003637, -1.4197143741200113 
3.830000000003658, -1.4186526854393309 
3.840000000003679, -1.4175297035261027 
3.8500000000037002, -1.416463710932963 
3.8600000000037213, -1.4155873434379127 
3.8700000000037424, -1.4150057161103584 
3.8800000000037635, -1.4147282469846023 
3.8900000000037847, -1.41464562636932 
3.9000000000038058, -1.414591626363426 
3.910000000003827, -1.414412762100272 
3.920000000003848, -1.4139745217521271 
3.930000000003869, -1.413116055369585 
3.94000000000389, -1.4115849469119115 
3.9500000000039113, -1.4089663019640812 
3.9600000000039324, -1.4046283537679431 
3.9700000000039535, -1.3977624596098284 
3.9800000000039746, -1.3876966095890217 
3.9900000000039957, -1.3746974387230322 
4.000000000004016, -1.3609919460088664 
4.010000000003993, -1.350421678733122 
4.02000000000397, -1.345496210417419 
4.030000000003946, -1.3451656303682547 
4.040000000003923, -1.346694215419143 
4.0500000000039, -1.3482537607698517 
4.0600000000038765, -1.3492669099347174 
4.070000000003853, -1.3497311521468953 
4.08000000000383, -1.3497574152740082 
4.090000000003807, -1.3494124988881169 
4.100000000003783, -1.348690740668843 
4.11000000000376, -1.3475358050104576 
4.120000000003737, -1.3459424271245908 
4.130000000003713, -1.3442543177021002 
4.14000000000369, -1.3436731811218454 
4.150000000003667, -1.3462961663453874 
4.1600000000036434, -1.3535423445115329 
4.17000000000362, -1.3642421827917393 
4.180000000003597, -1.3754478440875184 
4.1900000000035735, -1.3848257425411847 
4.20000000000355, -1.3915809386870317 
4.210000000003527, -1.3959514149636818 
4.220000000003504, -1.3985303544158236 
4.23000000000348, -1.3998912631867304 
4.240000000003457, -1.4004633992602606 
4.250000000003434, -1.4005306799875854 
4.26000000000341, -1.4002750770300667 
4.270000000003387, -1.3998300394921515 
4.280000000003364, -1.3993281374230047 
4.2900000000033405, -1.3989201428381017 
4.300000000003317, -1.3987401825801478 
4.310000000003294, -1.3988413655208665 
4.320000000003271, -1.3991767096211825 
4.330000000003247, -1.3996417710096103 
4.340000000003224, -1.400121696823955 
4.350000000003201, -1.4005135905655421 
4.360000000003177, -1.4007340986358998 
4.370000000003154, -1.4007185795249053 
4.380000000003131, -1.4004146056575346 
4.390000000003107, -1.399775890514555 
4.400000000003084, -1.3987606130514758 
4.410000000003061, -1.3973341743929761 
4.4200000000030375, -1.3954765871310049 
4.430000000003014, -1.3931984957174286 
4.440000000002991, -1.3905733638593616 
4.450000000002968, -1.3877883738035266 
4.460000000002944, -1.3851823855011112 
4.470000000002921, -1.383174103898026 
4.480000000002898, -1.3820211339538626 
4.490000000002874, -1.3816177509461403 
4.500000000002851, -1.3816069828760997 
4.510000000002828, -1.38165082217221 
4.520000000002804, -1.3815445788368446 
4.530000000002781, -1.3811641393926959 
4.540000000002758, -1.3803689582768432 
4.5500000000027345, -1.37890417122538 
4.560000000002711, -1.3762838077911996 
4.570000000002688, -1.371655520256956 
4.580000000002665, -1.3637958436789712 
4.590000000002641, -1.351766274224964 
4.600000000002618, -1.3369193045533352 
4.610000000002595, -1.3247239643814386 
4.620000000002571, -1.321273719785546 
4.630000000002548, -1.3263166995568887 
4.640000000002525, -1.334266944454328 
4.6500000000025015, -1.3408437824915833 
4.660000000002478, -1.345026610256274 
4.670000000002455, -1.3473293954789554 
4.6800000000024315, -1.348440231595101 
4.690000000002408, -1.348830740610342 
4.700000000002385, -1.3487613800391691 
4.710000000002362, -1.3483600043900905 
4.720000000002338, -1.3477015676253246 
4.730000000002315, -1.3469092320872043 
4.740000000002292, -1.3462997100475484 
4.750000000002268, -1.3464786822843164 
4.760000000002245, -1.3481152556283624 
4.770000000002222, -1.3513805224963098 
4.7800000000021985, -1.3557086337545774 
4.790000000002175, -1.3602318492819916 
4.800000000002152, -1.364290268977069 
4.810000000002129, -1.36756793960837 
4.820000000002105, -1.3699959830307393 
4.830000000002082, -1.3716356084307635 
4.840000000002059, -1.3726040473265975 
4.850000000002035, -1.3730332038097433 
4.860000000002012, -1.3730466712538305 
4.870000000001989, -1.3727509170101293 
4.880000000001965, -1.3722399050084344 
4.890000000001942, -1.3716081875237558 
4.900000000001919, -1.3709595799956733 
4.9100000000018955, -1.3703971634791956 
4.920000000001872, -1.3699981359366198 
4.930000000001849, -1.3697952922502155 
4.940000000001826, -1.3697724415352321 
