t, s[1].omega / s[0].omega 
0, -0.6799977004783022 
0.009999999999999995, -0.6797694040778383 
0.019999999999999934, -0.6795358992186019 
0.029999999999999874, -0.6792762070292366 
0.04000000000000012, -0.6789672171822873 
0.050000000000000405, -0.6785940142224871 
0.06000000000000069, -0.6781555975879872 
0.07000000000000098, -0.6776659485685821 
0.08000000000000126, -0.6771537716353732 
0.09000000000000155, -0.6766643037312471 
0.10000000000000184, -0.6762646912569841 
0.11000000000000212, -0.6760524951996001 
0.12000000000000241, -0.676165520287394 
0.130000000000002, -0.676790284732957 
0.1400000000000009, -0.6781660824466972 
0.1499999999999998, -0.6805817030731337 
0.1599999999999987, -0.6843615448533336 
0.1699999999999976, -0.6898349971660724 
0.1799999999999965, -0.697276033259159 
0.1899999999999954, -0.7067931250549034 
0.1999999999999943, -0.7181619875642942 
0.2099999999999932, -0.7306599927706975 
0.2199999999999921, -0.7430754671735961 
0.229999999999991, -0.7540635969640921 
0.2399999999999899, -0.7627076596067079 
0.2499999999999888, -0.7688251080980091 
0.2599999999999877, -0.7727995443666333 
0.2699999999999866, -0.7752082489380709 
0.2799999999999855, -0.7765624257590814 
0.2899999999999844, -0.7772224623595223 
0.2999999999999833, -0.777408442779112 
0.3099999999999822, -0.7772339201047298 
0.3199999999999811, -0.7767316917079479 
0.32999999999998, -0.7758633994905533 
0.3399999999999789, -0.7745113224861039 
0.3499999999999778, -0.7724498970728509 
0.35999999999997667, -0.7692916945081216 
0.36999999999997557, -0.7644021520254399 
0.37999999999997447, -0.756791347198318 
0.38999999999997337, -0.7450591158297891 
0.39999999999997227, -0.7276625731506507 
0.40999999999997117, -0.7039672708497655 
0.41999999999997006, -0.6758723151779757 
0.42999999999996896, -0.6479688038189773 
0.43999999999996786, -0.6248678036402996 
0.44999999999996676, -0.6085239439330896 
0.45999999999996566, -0.5982897458811869 
0.46999999999996456, -0.5924604363900137 
0.47999999999996346, -0.5894079211028974 
0.48999999999996235, -0.5879566633647864 
0.49999999999996125, -0.5873638912789167 
0.5099999999999602, -0.5871943651287754 
0.519999999999959, -0.5872047059853698 
0.529999999999958, -0.5872622670832236 
0.5399999999999568, -0.5872943082442567 
0.5499999999999557, -0.5872582167433487 
0.5599999999999546, -0.587125485275563 
0.5699999999999535, -0.586875152664547 
0.5799999999999524, -0.5864944595758077 
0.5899999999999513, -0.5859845084969494 
0.5999999999999502, -0.5853665175224859 
0.6099999999999491, -0.5846821321941367 
0.619999999999948, -0.5839836332675216 
0.6299999999999469, -0.5833173519937718 
0.6399999999999458, -0.5827093911229722 
0.6499999999999447, -0.5821609590108848 
0.6599999999999436, -0.581654098243087 
0.6699999999999425, -0.5811633315546364 
0.6799999999999414, -0.5806671797438478 
0.6899999999999403, -0.5801554059132296 
0.6999999999999392, -0.5796316308441944 
0.7099999999999381, -0.5791139429908635 
0.719999999999937, -0.578636730963217 
0.7299999999999359, -0.5782560095723009 
0.7399999999999348, -0.5780595140762564 
0.7499999999999337, -0.5781824358941166 
0.7599999999999326, -0.5788296396529732 
0.7699999999999315, -0.5803049212072837 
0.7799999999999304, -0.5830461708057841 
0.7899999999999293, -0.5876593786430431 
0.7999999999999282, -0.5949280211465675 
0.8099999999999271, -0.6057382940974383 
0.819999999999926, -0.6208089559671123 
0.8299999999999249, -0.6401245497583027 
0.8399999999999238, -0.6622514766865104 
0.8499999999999227, -0.6842902710084926 
0.8599999999999216, -0.7031311154840575 
0.8699999999999205, -0.7171160504774647 
0.8799999999999194, -0.7264238585221039 
0.8899999999999183, -0.7321931376668114 
0.8999999999999172, -0.7356186715772669 
0.9099999999999161, -0.7375825881085277 
0.919999999999915, -0.7386418694463368 
0.9299999999999139, -0.7391189086087457 
0.9399999999999128, -0.7391836069044584 
0.9499999999999117, -0.7389034546587137 
0.9599999999999106, -0.7382644196291772 
0.9699999999999095, -0.7371670466646371 
0.9799999999999084, -0.7353981081171148 
0.9899999999999073, -0.7325770080402176 
0.9999999999999062, -0.7280893384266474 
1.0099999999999052, -0.7210695000072462 
1.019999999999904, -0.7105864282622598 
1.029999999999903, -0.6961945223131474 
1.039999999999902, -0.678638495138636 
1.0499999999999008, -0.6599345988518875 
1.0599999999998997, -0.6424380861967416 
1.0699999999998986, -0.6277485100411543 
1.0799999999998975, -0.6163808166402058 
1.0899999999998964, -0.6080915899778107 
1.0999999999998953, -0.6023165222885032 
1.1099999999998942, -0.5984496827888544 
1.119999999999893, -0.5959639240662473 
1.129999999999892, -0.594442237943004 
1.1399999999998909, -0.5935718533597042 
1.1499999999998898, -0.5931265758284894 
1.1599999999998887, -0.5929475513376922 
1.1699999999998876, -0.5929260270778958 
1.1799999999998865, -0.5929893083844834 
1.1899999999998854, -0.5930903430121742 
1.1999999999998843, -0.5932010281773662 
1.2099999999998832, -0.5933088731808251 
1.219999999999882, -0.5934157319985872 
1.229999999999881, -0.5935361041706039 
1.2399999999998799, -0.5936920559640936 
1.2499999999998788, -0.5939034719263729 
1.2599999999998777, -0.5941758860141693 
1.2699999999998766, -0.5944913276110858 
1.2799999999998755, -0.5948080772884359 
1.2899999999998744, -0.5950716149762114 
1.2999999999998733, -0.595232063337463 
1.3099999999998722, -0.5952583087149473 
1.319999999999871, -0.5951418000181301 
1.32999999999987, -0.5948914008513858 
1.3399999999998689, -0.5945259829686019 
1.3499999999998678, -0.5940706261065387 
1.3599999999998666, -0.5935593611480932 
1.3699999999998655, -0.5930462430243364 
1.3799999999998644, -0.5926278256132773 
1.3899999999998633, -0.592482919330992 
1.3999999999998622, -0.5929384447407929 
1.4099999999998611, -0.5945697619786888 
1.41999999999986, -0.5983292499231272 
1.429999999999859, -0.6056407265061675 
1.4399999999998578, -0.6182585539440476 
1.4499999999998567, -0.6375169939507114 
1.4599999999998556, -0.6628375987337718 
1.4699999999998545, -0.6906871935394414 
1.4799999999998534, -0.7160722149723631 
1.4899999999998523, -0.7357228107871616 
1.4999999999998512, -0.7492934434150927 
1.5099999999998501, -0.7580792815363344 
1.519999999999849, -0.7635890354791328 
1.529999999999848, -0.7669830218511688 
1.5399999999998468, -0.7690333091299105 
1.5499999999998457, -0.7702226845603433 
1.5599999999998446, -0.7708407599762889 
1.5699999999998435, -0.7710500999097162 
1.5799999999998424, -0.770924898723928 
1.5899999999998413, -0.7704681314404787 
1.5999999999998402, -0.769610894499564 
1.6099999999998391, -0.768195770215949 
1.619999999999838, -0.7659485418832916 
1.629999999999837, -0.7624564143169265 
1.6399999999998358, -0.7572023346836824 
1.6499999999998347, -0.7497326621185362 
1.6599999999998336, -0.7399720221244926 
1.6699999999998325, -0.7284870863963355 
1.6799999999998314, -0.7163876419614598 
1.6899999999998303, -0.7048691297729496 
1.6999999999998292, -0.6947845596467287 
1.709999999999828, -0.6865188237666524 
1.719999999999827, -0.680094302631801 
1.729999999999826, -0.6753292698784485 
1.7399999999998248, -0.6719560790161053 
1.7499999999998237, -0.6696890359595069 
1.7599999999998226, -0.6682593576238864 
1.7699999999998215, -0.6674325811997069 
1.7799999999998204, -0.6670161757710507 
1.7899999999998193, -0.6668604443678363 
1.7999999999998182, -0.6668545201273783 
1.809999999999817, -0.6669195145600604 
1.819999999999816, -0.6670011503735578 
1.8299999999998149, -0.6670639261402285 
1.8399999999998138, -0.667087953552951 
1.8499999999998127, -0.6670680665001342 
1.8599999999998116, -0.6670129185896525 
1.8699999999998105, -0.6669408628643049 
1.8799999999998094, -0.6668711579323999 
1.8899999999998083, -0.6668130983217317 
1.8999999999998072, -0.6667587197335613 
1.909999999999806, -0.6666837792104434 
1.919999999999805, -0.6665570126756696 
1.9299999999998039, -0.6663524498399124 
1.9399999999998028, -0.6660581286553856 
1.9499999999998017, -0.6656784005077181 
1.9599999999998006, -0.6652323342355267 
1.9699999999997995, -0.6647528727627837 
1.9799999999997984, -0.6642901413879081 
1.9899999999997973, -0.6639202124860417 
1.9999999999997962, -0.6637591794415701 
2.0099999999998173, -0.6639813409483774 
2.0199999999998384, -0.6648389883249537 
2.0299999999998595, -0.6666794145883318 
2.0399999999998806, -0.6699519971023591 
2.0499999999999017, -0.6751931358794714 
2.059999999999923, -0.6829667015706586 
2.069999999999944, -0.693722870795561 
2.079999999999965, -0.7075380901877917 
2.089999999999986, -0.7237726951245136 
2.100000000000007, -0.7408837940997828 
2.1100000000000283, -0.7567793573943946 
2.1200000000000494, -0.7697248176317201 
2.1300000000000705, -0.7790794499952123 
2.1400000000000916, -0.7852293395901739 
2.1500000000001127, -0.7890048959937743 
2.160000000000134, -0.7911986389907738 
2.170000000000155, -0.7923846653986627 
2.180000000000176, -0.7929226957115019 
2.190000000000197, -0.7930140935086489 
2.2000000000002182, -0.7927501793744521 
2.2100000000002393, -0.7921383714354304 
2.2200000000002604, -0.7911055956101893 
2.2300000000002815, -0.7894782717838252 
2.2400000000003026, -0.7869337949458689 
2.2500000000003237, -0.7829150801104046 
2.260000000000345, -0.7765081177072428 
2.270000000000366, -0.7663357126818254 
2.280000000000387, -0.7506830187801625 
2.290000000000408, -0.7283006807804714 
2.3000000000004293, -0.7000205120415295 
2.3100000000004504, -0.6697197325894009 
2.3200000000004715, -0.6425517565585193 
2.3300000000004926, -0.621808515745915 
2.3400000000005137, -0.6078613350031605 
2.3500000000005348, -0.5993371000341827 
2.360000000000556, -0.5945077584136478 
2.370000000000577, -0.591961631592118 
2.380000000000598, -0.5907319474642372 
2.390000000000619, -0.5902152893503366 
2.4000000000006403, -0.5900554175929504 
2.4100000000006614, -0.5900492454409022 
2.4200000000006825, -0.5900827593647067 
2.4300000000007036, -0.5900908533246011 
2.4400000000007247, -0.5900337578167943 
2.450000000000746, -0.5898847947262597 
2.460000000000767, -0.5896263851797044 
2.470000000000788, -0.5892522135199436 
2.480000000000809, -0.5887724467286811 
2.49000000000083, -0.588216684139278 
2.5000000000008513, -0.5876291665514242 
2.5100000000008724, -0.5870556113479928 
2.5200000000008935, -0.5865278905881249 
2.5300000000009146, -0.5860548581572279 
2.5400000000009357, -0.5856234053670902 
2.550000000000957, -0.5852078839746476 
2.560000000000978, -0.5847823723518549 
2.570000000000999, -0.5843301820420679 
2.58000000000102, -0.5838481651050111 
2.5900000000010412, -0.5833473571863304 
2.6000000000010624, -0.5828534367680261 
2.6100000000010835, -0.5824100426208348 
2.6200000000011046, -0.5820868040177553 
2.6300000000011257, -0.5819932655689503 
2.6400000000011468, -0.5822998271889672 
2.650000000001168, -0.583266825736176 
2.660000000001189, -0.585282021465064 
2.67000000000121, -0.5889029657423797 
2.680000000001231, -0.5948890533069007 
2.6900000000012523, -0.6041789486256335 
2.7000000000012734, -0.6177150332467077 
2.7100000000012945, -0.6359740222138444 
2.7200000000013156, -0.6582045577379433 
2.7300000000013367, -0.6819192344277202 
2.740000000001358, -0.7036265096314307 
2.750000000001379, -0.7206969119781577 
2.7600000000014, -0.7325306377224153 
2.770000000001421, -0.7400471418160549 
2.780000000001442, -0.7445765570537719 
2.7900000000014633, -0.7472148743710157 
2.8000000000014844, -0.7486904153716119 
2.8100000000015055, -0.7494386244976233 
2.8200000000015266, -0.7497008353914031 
2.8300000000015477, -0.7495930408706213 
2.840000000001569, -0.7491415018480974 
2.85000000000159, -0.748291099386577 
2.860000000001611, -0.746889047564568 
2.870000000001632, -0.7446425926553729 
2.8800000000016532, -0.7410527772284016 
2.8900000000016743, -0.7353539937992662 
2.9000000000016954, -0.7265648722266558 
2.9100000000017165, -0.7138451803981659 
2.9200000000017377, -0.6972177143257938 
2.9300000000017588, -0.6781294711671029 
2.94000000000178, -0.6590251709868016 
2.950000000001801, -0.6421215937042924 
2.960000000001822, -0.6285593628530282 
2.970000000001843, -0.618440172143566 
2.9800000000018643, -0.6112887411252237 
2.9900000000018854, -0.6064537579410109 
3.0000000000019065, -0.6033190557007657 
3.0100000000019276, -0.6013789496038578 
3.0200000000019487, -0.6002476975101768 
3.03000000000197, -0.5996443095035304 
3.040000000001991, -0.5993710585108484 
3.050000000002012, -0.5992926973720235 
3.060000000002033, -0.5993188466220333 
3.070000000002054, -0.5993903943185153 
3.0800000000020753, -0.5994701522284671 
3.0900000000020964, -0.5995376177417312 
3.1000000000021175, -0.599587004308404 
3.1100000000021386, -0.5996265100357185 
3.1200000000021597, -0.5996756952414583 
3.130000000002181, -0.5997583490135006 
3.140000000002202, -0.5998911931177789 
3.150000000002223, -0.6000726090066781 
3.160000000002244, -0.6002774033005471 
3.1700000000022652, -0.6004617813463049 
3.1800000000022863, -0.6005772861996741 
3.1900000000023074, -0.6005863623517447 
3.2000000000023285, -0.6004711182877468 
3.2100000000023496, -0.6002327338595635 
3.2200000000023707, -0.5998858194104112 
3.230000000002392, -0.5994539267860333 
3.240000000002413, -0.5989703430537155 
3.250000000002434, -0.598486365219387 
3.260000000002455, -0.5980893913670837 
3.2700000000024763, -0.5979349840149376 
3.2800000000024974, -0.5982993990381147 
3.2900000000025185, -0.5996598480392428 
3.3000000000025396, -0.6028033050825166 
3.3100000000025607, -0.6089357207328348 
3.3200000000025818, -0.6196813275219977 
3.330000000002603, -0.6367084464002906 
3.340000000002624, -0.6606562308453315 
3.350000000002645, -0.6896473486551534 
3.360000000002666, -0.7190874937671639 
3.3700000000026873, -0.7441124138920759 
3.3800000000027084, -0.7624283223225589 
3.3900000000027295, -0.7745157240230222 
3.4000000000027506, -0.7820300022437396 
3.4100000000027717, -0.786558538254856 
3.420000000002793, -0.7892320041089603 
3.430000000002814, -0.790761836766187 
3.440000000002835, -0.7915688749783591 
3.450000000002856, -0.7918887201284248 
3.460000000002877, -0.7918371711814306 
3.4700000000028983, -0.7914429300937446 
3.4800000000029194, -0.79065485824433 
3.4900000000029405, -0.7893264183956817 
3.5000000000029616, -0.7871770170698571 
3.5100000000029827, -0.7837356282913815 
3.520000000003004, -0.7783009244066572 
3.530000000003025, -0.7700178600597726 
3.540000000003046, -0.758221773964671 
3.550000000003067, -0.7430373890467078 
3.5600000000030882, -0.725761823844372 
3.5700000000031094, -0.7084581064145754 
3.5800000000031305, -0.6930000476040638 
3.5900000000031516, -0.680422884075703 
3.6000000000031727, -0.6709173404742301 
3.6100000000031938, -0.6641540053117867 
3.620000000003215, -0.6595960590162832 
3.630000000003236, -0.6566889260042217 
3.640000000003257, -0.6549478213022234 
3.650000000003278, -0.653986492084292 
3.6600000000032993, -0.6535166970419655 
3.6700000000033204, -0.6533343388485106 
3.6800000000033415, -0.6533007953769931 
3.6900000000033626, -0.6533244241127427 
3.7000000000033837, -0.6533451643416599 
3.710000000003405, -0.6533237850681026 
3.720000000003426, -0.6532363128245675 
3.730000000003447, -0.6530730250684275 
3.740000000003468, -0.6528396323074434 
3.750000000003489, -0.6525565398141833 
3.7600000000035103, -0.6522525892168194 
3.7700000000035314, -0.6519537243202924 
3.7800000000035525, -0.6516718385921314 
3.7900000000035736, -0.6514000872851593 
3.8000000000035947, -0.6511172457649163 
3.810000000003616, -0.650798320685627 
3.820000000003637, -0.6504254012676289 
3.830000000003658, -0.6499939709550071 
3.840000000003679, -0.649514311167757 
3.8500000000037002, -0.649011185301611 
3.8600000000037213, -0.6485253969873829 
3.8700000000037424, -0.6481192226609616 
3.8800000000037635, -0.6478860430540802 
3.8900000000037847, -0.6479633718828802 
3.9000000000038058, -0.6485476216148405 
3.910000000003827, -0.6499080384004633 
3.920000000003848, -0.6523959765452435 
3.930000000003869, -0.6564430637724228 
3.94000000000389, -0.6625354694917986 
3.9500000000039113, -0.671139024066662 
3.9600000000039324, -0.6825364630132368 
3.9700000000039535, -0.6965546580634359 
3.9800000000039746, -0.7122720186288286 
3.9900000000039957, -0.728003045899048 
4.000000000004016, -0.7418556965745902 
4.010000000003993, -0.7525976405541666 
4.02000000000397, -0.7600643753814713 
4.030000000003946, -0.7648417133803018 
4.040000000003923, -0.7677172926374084 
4.0500000000039, -0.7693495519207199 
4.0600000000038765, -0.7701857875892075 
4.070000000003853, -0.7704942661078121 
4.08000000000383, -0.7704152507749479 
4.090000000003807, -0.7699965929991541 
4.100000000003783, -0.7692074542141885 
4.11000000000376, -0.7679294235500873 
4.120000000003737, -0.7659212491216696 
4.130000000003713, -0.7627483647503125 
4.14000000000369, -0.7576690575822508 
4.150000000003667, -0.7494995814242376 
4.1600000000036434, -0.736600056033561 
4.17000000000362, -0.7173627636078154 
4.180000000003597, -0.6915764734139305 
4.1900000000035735, -0.6618765837488032 
4.20000000000355, -0.6330908918786153 
4.210000000003527, -0.609351364154577 
4.220000000003504, -0.592144964920819 
4.23000000000348, -0.5807888709455793 
4.240000000003457, -0.5737811226562728 
4.250000000003434, -0.5696809730433301 
4.26000000000341, -0.5674022088951929 
4.270000000003387, -0.5662122856051324 
4.280000000003364, -0.5656460400757851 
4.2900000000033405, -0.5654185609630893 
4.300000000003317, -0.5653591235538802 
4.310000000003294, -0.5653663160577415 
4.320000000003271, -0.5653794383069404 
4.330000000003247, -0.5653615246749898 
4.340000000003224, -0.5652907418866797 
4.350000000003201, -0.5651579026018915 
4.360000000003177, -0.5649676884823642 
4.370000000003154, -0.5647399638046158 
4.380000000003131, -0.5645068719212476 
4.390000000003107, -0.5643035323478781 
4.400000000003084, -0.564154876926223 
4.410000000003061, -0.5640647507763747 
4.4200000000030375, -0.564012943996964 
4.430000000003014, -0.5639620403314517 
4.440000000002991, -0.5638709109249531 
4.450000000002968, -0.563707918768752 
4.460000000002944, -0.5634577339111453 
4.470000000002921, -0.5631209432499429 
4.480000000002898, -0.5627104526225779 
4.490000000002874, -0.5622495648004132 
4.500000000002851, -0.561775056829398 
4.510000000002828, -0.561347509940063 
4.520000000002804, -0.5610717641192353 
4.530000000002781, -0.5611323713663486 
4.540000000002758, -0.5618513483449723 
4.5500000000027345, -0.5637759072712789 
4.560000000002711, -0.5677942630496651 
4.570000000002688, -0.5752362885956673 
4.580000000002665, -0.5878022775341356 
4.590000000002641, -0.6069798517009438 
4.600000000002618, -0.632672217238097 
4.610000000002595, -0.6618296742203154 
4.620000000002571, -0.6892838694416484 
4.630000000002548, -0.711005611042564 
4.640000000002525, -0.7261027370655116 
4.6500000000025015, -0.7358276380688228 
4.660000000002478, -0.7418724210806826 
4.670000000002455, -0.7455704753429248 
4.6800000000024315, -0.7478010489197031 
4.690000000002408, -0.7491049914866822 
4.700000000002385, -0.7498031704134501 
4.710000000002362, -0.7500765726875939 
4.720000000002338, -0.7500126992816254 
4.730000000002315, -0.749627573790503 
4.740000000002292, -0.748869388067557 
4.750000000002268, -0.7476070859579036 
4.760000000002245, -0.7456087104780791 
4.770000000002222, -0.7425254767506326 
4.7800000000021985, -0.7379227093966189 
4.790000000002175, -0.7314199542471609 
4.800000000002152, -0.722950170198448 
4.810000000002129, -0.7129775099222534 
4.820000000002105, -0.7024210672861324 
4.830000000002082, -0.6922828485689655 
4.840000000002059, -0.6832921293454135 
4.850000000002035, -0.6757949370215484 
4.860000000002012, -0.6698370172027459 
4.870000000001989, -0.6652935580309975 
4.880000000001965, -0.661966041034045 
4.890000000001942, -0.6596364145136079 
4.900000000001919, -0.6580935739256566 
4.9100000000018955, -0.6571462723133983 
4.920000000001872, -0.6566298432363953 
