t, s[1].omega / s[0].omega 
0, -1.3800594181879562 
0.009999999999999995, -1.3850242177601326 
0.019999999999999934, -1.3882664281993031 
0.029999999999999874, -1.3901888037480612 
0.04000000000000012, -1.3911782751433799 
0.050000000000000405, -1.3915359119295365 
0.06000000000000069, -1.3914723600516636 
0.07000000000000098, -1.3911343238449796 
0.08000000000000126, -1.3906423934759415 
0.09000000000000155, -1.3901232625617364 
0.10000000000000184, -1.3897121703440072 
0.11000000000000212, -1.3895134282115447 
0.12000000000000241, -1.3895557585275031 
0.130000000000002, -1.3897925326217309 
0.1400000000000009, -1.3901354683246887 
0.1499999999999998, -1.3904831056643536 
0.1599999999999987, -1.3907379694083835 
0.1699999999999976, -1.390816616269134 
0.1799999999999965, -1.3906496780332633 
0.1899999999999954, -1.3901751496638404 
0.1999999999999943, -1.3893332674385674 
0.2099999999999932, -1.388067135280057 
0.2199999999999921, -1.3863286352784736 
0.229999999999991, -1.384090073522748 
0.2399999999999899, -1.3813673976263754 
0.2499999999999888, -1.3782649011695953 
0.2599999999999877, -1.375039604114518 
0.2699999999999866, -1.372128926567882 
0.2799999999999855, -1.3700145218925526 
0.2899999999999844, -1.3689108014620888 
0.2999999999999833, -1.3686007526635193 
0.3099999999999822, -1.3686532511157081 
0.3199999999999811, -1.3687199895797832 
0.32999999999998, -1.368610771443087 
0.3399999999999789, -1.3682130111503208 
0.3499999999999778, -1.3673895253427486 
0.35999999999997667, -1.3658828399088458 
0.36999999999997557, -1.363202651883589 
0.37999999999997447, -1.358505034257521 
0.38999999999997337, -1.3506399048610584 
0.39999999999997227, -1.3389310441594613 
0.40999999999997117, -1.3252547443226308 
0.41999999999997006, -1.3154021907174258 
0.42999999999996896, -1.3147725669163444 
0.43999999999996786, -1.3219385330508195 
0.44999999999996676, -1.330978257227673 
0.45999999999996566, -1.3379907719506072 
0.46999999999996456, -1.3423302407012165 
0.47999999999996346, -1.3446895750509844 
0.48999999999996235, -1.3458222285561725 
0.49999999999996125, -1.346222530077677 
0.5099999999999602, -1.3461602245543687 
0.519999999999959, -1.3457692744782057 
0.529999999999958, -1.345131299452108 
0.5399999999999568, -1.3443760683136632 
0.5499999999999557, -1.343816912510269 
0.5599999999999546, -1.3440245449613222 
0.5699999999999535, -1.3455974518143652 
0.5799999999999524, -1.3486568411161457 
0.5899999999999513, -1.352668430330445 
0.5999999999999502, -1.3568490128666835 
0.6099999999999491, -1.3606085222857622 
0.619999999999948, -1.3636605406533815 
0.6299999999999469, -1.3659357792811988 
0.6399999999999458, -1.3674808928977669 
0.6499999999999447, -1.3683949077493676 
0.6599999999999436, -1.368793558509068 
0.6699999999999425, -1.3687887000100614 
0.6799999999999414, -1.3684794905885889 
0.6899999999999403, -1.3679556005839755 
0.6999999999999392, -1.367308592619427 
0.7099999999999381, -1.3666397161891157 
0.719999999999937, -1.3660506913144215 
0.7299999999999359, -1.3656202132604152 
0.7399999999999348, -1.3653854960124645 
0.7499999999999337, -1.3653353283325005 
0.7599999999999326, -1.365408992996532 
0.7699999999999315, -1.3655090295761974 
0.7799999999999304, -1.365528150371841 
0.7899999999999293, -1.3653673570464133 
0.7999999999999282, -1.364932496911798 
0.8099999999999271, -1.3641201696130891 
0.819999999999926, -1.3628085843047106 
0.8299999999999249, -1.3608615860163715 
0.8399999999999238, -1.358147683541509 
0.8499999999999227, -1.3545755249150828 
0.8599999999999216, -1.3501549383628721 
0.8699999999999205, -1.3450980656053229 
0.8799999999999194, -1.3399367485231215 
0.8899999999999183, -1.3355048005768844 
0.8999999999999172, -1.332566223529453 
0.9099999999999161, -1.3312670172386958 
0.919999999999915, -1.3310782478305134 
0.9299999999999139, -1.3313128057732855 
0.9399999999999128, -1.3315274355875975 
0.9499999999999117, -1.331531945446502 
0.9599999999999106, -1.3312454623135312 
0.9699999999999095, -1.3305775966157136 
0.9799999999999084, -1.3293455090181256 
0.9899999999999073, -1.3271938711263265 
0.9999999999999062, -1.3235230053177607 
1.0099999999999052, -1.3175694309923283 
1.019999999999904, -1.3090793766874644 
1.029999999999903, -1.299988382339023 
1.039999999999902, -1.2954419251937281 
1.0499999999999008, -1.3000065285009204 
1.0599999999998997, -1.3118228298602792 
1.0699999999998986, -1.324625792405208 
1.0799999999998975, -1.3342720730595494 
1.0899999999998964, -1.340229870750433 
1.0999999999998953, -1.3435073744088575 
1.1099999999998942, -1.3451477180104665 
1.119999999999893, -1.3458382080648807 
1.129999999999892, -1.3459621454615966 
1.1399999999998909, -1.3457177415941377 
1.1499999999998898, -1.3452168294083457 
1.1599999999998887, -1.3445765420839446 
1.1699999999998876, -1.3440236680001738 
1.1799999999998865, -1.3439609051450259 
1.1899999999998854, -1.344842083973354 
1.1999999999998843, -1.346836880999761 
1.2099999999998832, -1.349649648905846 
1.219999999999882, -1.352741184383272 
1.229999999999881, -1.3556500426557685 
1.2399999999998799, -1.3581132831203155 
1.2499999999998788, -1.360028849681803 
1.2599999999998777, -1.3613882359866445 
1.2699999999998766, -1.3622308592410053 
1.2799999999998755, -1.3626194147349564 
1.2899999999998744, -1.3626258186591191 
1.2999999999998733, -1.3623229512495556 
1.3099999999998722, -1.3617829713054148 
1.319999999999871, -1.361082677251015 
1.32999999999987, -1.3603103706670479 
1.3399999999998689, -1.3595637164836187 
1.3499999999998678, -1.3589348158420538 
1.3599999999998666, -1.3584914118524467 
1.3699999999998655, -1.3582593876798659 
1.3799999999998644, -1.358206400977503 
1.3899999999998633, -1.3582435072661085 
1.3999999999998622, -1.3582550691553785 
1.4099999999998611, -1.3581294725356396 
1.41999999999986, -1.357763172052786 
1.429999999999859, -1.3570433346152784 
1.4399999999998578, -1.355828603924765 
1.4499999999998567, -1.3539423633535956 
1.4599999999998556, -1.351186625269511 
1.4699999999998545, -1.3473821059487332 
1.4799999999998534, -1.3424429956630337 
1.4899999999998523, -1.3365020249397799 
1.4999999999998512, -1.3300779173110333 
1.5099999999998501, -1.3241476060412016 
1.519999999999849, -1.3198198885813566 
1.529999999999848, -1.3176043813963212 
1.5399999999998468, -1.317056167055693 
1.5499999999998457, -1.3172955853531834 
1.5599999999998446, -1.3176595581487625 
1.5699999999998435, -1.3178465658574665 
1.5799999999998424, -1.3177582074455065 
1.5899999999998413, -1.3173405459101564 
1.5999999999998402, -1.316489445405214 
1.6099999999998391, -1.314983437364181 
1.619999999999838, -1.3124218567236396 
1.629999999999837, -1.3082273940965297 
1.6399999999998358, -1.3019726526503308 
1.6499999999998347, -1.2944972506385386 
1.6599999999998336, -1.2894325115554384 
1.6699999999998325, -1.2919693566214947 
1.6799999999998314, -1.3032106614052297 
1.6899999999998303, -1.3180099563344687 
1.6999999999998292, -1.3306409742438958 
1.709999999999828, -1.3390813515186475 
1.719999999999827, -1.343975652634536 
1.729999999999826, -1.3465636344753547 
1.7399999999998248, -1.347797399753096 
1.7499999999998237, -1.3482475772980391 
1.7599999999998226, -1.348221078500547 
1.7699999999998215, -1.34787950889678 
1.7799999999998204, -1.3473335882043092 
1.7899999999998193, -1.3467359411993953 
1.7999999999998182, -1.3463678177008715 
1.809999999999817, -1.3466279242234482 
1.819999999999816, -1.3478180600835843 
1.8299999999998149, -1.3498831247392047 
1.8399999999998138, -1.3524377570570163 
1.8499999999998127, -1.3550362004196368 
1.8599999999998116, -1.3573660741358946 
1.8699999999998105, -1.3592705352761316 
1.8799999999998094, -1.3606974072640659 
1.8899999999998083, -1.3616517461108386 
1.8999999999998072, -1.3621682375768325 
1.909999999999806, -1.3622968949163892 
1.919999999999805, -1.3620949169551468 
1.9299999999998039, -1.3616227138943624 
1.9399999999998028, -1.3609453549614572 
1.9499999999998017, -1.3601385104874655 
1.9599999999998006, -1.3592921072289648 
1.9699999999997995, -1.3585039461463408 
1.9799999999997984, -1.357864366063007 
1.9899999999997973, -1.3574367085609036 
1.9999999999997962, -1.3572322227034186 
2.0099999999998173, -1.3571924277933343 
2.0199999999998384, -1.3572060073948427 
2.0299999999998595, -1.3571497611366499 
2.0399999999998806, -1.3569114705079581 
2.0499999999999017, -1.3563799898632127 
2.059999999999923, -1.355419901181604 
2.069999999999944, -1.3538506012639115 
2.079999999999965, -1.3514431096580106 
2.089999999999986, -1.3479457376500794 
2.100000000000007, -1.3431508805614596 
2.1100000000000283, -1.3370199965626148 
2.1200000000000494, -1.3298791452723546 
2.1300000000000705, -1.3226127396239487 
2.1400000000000916, -1.3165601479003062 
2.1500000000001127, -1.3128074549996867 
2.160000000000134, -1.3113762038478658 
2.170000000000155, -1.3113654508325432 
2.180000000000176, -1.3118172615109134 
2.190000000000197, -1.312198546982869 
2.2000000000002182, -1.3123231847199075 
2.2100000000002393, -1.3121411946286197 
2.2200000000002604, -1.3116021200712853 
2.2300000000002815, -1.3105810609024933 
2.2400000000003026, -1.3088236518301333 
2.2500000000003237, -1.3059135577581482 
2.260000000000345, -1.3013862971666694 
2.270000000000366, -1.2953362343421269 
2.280000000000387, -1.2897774584707986 
2.290000000000408, -1.2892924657056253 
2.3000000000004293, -1.2976009904568353 
2.3100000000004504, -1.3124962340245272 
2.3200000000004715, -1.3277354609309984 
2.3300000000004926, -1.3391650650124096 
2.3400000000005137, -1.3462900796785477 
2.3500000000005348, -1.350264151011433 
2.360000000000556, -1.3522995269117293 
2.370000000000577, -1.3532135506405978 
2.380000000000598, -1.3534727770916386 
2.390000000000619, -1.353325093075871 
2.4000000000006403, -1.3529095095500074 
2.4100000000006614, -1.3523471593217342 
2.4200000000006825, -1.3518297985036098 
2.4300000000007036, -1.3516701658244394 
2.4400000000007247, -1.3522099849025584 
2.450000000000746, -1.3535823049146243 
2.460000000000767, -1.3555850221878116 
2.470000000000788, -1.3578339507551722 
2.480000000000809, -1.3599882308698046 
2.49000000000083, -1.361840693004846 
2.5000000000008513, -1.3632971973183006 
2.5100000000008724, -1.364331774031199 
2.5200000000008935, -1.3649547554834203 
2.5300000000009146, -1.3651958097081087 
2.5400000000009357, -1.365095472986747 
2.550000000000957, -1.364700803565702 
2.560000000000978, -1.3640646871812854 
2.570000000000999, -1.3632496189672905 
2.58000000000102, -1.362333395305392 
2.5900000000010412, -1.3614099150940748 
2.6000000000010624, -1.3605808714478203 
2.6100000000010835, -1.3599393180411297 
2.6200000000011046, -1.359541899042313 
2.6300000000011257, -1.3593743052934033 
2.6400000000011468, -1.3593444133852737 
2.650000000001168, -1.3593212354248814 
2.660000000001189, -1.3591784802451827 
2.67000000000121, -1.358801455118783 
2.680000000001231, -1.3580623939705734 
2.6900000000012523, -1.3567878957204853 
2.7000000000012734, -1.354736037835302 
2.7100000000012945, -1.3515983518816683 
2.7200000000013156, -1.3470470151159288 
2.7300000000013367, -1.3408544576487633 
2.740000000001358, -1.3331139235218075 
2.750000000001379, -1.3245363308581095 
2.7600000000014, -1.3165756196880223 
2.770000000001421, -1.310881031082886 
2.780000000001442, -1.308140987060273 
2.7900000000014633, -1.3076329032695344 
2.8000000000014844, -1.30810251765219 
2.8100000000015055, -1.308685142622322 
2.8200000000015266, -1.3090338577691905 
2.8300000000015477, -1.309068966946975 
2.840000000001569, -1.3087723828972169 
2.85000000000159, -1.3080866865251453 
2.860000000001611, -1.3068625105920093 
2.870000000001632, -1.3048252123744337 
2.8800000000016532, -1.301611926924724 
2.8900000000016743, -1.297091226554247 
2.9000000000016954, -1.2923047945729005 
2.9100000000017165, -1.2906048004187944 
2.9200000000017377, -1.2963540748249778 
2.9300000000017588, -1.3100551955851485 
2.94000000000178, -1.3266682873200994 
2.950000000001801, -1.3407137394543436 
2.960000000001822, -1.3502113062278704 
2.970000000001843, -1.3558148333835156 
2.9800000000018643, -1.358835982978127 
2.9900000000018854, -1.3603208975364542 
3.0000000000019065, -1.3609171853200606 
3.0100000000019276, -1.3609838760615298 
3.0200000000019487, -1.3607152722783764 
3.03000000000197, -1.3602387859986047 
3.040000000001991, -1.359700358836553 
3.050000000002012, -1.3593318990367744 
3.060000000002033, -1.3594338728127393 
3.070000000002054, -1.3602153036080442 
3.0800000000020753, -1.3616248003648586 
3.0900000000020964, -1.3633881094218563 
3.1000000000021175, -1.3651945507889285 
3.1100000000021386, -1.36682169059654 
3.1200000000021597, -1.3681486558338916 
3.130000000002181, -1.369124320241585 
3.140000000002202, -1.3697370826712914 
3.150000000002223, -1.3699965888779535 
3.160000000002244, -1.3699246485367456 
3.1700000000022652, -1.3695512909993541 
3.1800000000022863, -1.3689140080084423 
3.1900000000023074, -1.368060435132717 
3.2000000000023285, -1.3670541591997256 
3.2100000000023496, -1.3659799252938385 
3.2200000000023707, -1.3649431733357178 
3.230000000002392, -1.3640602902965586 
3.240000000002413, -1.3634311603863214 
3.250000000002434, -1.3630900034896727 
3.260000000002455, -1.3629714683408711 
3.2700000000024763, -1.3629389983527072 
3.2800000000024974, -1.3628468664340694 
3.2900000000025185, -1.3625688641248093 
3.3000000000025396, -1.3619790002454208 
3.3100000000025607, -1.3609097491091215 
3.3200000000025818, -1.3591093688420859 
3.330000000002603, -1.3562138645990482 
3.340000000002624, -1.3517610376282254 
3.350000000002645, -1.3452968948249855 
3.360000000002666, -1.3366409200535503 
3.3700000000026873, -1.3263298772283405 
3.3800000000027084, -1.3159939726546637 
3.3900000000027295, -1.3079478940323797 
3.4000000000027506, -1.3036509998141879 
3.4100000000027717, -1.3025894875629629 
3.420000000002793, -1.303135347677992 
3.430000000002814, -1.3039957119787071 
3.440000000002835, -1.3046152505622497 
3.450000000002856, -1.304873475291672 
3.460000000002877, -1.3047806316533115 
3.4700000000028983, -1.3043334870331114 
3.4800000000029194, -1.3034596544490902 
3.4900000000029405, -1.3019940093148177 
3.5000000000029616, -1.2997015120019948 
3.5100000000029827, -1.2964757283147734 
3.520000000003004, -1.2929709110330208 
3.530000000003025, -1.291581508981156 
3.540000000003046, -1.2961047379881712 
3.550000000003067, -1.3082123278739268 
3.5600000000030882, -1.3245660718789503 
3.5700000000031094, -1.339808353668435 
3.5800000000031305, -1.3509813391691492 
3.5900000000031516, -1.3580047871490422 
3.6000000000031727, -1.3619966047791543 
3.6100000000031938, -1.3640814507381147 
3.620000000003215, -1.3650376084448153 
3.630000000003236, -1.3653267689901587 
3.640000000003257, -1.365205897157719 
3.650000000003278, -1.364827554401948 
3.6600000000032993, -1.3643228910963248 
3.6700000000033204, -1.3638698534171403 
3.6800000000033415, -1.3637099071703789 
3.6900000000033626, -1.3640561906978208 
3.7000000000033837, -1.364946289268132 
3.710000000003405, -1.3662139473883657 
3.720000000003426, -1.3676117243724435 
3.730000000003447, -1.3689321512471717 
3.740000000003468, -1.370044015086799 
3.750000000003489, -1.370877868648554 
3.7600000000035103, -1.3714032132927492 
3.7700000000035314, -1.3716118013005016 
3.7800000000035525, -1.3715081571541436 
3.7900000000035736, -1.371105405136838 
3.8000000000035947, -1.37042464299979 
3.810000000003616, -1.3694974548831547 
3.820000000003637, -1.3683718405430407 
3.830000000003658, -1.3671203063098714 
3.840000000003679, -1.3658465642805733 
3.8500000000037002, -1.364684883122878 
3.8600000000037213, -1.3637774423034854 
3.8700000000037424, -1.3632139997700796 
3.8800000000037635, -1.3629670219898398 
3.8900000000037847, -1.3628989371895341 
3.9000000000038058, -1.3628396095536721 
3.910000000003827, -1.3626438892471984 
3.920000000003848, -1.3621849323674255 
3.930000000003869, -1.361308107595478 
3.94000000000389, -1.3597733385277213 
3.9500000000039113, -1.357198308369863 
3.9600000000039324, -1.3530250099794447 
3.9700000000039535, -1.346573722970656 
3.9800000000039746, -1.337305667534586 
3.9900000000039957, -1.3254100046353758 
4.000000000004016, -1.3125275762781092 
4.010000000003993, -1.301662969154276 
4.02000000000397, -1.2953231221021972 
4.030000000003946, -1.2934676959178368 
4.040000000003923, -1.2940942180990993 
4.0500000000039, -1.2953343478301735 
4.0600000000038765, -1.2963209927675041 
4.070000000003853, -1.2968607192322372 
4.08000000000383, -1.2969897207172845 
4.090000000003807, -1.2967574165015423 
4.100000000003783, -1.2961555177230255 
4.11000000000376, -1.2950992963911911 
4.120000000003737, -1.293442397435236 
4.130000000003713, -1.2910944784802538 
4.14000000000369, -1.288417197952771 
4.150000000003667, -1.2869692996539734 
4.1600000000036434, -1.289734126550052 
4.17000000000362, -1.2990516681277433 
4.180000000003597, -1.3135289546147795 
4.1900000000035735, -1.3287570174892802 
4.20000000000355, -1.3411280626813316 
4.210000000003527, -1.3495853332309604 
4.220000000003504, -1.3547347568947377 
4.23000000000348, -1.357607094706926 
4.240000000003457, -1.3590595921148512 
4.250000000003434, -1.3596575628686185 
4.26000000000341, -1.3597352649812948 
4.270000000003387, -1.359486330688935 
4.280000000003364, -1.3590442118791792 
4.2900000000033405, -1.3585510301001085 
4.300000000003317, -1.3581997951218638 
4.310000000003294, -1.3582033660675226 
4.320000000003271, -1.3586808165803357 
4.330000000003247, -1.3595738394403825 
4.340000000003224, -1.360696835165585 
4.350000000003201, -1.3618498005903992 
4.360000000003177, -1.3628827873253393 
4.370000000003154, -1.363702497424189 
4.380000000003131, -1.3642575834362147 
4.390000000003107, -1.3645232878802689 
4.400000000003084, -1.3644906863653772 
4.410000000003061, -1.3641608628929218 
4.4200000000030375, -1.3635429752695076 
4.430000000003014, -1.3626554467534235 
4.440000000002991, -1.3615304985704166 
4.450000000002968, -1.3602221807377433 
4.460000000002944, -1.3588163161515534 
4.470000000002921, -1.3574380783478206 
4.480000000002898, -1.3562455203161679 
4.490000000002874, -1.3553855916380275 
4.500000000002851, -1.354912306856969 
4.510000000002828, -1.3547395212379691 
4.520000000002804, -1.3546929348145256 
4.530000000002781, -1.354600100006397 
4.540000000002758, -1.3543242557903021 
4.5500000000027345, -1.3537348427554488 
4.560000000002711, -1.3526511335863378 
4.570000000002688, -1.3507786489682174 
4.580000000002665, -1.3476481192574028 
4.590000000002641, -1.3425920971554905 
4.600000000002618, -1.3348558273212505 
4.610000000002595, -1.3240039921091837 
4.620000000002571, -1.310698952490618 
4.630000000002548, -1.2973593540553472 
4.640000000002525, -1.2873753175352205 
4.6500000000025015, -1.2825892530801557 
4.660000000002478, -1.2819335173943807 
4.670000000002455, -1.283079076804721 
4.6800000000024315, -1.2844101227316278 
4.690000000002408, -1.2853352218286076 
4.700000000002385, -1.2857876179288468 
4.710000000002362, -1.2858358222950748 
4.720000000002338, -1.2855265250211805 
4.730000000002315, -1.2848394476086389 
4.740000000002292, -1.2836793460977605 
4.750000000002268, -1.2819068005338834 
4.760000000002245, -1.2794977402777543 
4.770000000002222, -1.2770072738001477 
4.7800000000021985, -1.2762866360137104 
4.790000000002175, -1.2803464798846145 
4.800000000002152, -1.2909037933490226 
4.810000000002129, -1.3058285808797816 
4.820000000002105, -1.320698801225281 
4.830000000002082, -1.3323974155291496 
4.840000000002059, -1.340247840075571 
4.850000000002035, -1.3449741878298656 
4.860000000002012, -1.3475858105550143 
4.870000000001989, -1.348886103319764 
4.880000000001965, -1.3493957386620135 
4.890000000001942, -1.3494206694745545 
4.900000000001919, -1.3491397330677646 
4.9100000000018955, -1.3486819589922845 
4.920000000001872, -1.3481931101469018 
4.930000000001849, -1.3478731877037247 
