t, s[1].omega / s[0].omega 
0, -0.8200168708163178 
0.009999999999999995, -0.8216239193030648 
0.019999999999999934, -0.8230064800139625 
0.029999999999999874, -0.824087767890326 
0.04000000000000012, -0.8248343046467477 
0.050000000000000405, -0.8252576112683112 
0.06000000000000069, -0.8253992107908102 
0.07000000000000098, -0.8253113574251152 
0.08000000000000126, -0.8250445057670601 
0.09000000000000155, -0.8246452637045183 
0.10000000000000184, -0.8241641974780615 
0.11000000000000212, -0.8236725282585062 
0.12000000000000241, -0.8232871074980324 
0.130000000000002, -0.8232005992094618 
0.1400000000000009, -0.8237068278064186 
0.1499999999999998, -0.8252020234213863 
0.1599999999999987, -0.8281390878859879 
0.1699999999999976, -0.8329229161755581 
0.1799999999999965, -0.8397597883605032 
0.1899999999999954, -0.8485023237733902 
0.1999999999999943, -0.8585572678124395 
0.2099999999999932, -0.8689414014726868 
0.2199999999999921, -0.8785394143177727 
0.229999999999991, -0.8864816478401508 
0.2399999999999899, -0.8924088388918298 
0.2499999999999888, -0.8964517345747429 
0.2599999999999877, -0.8990043109178064 
0.2699999999999866, -0.9004955693100397 
0.2799999999999855, -0.9012698199534505 
0.2899999999999844, -0.9015610064172987 
0.2999999999999833, -0.9015095390643042 
0.3099999999999822, -0.9011873231497131 
0.3199999999999811, -0.9006189583137619 
0.32999999999998, -0.8998003341096718 
0.3399999999999789, -0.8987239466096157 
0.3499999999999778, -0.8974283904170548 
0.35999999999997667, -0.8960966296559769 
0.36999999999997557, -0.8952181107067746 
0.37999999999997447, -0.8957662536052895 
0.38999999999997337, -0.899198904778409 
0.39999999999997227, -0.9069734237413595 
0.40999999999997117, -0.9195177124213656 
0.41999999999997006, -0.9353716191514346 
0.42999999999996896, -0.9516146740333014 
0.43999999999996786, -0.9655115252053159 
0.44999999999996676, -0.9758012686189973 
0.45999999999996566, -0.9826514053138429 
0.46999999999996456, -0.9868855314402618 
0.47999999999996346, -0.9893589045213504 
0.48999999999996235, -0.9907134897358547 
0.49999999999996125, -0.991362350456827 
0.5099999999999602, -0.9915456652899316 
0.519999999999959, -0.9913861799425113 
0.529999999999958, -0.9909258896935261 
0.5399999999999568, -0.9901461505851235 
0.5499999999999557, -0.9889806928327391 
0.5599999999999546, -0.9873393828462174 
0.5699999999999535, -0.9851776289972657 
0.5799999999999524, -0.9826663946111969 
0.5899999999999513, -0.9804930782267419 
0.5999999999999502, -0.9801448326998548 
0.6099999999999491, -0.9836859034374997 
0.619999999999948, -0.9925568875403507 
0.6299999999999469, -1.0060357021631137 
0.6399999999999458, -1.0211731307782772 
0.6499999999999447, -1.03470036767977 
0.6599999999999436, -1.0448731565730192 
0.6699999999999425, -1.0516401704706868 
0.6799999999999414, -1.055779829575139 
0.6899999999999403, -1.0581563650282315 
0.6999999999999392, -1.059422525286238 
0.7099999999999381, -1.0599940824180893 
0.719999999999937, -1.0601083808319232 
0.7299999999999359, -1.0598833955102265 
0.7399999999999348, -1.0593581581924676 
0.7499999999999337, -1.0585204822803411 
0.7599999999999326, -1.0573401623298138 
0.7699999999999315, -1.0558415619153143 
0.7799999999999304, -1.0542666981625755 
0.7899999999999293, -1.0533522222244287 
0.7999999999999282, -1.0545650175457852 
0.8099999999999271, -1.0598249454836242 
0.819999999999926, -1.0703287357469897 
0.8299999999999249, -1.0851808695498244 
0.8399999999999238, -1.1014512602585298 
0.8499999999999227, -1.1159487806603379 
0.8599999999999216, -1.1269145062888744 
0.8699999999999205, -1.1342453477803294 
0.8799999999999194, -1.1387231250170609 
0.8899999999999183, -1.141267463642885 
0.8999999999999172, -1.142595917329855 
0.9099999999999161, -1.1431749411610699 
0.919999999999915, -1.1432777041735769 
0.9299999999999139, -1.1430535244306128 
0.9399999999999128, -1.142585160566257 
0.9499999999999117, -1.1419425558280358 
0.9599999999999106, -1.1412516707127007 
0.9699999999999095, -1.1407848193837946 
0.9799999999999084, -1.141024214949814 
0.9899999999999073, -1.1425748797064228 
0.9999999999999062, -1.1458593059259905 
1.0099999999999052, -1.1507977877925888 
1.019999999999904, -1.1567975363010148 
1.029999999999903, -1.1630498036509684 
1.039999999999902, -1.1688442833042412 
1.0499999999999008, -1.1737205794721062 
1.0599999999998997, -1.1774814793478652 
1.0699999999998986, -1.1801415044652193 
1.0799999999998975, -1.181850305260403 
1.0899999999998964, -1.182812695227512 
1.0999999999998953, -1.1832267775593528 
1.1099999999998942, -1.183252979323596 
1.119999999999893, -1.183011924979529 
1.129999999999892, -1.1826015265600884 
1.1399999999998909, -1.182123409184745 
1.1499999999998898, -1.1817059039577542 
1.1599999999998887, -1.1815026616034439 
1.1699999999998876, -1.1816506670789795 
1.1799999999998865, -1.182208454046434 
1.1899999999998854, -1.1831285305660617 
1.1999999999998843, -1.1842876913509317 
1.2099999999998832, -1.1855415777498597 
1.219999999999882, -1.186763548159819 
1.229999999999881, -1.1878588150173752 
1.2399999999998799, -1.1887633120960848 
1.2499999999998788, -1.1894371584472274 
1.2599999999998777, -1.189858486828228 
1.2699999999998766, -1.1900199944120624 
1.2799999999998755, -1.1899279125232027 
1.2899999999998744, -1.189601712563595 
1.2999999999998733, -1.1890735856958756 
1.3099999999998722, -1.1883885046710279 
1.319999999999871, -1.187605633184418 
1.32999999999987, -1.1867987955868597 
1.3399999999998689, -1.1860509762354279 
1.3499999999998678, -1.1854405272506379 
1.3599999999998666, -1.1850234969187836 
1.3699999999998655, -1.1848187740893183 
1.3799999999998644, -1.1848005865473537 
1.3899999999998633, -1.184903223943713 
1.3999999999998622, -1.1850391967103442 
1.4099999999998611, -1.1851206806718035 
1.41999999999986, -1.1850713628059348 
1.429999999999859, -1.184826925517702 
1.4399999999998578, -1.1843318892505166 
1.4499999999998567, -1.1835398576521614 
1.4599999999998556, -1.1824182550495874 
1.4699999999998545, -1.1809541338376877 
1.4799999999998534, -1.1791579312839888 
1.4899999999998523, -1.1770659779953356 
1.4999999999998512, -1.1747453491222708 
1.5099999999998501, -1.1723028550171812 
1.519999999999849, -1.1698936745730415 
1.529999999999848, -1.1677157606227815 
1.5399999999998468, -1.165970110910281 
1.5499999999998457, -1.1647840914960124 
1.5599999999998446, -1.1641433797196368 
1.5699999999998435, -1.1638990617324816 
1.5799999999998424, -1.1638488178050657 
1.5899999999998413, -1.1638163004298374 
1.5999999999998402, -1.163675141419994 
1.6099999999998391, -1.163327680756327 
1.619999999999838, -1.1626688604613498 
1.629999999999837, -1.1615526241820704 
1.6399999999998358, -1.1597685350391551 
1.6499999999998347, -1.157040261819147 
1.6599999999998336, -1.1530656915197433 
1.6699999999998325, -1.1476136466013935 
1.6799999999998314, -1.1406642220665222 
1.6899999999998303, -1.132543772013108 
1.6999999999998292, -1.1239843259874578 
1.709999999999828, -1.1160255073843766 
1.719999999999827, -1.1096969283213403 
1.729999999999826, -1.1055723155331196 
1.7399999999998248, -1.1035187405559213 
1.7499999999998237, -1.1028890110512628 
1.7599999999998226, -1.1029590350356169 
1.7699999999998215, -1.1032193044221992 
1.7799999999998204, -1.1034065362694585 
1.7899999999998193, -1.1034090441737363 
1.7999999999998182, -1.1031697261461424 
1.809999999999817, -1.102620093347752 
1.819999999999816, -1.1016322699737027 
1.8299999999998149, -1.099969481628297 
1.8399999999998138, -1.0972255768239312 
1.8499999999998127, -1.0927700167799768 
1.8599999999998116, -1.0857708126566026 
1.8699999999998105, -1.0754418101761836 
1.8799999999998094, -1.0616295751641618 
1.8899999999998083, -1.0455079592299377 
1.8999999999998072, -1.029636927491873 
1.909999999999806, -1.0168490678887374 
1.919999999999805, -1.0086900064090405 
1.9299999999998039, -1.0048390948474517 
1.9399999999998028, -1.0038476383077064 
1.9499999999998017, -1.0042210122261896 
1.9599999999998006, -1.0049774191299798 
1.9699999999997995, -1.0056499781528214 
1.9799999999997984, -1.006081360161423 
1.9899999999997973, -1.0062446288989995 
1.9999999999997962, -1.0061413155538086 
2.0099999999998173, -1.0057514119376818 
2.0199999999998384, -1.0050033236464286 
2.0299999999998595, -1.0037424516269258 
2.0399999999998806, -1.0016869820512866 
2.0499999999999017, -0.998372379813923 
2.059999999999923, -0.9931164968926609 
2.069999999999944, -0.9850971558380073 
2.079999999999965, -0.973683478994355 
2.089999999999986, -0.9590418853481957 
2.100000000000007, -0.9426275640462756 
2.1100000000000283, -0.9268979903973605 
2.1200000000000494, -0.914178340958933 
2.1300000000000705, -0.9055797301929944 
2.1400000000000916, -0.9008144402669034 
2.1500000000001127, -0.8987917795870661 
2.160000000000134, -0.8983314664680311 
2.170000000000155, -0.8985585653691579 
2.180000000000176, -0.8989647806355077 
2.190000000000197, -0.8993084194635197 
2.2000000000002182, -0.8994940512043252 
2.2100000000002393, -0.8994863827357014 
2.2200000000002604, -0.8992597363727448 
2.2300000000002815, -0.8987688069659028 
2.2400000000003026, -0.8979281635779133 
2.2500000000003237, -0.8965949124683921 
2.260000000000345, -0.8945586234810319 
2.270000000000366, -0.8915554662203098 
2.280000000000387, -0.8873321315348071 
2.290000000000408, -0.881766783856596 
2.3000000000004293, -0.8749954195609471 
2.3100000000004504, -0.8674454868576165 
2.3200000000004715, -0.8597306345221138 
2.3300000000004926, -0.8524740952232858 
2.3400000000005137, -0.8461647283192792 
2.3500000000005348, -0.8410892578606038 
2.360000000000556, -0.8373260889362024 
2.370000000000577, -0.8347770070212265 
2.380000000000598, -0.8332234231280593 
2.390000000000619, -0.832394656185883 
2.4000000000006403, -0.8320297736424026 
2.4100000000006614, -0.831916354352851 
2.4200000000006825, -0.8319016687225312 
2.4300000000007036, -0.8318838934979315 
2.4400000000007247, -0.8317950198998174 
2.450000000000746, -0.8315843886716815 
2.460000000000767, -0.8312076474355357 
2.470000000000788, -0.8306234015190167 
2.480000000000809, -0.8297982779606944 
2.49000000000083, -0.8287181974878106 
2.5000000000008513, -0.827398955652144 
2.5100000000008724, -0.8258872580014585 
2.5200000000008935, -0.824249287919747 
2.5300000000009146, -0.8225538369886344 
2.5400000000009357, -0.8208603692361308 
2.550000000000957, -0.8192164975324582 
2.560000000000978, -0.8176620139807182 
2.570000000000999, -0.8162340790706988 
2.58000000000102, -0.8149697538672493 
2.5900000000010412, -0.8139046179738243 
2.6000000000010624, -0.8130681466898368 
2.6100000000010835, -0.8124777326159587 
2.6200000000011046, -0.8121338184490898 
2.6300000000011257, -0.8120183345781913 
2.6400000000011468, -0.8120973747595241 
2.650000000001168, -0.812327254382317 
2.660000000001189, -0.8126617735557792 
2.67000000000121, -0.8130584334001343 
2.680000000001231, -0.8134823319476144 
2.6900000000012523, -0.8139074974474123 
2.7000000000012734, -0.8143157618575543 
2.7100000000012945, -0.8146932784633091 
2.7200000000013156, -0.8150254754882731 
2.7300000000013367, -0.8152928214672015 
2.740000000001358, -0.8154706424210376 
2.750000000001379, -0.8155343522542567 
2.7600000000014, -0.8154674512581325 
2.770000000001421, -0.8152673625636726 
2.780000000001442, -0.8149463914179362 
2.7900000000014633, -0.8145294863303514 
2.8000000000014844, -0.8140526045867749 
2.8100000000015055, -0.813564189413982 
2.8200000000015266, -0.8131295123880479 
2.8300000000015477, -0.8128351612541229 
2.840000000001569, -0.8127894911644452 
2.85000000000159, -0.813115261793253 
2.860000000001611, -0.8139337750060722 
2.870000000001632, -0.8153445235764127 
2.8800000000016532, -0.8174070871314572 
2.8900000000016743, -0.8201298244747939 
2.9000000000016954, -0.8234642805837338 
2.9100000000017165, -0.8273003516064581 
2.9200000000017377, -0.8314598082722908 
2.9300000000017588, -0.8356954078941774 
2.94000000000178, -0.8397129805360102 
2.950000000001801, -0.8432291373727535 
2.960000000001822, -0.8460475915745075 
2.970000000001843, -0.8481072488712978 
2.9800000000018643, -0.8494694975303793 
2.9900000000018854, -0.8502617531390969 
3.0000000000019065, -0.8506198981176633 
3.0100000000019276, -0.8506551183950833 
3.0200000000019487, -0.8504449885950247 
3.03000000000197, -0.8500390513197364 
3.040000000001991, -0.8494724747135647 
3.050000000002012, -0.8487881809078726 
3.060000000002033, -0.8480735416681162 
3.070000000002054, -0.8475197927716989 
3.0800000000020753, -0.8475049949496807 
3.0900000000020964, -0.8486750563876173 
3.1000000000021175, -0.8519492926353248 
3.1100000000021386, -0.8583360312198053 
3.1200000000021597, -0.8684857129676551 
3.130000000002181, -0.8821108822450026 
3.140000000002202, -0.8976963641838983 
3.150000000002223, -0.9129485975450595 
3.160000000002244, -0.9258443262089993 
3.1700000000022652, -0.9354500774296131 
3.1800000000022863, -0.9419222344125673 
3.1900000000023074, -0.9459688008577276 
3.2000000000023285, -0.9483518062523435 
3.2100000000023496, -0.9496616310400718 
3.2200000000023707, -0.9502874242549728 
3.230000000002392, -0.9504601674727254 
3.240000000002413, -0.9503016245865838 
3.250000000002434, -0.9498592565243245 
3.260000000002455, -0.949127739361618 
3.2700000000024763, -0.9480656817155714 
3.2800000000024974, -0.946623474458461 
3.2900000000025185, -0.9448106275066064 
3.3000000000025396, -0.9428425642222301 
3.3100000000025607, -0.9413819661535218 
3.3200000000025818, -0.9417551132965821 
3.330000000002603, -0.9457766189641422 
3.340000000002624, -0.9547983103350972 
3.350000000002645, -0.9683686484869838 
3.360000000002666, -0.9839258733901959 
3.3700000000026873, -0.9982771169470587 
3.3800000000027084, -1.0094305609727885 
3.3900000000027295, -1.017070494596466 
3.4000000000027506, -1.0218648328732607 
3.4100000000027717, -1.024689198716041 
3.420000000002793, -1.026251632965119 
3.430000000002814, -1.027022782457641 
3.440000000002835, -1.0272817125066172 
3.450000000002856, -1.0271756004151156 
3.460000000002877, -1.0267627629916456 
3.4700000000028983, -1.02603852779789 
3.4800000000029194, -1.0249546448202989 
3.4900000000029405, -1.0234535559426203 
3.5000000000029616, -1.02155778963908 
3.5100000000029827, -1.019571665165539 
3.520000000003004, -1.0184036827591585 
3.530000000003025, -1.0197849169774338 
3.540000000003046, -1.0258158407588533 
3.550000000003067, -1.0375120665954465 
3.5600000000030882, -1.0533950297780665 
3.5700000000031094, -1.069983713030307 
3.5800000000031305, -1.0840414500601536 
3.5900000000031516, -1.0941931002241803 
3.6000000000031727, -1.1007303833437745 
3.6100000000031938, -1.1046162675432314 
3.620000000003215, -1.1067792329991863 
3.630000000003236, -1.1078800078445934 
3.640000000003257, -1.1083246260211643 
3.650000000003278, -1.1083397606161198 
3.6600000000032993, -1.108039543011383 
3.6700000000033204, -1.107474678042294 
3.6800000000033415, -1.1066786389220338 
3.6900000000033626, -1.1057375066772912 
3.7000000000033837, -1.1049113234657226 
3.710000000003405, -1.1047911437195674 
3.720000000003426, -1.1063445245798973 
3.730000000003447, -1.1105947068057127 
3.740000000003468, -1.1179389739672385 
3.750000000003489, -1.1276733015377682 
3.7600000000035103, -1.138261474158651 
3.7700000000035314, -1.1481018911444127 
3.7800000000035525, -1.1561417388353523 
3.7900000000035736, -1.1620378020494002 
3.8000000000035947, -1.1659770476455977 
3.810000000003616, -1.1683902554940861 
3.820000000003637, -1.169726582126395 
3.830000000003658, -1.170343539805993 
3.840000000003679, -1.1704865643420193 
3.8500000000037002, -1.1703124321180458 
3.8600000000037213, -1.1699272900648863 
3.8700000000037424, -1.1694301130184201 
3.8800000000037635, -1.1689586514203936 
3.8900000000037847, -1.1687207524952232 
3.9000000000038058, -1.1689706337784238 
3.910000000003827, -1.1699070412219654 
3.920000000003848, -1.1715570563452993 
3.930000000003869, -1.1737561422842782 
3.94000000000389, -1.17623788624339 
3.9500000000039113, -1.1787411163694572 
3.9600000000039324, -1.181065290551779 
3.9700000000039535, -1.1830772536049796 
3.9800000000039746, -1.184699183091381 
3.9900000000039957, -1.1858971328117838 
4.000000000004016, -1.1866741395352958 
4.010000000003993, -1.187063726580203 
4.02000000000397, -1.1871202400337242 
4.030000000003946, -1.1869080349698593 
4.040000000003923, -1.1864950902722222 
4.0500000000039, -1.1859543460001893 
4.0600000000038765, -1.1853696108896865 
4.070000000003853, -1.1848363693506587 
4.08000000000383, -1.1844478803227878 
4.090000000003807, -1.1842694576519606 
4.100000000003783, -1.1843184655050034 
4.11000000000376, -1.1845633659422479 
4.120000000003737, -1.1849377269172081 
4.130000000003713, -1.1853588646930073 
4.14000000000369, -1.18574494716602 
4.150000000003667, -1.186026507069392 
4.1600000000036434, -1.1861505542733277 
4.17000000000362, -1.1860797025911323 
4.180000000003597, -1.1857901165123033 
4.1900000000035735, -1.1852700222202097 
4.20000000000355, -1.1845187662276355 
4.210000000003527, -1.1835466063403952 
4.220000000003504, -1.1823761094622653 
4.23000000000348, -1.1810456961176121 
4.240000000003457, -1.1796145053686222 
4.250000000003434, -1.1781659721670648 
4.26000000000341, -1.1768058371030325 
4.270000000003387, -1.1756489141995148 
4.280000000003364, -1.1747898423427803 
4.2900000000033405, -1.1742640058827354 
4.300000000003317, -1.1740247237289743 
4.310000000003294, -1.1739611635995577 
4.320000000003271, -1.1739436940318702 
4.330000000003247, -1.1738581263172145 
4.340000000003224, -1.1736101515358581 
4.350000000003201, -1.1731102074832058 
4.360000000003177, -1.1722563403939896 
4.370000000003154, -1.1709272927813328 
4.380000000003131, -1.1689926929250973 
4.390000000003107, -1.1663412428455313 
4.400000000003084, -1.162919045063044 
4.410000000003061, -1.1587654529333629 
4.4200000000030375, -1.154039991666088 
4.430000000003014, -1.1490408227297162 
4.440000000002991, -1.1442028041555123 
4.450000000002968, -1.1400341686675257 
4.460000000002944, -1.1369561986953625 
4.470000000002921, -1.1351081779437622 
4.480000000002898, -1.1342864805336872 
4.490000000002874, -1.1340940283497982 
4.500000000002851, -1.1341541990974546 
4.510000000002828, -1.134217258913402 
4.520000000002804, -1.1341460542260497 
4.530000000002781, -1.1338553525374944 
4.540000000002758, -1.1332536595437126 
4.5500000000027345, -1.1321945246402998 
4.560000000002711, -1.1304295088697258 
4.570000000002688, -1.1275631382139337 
4.580000000002665, -1.123037125402687 
4.590000000002641, -1.1162123931527954 
4.600000000002618, -1.1066344693238694 
4.610000000002595, -1.094473590131275 
4.620000000002571, -1.0808924641020892 
4.630000000002548, -1.0679144962240532 
4.640000000002525, -1.0576039409294717 
4.6500000000025015, -1.0510350391664414 
4.660000000002478, -1.0479039090771147 
4.670000000002455, -1.0470535373609955 
4.6800000000024315, -1.0472899799906719 
4.690000000002408, -1.0478250393811481 
4.700000000002385, -1.0482808661322354 
4.710000000002362, -1.048524159982879 
4.720000000002338, -1.0485198965806268 
4.730000000002315, -1.048245825474224 
4.740000000002292, -1.0476455666233766 
4.750000000002268, -1.0465924760731835 
4.760000000002245, -1.0448455663146659 
4.770000000002222, -1.041990781302911 
4.7800000000021985, -1.0373856982110408 
4.790000000002175, -1.030181686768056 
4.800000000002152, -1.0195737850593685 
4.810000000002129, -1.0053959931893592 
4.820000000002105, -0.9888151035159138 
4.830000000002082, -0.9723633032579032 
4.840000000002059, -0.9588272849857183 
4.850000000002035, -0.9497766172528669 
4.860000000002012, -0.9450394046333171 
4.870000000001989, -0.9433445867930302 
4.880000000001965, -0.9432773894768923 
4.890000000001942, -0.9438242828739959 
4.900000000001919, -0.944440635248467 
4.9100000000018955, -0.94490088635079 
4.920000000001872, -0.9451379126487263 
4.930000000001849, -0.945138915087326 
