t, s[1].omega / s[0].omega 
0, -1.2599925930800688 
0.009999999999999995, -1.2590813557194658 
0.019999999999999934, -1.2578330098869486 
0.029999999999999874, -1.2562488694765142 
0.04000000000000012, -1.2543308665503097 
0.050000000000000405, -1.2520816822217182 
0.06000000000000069, -1.249504919743701 
0.07000000000000098, -1.246605310691412 
0.08000000000000126, -1.2433889440197392 
0.09000000000000155, -1.2398635072378812 
0.10000000000000184, -1.236038528687837 
0.11000000000000212, -1.2319256096939697 
0.12000000000000241, -1.227538635104161 
0.130000000000002, -1.2228939506936471 
0.1400000000000009, -1.218010496561187 
0.1499999999999998, -1.212909887677317 
0.1599999999999987, -1.2076164366926645 
0.1699999999999976, -1.2021571200592818 
0.1799999999999965, -1.1965614957460937 
0.1899999999999954, -1.1908615876851474 
0.1999999999999943, -1.1850917561362833 
0.2099999999999932, -1.1792885717453812 
0.2199999999999921, -1.1734907021775098 
0.229999999999991, -1.1677388034196612 
0.2399999999999899, -1.1620753851004546 
0.2499999999999888, -1.1565445949263622 
0.2599999999999877, -1.1511918480100374 
0.2699999999999866, -1.1460632195605351 
0.2799999999999855, -1.1412045300932678 
0.2899999999999844, -1.1366600839703744 
0.2999999999999833, -1.1324710731528707 
0.3099999999999822, -1.1286737217957483 
0.3199999999999811, -1.1252973123598042 
0.32999999999998, -1.1223622861501068 
0.3399999999999789, -1.1198786369512195 
0.3499999999999778, -1.117844806173507 
0.35999999999997667, -1.1162472394380674 
0.36999999999997557, -1.1150606844372952 
0.37999999999997447, -1.1142492127210402 
0.38999999999997337, -1.1137678527361892 
0.39999999999997227, -1.113564646489812 
0.40999999999997117, -1.11358290085898 
0.41999999999997006, -1.113763401763333 
0.42999999999996896, -1.1140463913408862 
0.43999999999996786, -1.114373164476521 
0.44999999999996676, -1.1146872080506818 
0.45999999999996566, -1.114934871335883 
0.46999999999996456, -1.1150656097234821 
0.47999999999996346, -1.1150318816238625 
0.48999999999996235, -1.114788799389688 
0.49999999999996125, -1.1142936418618252 
0.5099999999999602, -1.113505332412603 
0.519999999999959, -1.1123839759526568 
0.529999999999958, -1.1108905341732445 
0.5399999999999568, -1.1089867019404043 
0.5499999999999557, -1.1066350296640095 
0.5599999999999546, -1.1037993162508235 
0.5699999999999535, -1.1004452743167743 
0.5799999999999524, -1.0965414435228722 
0.5899999999999513, -1.0920603000887856 
0.5999999999999502, -1.086979483007033 
0.6099999999999491, -1.081283033889097 
0.619999999999948, -1.0749625322384262 
0.6299999999999469, -1.0680180056183015 
0.6399999999999458, -1.0604585075481079 
0.6499999999999447, -1.052302285221702 
0.6599999999999436, -1.0435765011730707 
0.6699999999999425, -1.0343165216456425 
0.6799999999999414, -1.0245648316798135 
0.6899999999999403, -1.0143696749316327 
0.6999999999999392, -1.003783539089513 
0.7099999999999381, -0.9928616128933442 
0.719999999999937, -0.9816603292357048 
0.7299999999999359, -0.9702360846353458 
0.7399999999999348, -0.958644194128209 
0.7499999999999337, -0.9469381080687166 
0.7599999999999326, -0.935168888186943 
0.7699999999999315, -0.9233849175472062 
0.7799999999999304, -0.9116318040791329 
0.7899999999999293, -0.8999524299209188 
0.7999999999999282, -0.8883870977727027 
0.8099999999999271, -0.8769737291807207 
0.819999999999926, -0.8657480764629569 
0.8299999999999249, -0.854743918334738 
0.8399999999999238, -0.8439932180043085 
0.8499999999999227, -0.8335262307372092 
0.8599999999999216, -0.8233715551049835 
0.8699999999999205, -0.8135561280689275 
0.8799999999999194, -0.8041051686263976 
0.8899999999999183, -0.7950420780205296 
0.8999999999999172, -0.7863883066178988 
0.9099999999999161, -0.7781631986660922 
0.919999999999915, -0.7703838264383229 
0.9299999999999139, -0.7630648249311943 
0.9399999999999128, -0.7562182374622252 
0.9499999999999117, -0.7498533813504614 
0.9599999999999106, -0.7439767414678792 
0.9699999999999095, -0.7385918979117917 
0.9799999999999084, -0.7336994924414492 
0.9899999999999073, -0.729297236703787 
0.9999999999999062, -0.7253799636909394 
1.0099999999999052, -0.7219397223644245 
1.019999999999904, -0.7189659139806236 
1.029999999999903, -0.716445467387421 
1.039999999999902, -0.7143630494576954 
1.0499999999999008, -0.7127013059042021 
1.0599999999998997, -0.7114411270023533 
1.0699999999998986, -0.7105619322498575 
1.0799999999998975, -0.7100419677281714 
1.0899999999998964, -0.7098586099075974 
1.0999999999998953, -0.709988669854209 
1.1099999999998942, -0.7104086922402599 
1.119999999999893, -0.7110952442041284 
1.129999999999892, -0.7120251899096256 
1.1399999999998909, -0.713175947559825 
1.1499999999998898, -0.71452572655455 
1.1599999999998887, -0.7160537433582262 
1.1699999999998876, -0.7177404153738761 
1.1799999999998865, -0.7195675326083699 
1.1899999999998854, -0.7215184070828876 
1.1999999999998843, -0.7235779997328043 
1.2099999999998832, -0.7257330239301338 
1.219999999999882, -0.7279720237747572 
1.229999999999881, -0.730285424021574 
1.2399999999998799, -0.7326655470861626 
1.2499999999998788, -0.7351065912068161 
1.2599999999998777, -0.7376045627856782 
1.2699999999998766, -0.7401571554522758 
1.2799999999998755, -0.7427635687360509 
1.2899999999998744, -0.7454242605869227 
1.2999999999998733, -0.748140630435107 
1.3099999999998722, -0.750914633006103 
1.319999999999871, -0.7537483275584015 
1.32999999999987, -0.7566433723473046 
1.3399999999998689, -0.7596004796333968 
1.3499999999998678, -0.762618852116404 
1.3599999999998666, -0.7656956269417395 
1.3699999999998655, -0.7688253580320018 
1.3799999999998644, -0.7719995710095368 
1.3899999999998633, -0.7752064268551745 
1.3999999999998622, -0.7784305300107727 
1.4099999999998611, -0.781652913103052 
1.41999999999986, -0.7848512231162782 
1.429999999999859, -0.7880001222393759 
1.4399999999998578, -0.7910719009259681 
1.4499999999998567, -0.7940372819688285 
1.4599999999998556, -0.7968663746171877 
1.4699999999998545, -0.7995297197879888 
1.4799999999998534, -0.8019993544159396 
1.4899999999998523, -0.8042498177553047 
1.4999999999998512, -0.8062590266532594 
1.5099999999998501, -0.8080089604246098 
1.519999999999849, -0.8094861170981269 
1.529999999999848, -0.8106817281382589 
1.5399999999998468, -0.8115917442491464 
1.5499999999998457, -0.8122166267669586 
1.5599999999998446, -0.8125609947137938 
1.5699999999998435, -0.812633185576139 
1.5799999999998424, -0.8124447885227589 
1.5899999999998413, -0.8120102034657606 
1.5999999999998402, -0.811346270072022 
1.6099999999998391, -0.810471999599049 
1.619999999999838, -0.8094084309803474 
1.629999999999837, -0.8081786221010461 
1.6399999999998358, -0.8068077782872418 
1.6499999999998347, -0.8053235127929329 
1.6599999999998336, -0.8037562282724617 
1.6699999999998325, -0.8021396034546373 
1.6799999999998314, -0.8005111650186586 
1.6899999999998303, -0.798912920595241 
1.6999999999998292, -0.7973920245757063 
1.709999999999828, -0.7960014438459354 
1.719999999999827, -0.7948005856523591 
1.729999999999826, -0.7938558446616119 
1.7399999999998248, -0.7932410211020146 
1.7499999999998237, -0.7930375569561307 
1.7599999999998226, -0.7933345328515785 
1.7699999999998215, -0.7942283649843248 
1.7799999999998204, -0.7958221396302796 
1.7899999999998193, -0.7982245232771757 
1.7999999999998182, -0.8015481901626765 
1.809999999999817, -0.80590771746955 
1.819999999999816, -0.8114169134976704 
1.8299999999998149, -0.8181855680712835 
1.8399999999998138, -0.8263156495688556 
1.8499999999998127, -0.8358970210228082 
1.8599999999998116, -0.8470028089113303 
1.8699999999998105, -0.8596846299508104 
1.8799999999998094, -0.8739679567995956 
1.8899999999998083, -0.8898479718280069 
1.8999999999998072, -0.9072863035277564 
1.909999999999806, -0.926209045310581 
1.919999999999805, -0.946506406205959 
1.9299999999998039, -0.9680342298690722 
1.9399999999998028, -0.9906174478080366 
1.9499999999998017, -1.0140553257203628 
1.9599999999998006, -1.03812815247133 
1.9699999999997995, -1.0626048496651905 
1.9799999999997984, -1.087250881192026 
1.9899999999997973, -1.1118358364322372 
1.9999999999997962, -1.13614014638301 
2.0099999999998173, -1.1599605467064689 
2.0199999999998384, -1.1831140902541486 
2.0299999999998595, -1.2054406960983253 
2.0399999999998806, -1.2268043718366322 
2.0499999999999017, -1.2470933433643532 
2.059999999999923, -1.2662193679014928 
2.069999999999944, -1.284116499424954 
2.079999999999965, -1.3007395348213935 
2.089999999999986, -1.3160623099219466 
2.100000000000007, -1.3300759515117726 
2.1100000000000283, -1.342787135543352 
2.1200000000000494, -1.3542163603220103 
2.1300000000000705, -1.3643962197219075 
2.1400000000000916, -1.3733696554354669 
2.1500000000001127, -1.3811881759349625 
2.160000000000134, -1.3879100482995919 
2.170000000000155, -1.3935984914291364 
2.180000000000176, -1.398319919695224 
2.190000000000197, -1.402142300267971 
2.2000000000002182, -1.4051336926131077 
2.2100000000002393, -1.4073610344793186 
2.2200000000002604, -1.4088892262858124 
2.2300000000002815, -1.4097805473193938 
2.2400000000003026, -1.4100944147927983 
2.2500000000003237, -1.4098874722701593 
2.260000000000345, -1.409213968099267 
2.270000000000366, -1.408126357665517 
2.280000000000387, -1.406676036146554 
2.290000000000408, -1.404914083034602 
2.3000000000004293, -1.4028918804580501 
2.3100000000004504, -1.4006614615111035 
2.3200000000004715, -1.3982754613978965 
2.3300000000004926, -1.3957865910818306 
2.3400000000005137, -1.3932466324220572 
2.3500000000005348, -1.3907050570119004 
2.360000000000556, -1.3882074766981267 
2.370000000000577, -1.3857942107006214 
2.380000000000598, -1.383499270486424 
2.390000000000619, -1.3813499999350036 
2.4000000000006403, -1.3793674696067961 
2.4100000000006614, -1.3775675413791457 
2.4200000000006825, -1.3759623426951029 
2.4300000000007036, -1.3745617693115975 
2.4400000000007247, -1.373374607891422 
2.450000000000746, -1.3724089457808262 
2.460000000000767, -1.3716716984393802 
2.470000000000788, -1.3711672969518025 
2.480000000000809, -1.3708957877649401 
2.49000000000083, -1.370850751485409 
2.5000000000008513, -1.3710175054273235 
2.5100000000008724, -1.3713719973595577 
2.5200000000008935, -1.3718806391895308 
2.5300000000009146, -1.3725011132526814 
2.5400000000009357, -1.3731839716796752 
2.550000000000957, -1.373874698070926 
2.560000000000978, -1.3745158436849534 
2.570000000000999, -1.375048888095461 
2.58000000000102, -1.375415579717685 
2.5900000000010412, -1.3755586447808614 
2.6000000000010624, -1.375421877425638 
2.6100000000010835, -1.3749497153922337 
2.6200000000011046, -1.374086457927249 
2.6300000000011257, -1.372775299914281 
2.6400000000011468, -1.3709573495925753 
2.650000000001168, -1.3685707777352014 
2.660000000001189, -1.3655502220564042 
2.67000000000121, -1.3618265461640426 
2.680000000001231, -1.3573270283612737 
2.6900000000012523, -1.3519760306791406 
2.7000000000012734, -1.3456961707078847 
2.7100000000012945, -1.338409986835915 
2.7200000000013156, -1.3300420518377891 
2.7300000000013367, -1.3205214529063876 
2.740000000001358, -1.3097845225511495 
2.750000000001379, -1.2977776795064697 
2.7600000000014, -1.284460226565898 
2.770000000001421, -1.2698069556330904 
2.780000000001442, -1.2538104286184073 
2.7900000000014633, -1.236482832068653 
2.8000000000014844, -1.2178573370287684 
2.8100000000015055, -1.1979889262571728 
2.8200000000015266, -1.1769546725324103 
2.8300000000015477, -1.1548534614732295 
2.840000000001569, -1.131805151114331 
2.85000000000159, -1.1079491532675114 
2.860000000001611, -1.0834424157780556 
2.870000000001632, -1.0584567879995654 
2.8800000000016532, -1.0331757702969302 
2.8900000000016743, -1.00779068464052 
2.9000000000016954, -0.9824963550252273 
2.9100000000017165, -0.9574864462771946 
2.9200000000017377, -0.9329486668740056 
2.9300000000017588, -0.9090600835091284 
2.94000000000178, -0.8859828118347718 
2.950000000001801, -0.8638603332130552 
2.960000000001822, -0.8428146417135681 
2.970000000001843, -0.8229443555794907 
2.9800000000018643, -0.8043238440882591 
2.9900000000018854, -0.787003337103767 
3.0000000000019065, -0.7710099124264419 
3.0100000000019276, -0.7563492035866096 
3.0200000000019487, -0.7430076417128495 
3.03000000000197, -0.7309550388576752 
3.040000000001991, -0.720147332701675 
3.050000000002012, -0.7105293381384707 
3.060000000002033, -0.7020373838089019 
3.070000000002054, -0.6946017459128817 
3.0800000000020753, -0.6881488236458786 
3.0900000000020964, -0.6826030279512434 
3.1000000000021175, -0.6778883768584153 
3.1100000000021386, -0.6739298064192384 
3.1200000000021597, -0.6706542167496504 
3.130000000002181, -0.667991278862189 
3.140000000002202, -0.6658740308645192 
3.150000000002223, -0.6642392926676389 
3.160000000002244, -0.6630279274134219 
3.1700000000022652, -0.6621849760324406 
3.1800000000022863, -0.6616596891388564 
3.1900000000023074, -0.6614054781626629 
3.2000000000023285, -0.6613798053881356 
3.2100000000023496, -0.6615440304931065 
3.2200000000023707, -0.6618632292807575 
3.230000000002392, -0.6623059985310551 
3.240000000002413, -0.6628442592085352 
3.250000000002434, -0.6634530685630086 
3.260000000002455, -0.6641104498553524 
3.2700000000024763, -0.6647972464363867 
3.2800000000024974, -0.6654970046180056 
3.2900000000025185, -0.6661958871438421 
3.3000000000025396, -0.6668826160799068 
3.3100000000025607, -0.6675484406606924 
3.3200000000025818, -0.6681871221895886 
3.330000000002603, -0.6687949247515795 
3.340000000002624, -0.669370597595157 
3.350000000002645, -0.6699153329901537 
3.360000000002666, -0.6704326825899859 
3.3700000000026873, -0.670928416171532 
3.3800000000027084, -0.6714103092842548 
3.3900000000027295, -0.6718878507663186 
3.4000000000027506, -0.6723718669599932 
3.4100000000027717, -0.6728740662128455 
3.420000000002793, -0.6734065141569773 
3.430000000002814, -0.6739810565682522 
3.440000000002835, -0.6746087117071496 
3.450000000002856, -0.6752990575718206 
3.460000000002877, -0.6760596413904568 
3.4700000000028983, -0.6768954391348297 
3.4800000000029194, -0.6778083921655047 
3.4900000000029405, -0.6787970465952587 
3.5000000000029616, -0.6798563186613046 
3.5100000000029827, -0.6809774061394614 
3.520000000003004, -0.6821478611888154 
3.530000000003025, -0.6833518334753125 
3.540000000003046, -0.6845704836388226 
3.550000000003067, -0.6857825562190655 
3.5600000000030882, -0.6869650887467927 
3.5700000000031094, -0.6880942212154858 
3.5800000000031305, -0.6891460594568116 
3.5900000000031516, -0.6900975390602158 
3.6000000000031727, -0.6909272350448862 
3.6100000000031938, -0.6916160673105662 
3.620000000003215, -0.6921478626309993 
3.630000000003236, -0.6925097491533307 
3.640000000003257, -0.692692376757606 
3.650000000003278, -0.6926899736501101 
3.6600000000032993, -0.6925002639253418 
3.6700000000033204, -0.6921242809660582 
3.6800000000033415, -0.6915661168222721 
3.6900000000033626, -0.6908326483729693 
3.7000000000033837, -0.6899332780440548 
3.710000000003405, -0.6888797213894745 
3.720000000003426, -0.687685867230146 
3.730000000003447, -0.6863677293840564 
3.740000000003468, -0.6849435030921951 
3.750000000003489, -0.6834337344898977 
3.7600000000035103, -0.681861608035294 
3.7700000000035314, -0.6802533546072551 
3.7800000000035525, -0.6786387818059714 
3.7900000000035736, -0.6770519275382196 
3.8000000000035947, -0.6755318379276268 
3.810000000003616, -0.6741234706312743 
3.820000000003637, -0.6728787244308482 
3.830000000003658, -0.6718575951265362 
3.840000000003679, -0.6711294558432445 
3.8500000000037002, -0.6707744562679716 
3.8600000000037213, -0.6708850292609069 
3.8700000000037424, -0.6715674835939439 
3.8800000000037635, -0.6729436467279822 
3.8900000000037847, -0.6751524994999049 
3.9000000000038058, -0.678351712758478 
3.910000000003827, -0.6827189512929938 
3.920000000003848, -0.688452749586521 
3.930000000003869, -0.6957726842819931 
3.94000000000389, -0.7049184690110532 
3.9500000000039113, -0.7161474820532286 
3.9600000000039324, -0.729730118076402 
3.9700000000039535, -0.7459422574211887 
3.9800000000039746, -0.7650541150461505 
3.9900000000039957, -0.7873148351909491 
4.000000000004016, -0.8129325271028423 
4.010000000003993, -0.8420500853079312 
4.02000000000397, -0.8747181596030299 
4.030000000003946, -0.9108679814787282 
4.040000000003923, -0.9502881725795976 
4.0500000000039, -0.992610684445803 
4.0600000000038765, -1.0373110191449093 
4.070000000003853, -1.0837263220420972 
4.08000000000383, -1.1310917501755453 
4.090000000003807, -1.1785913829332992 
4.100000000003783, -1.2254162046692685 
4.11000000000376, -1.2708198066323788 
4.120000000003737, -1.3141632162800148 
4.130000000003713, -1.3549433262997452 
4.14000000000369, -1.3928034974107806 
4.150000000003667, -1.4275285659518906 
4.1600000000036434, -1.4590287093440708 
4.17000000000362, -1.4873171998899517 
4.180000000003597, -1.512486410048119 
4.1900000000035735, -1.53468515266207 
4.20000000000355, -1.5540990955759009 
4.210000000003527, -1.5709349049755612 
4.220000000003504, -1.5854080532948736 
4.23000000000348, -1.5977338444110758 
4.240000000003457, -1.6081210706889648 
4.250000000003434, -1.6167677271207541 
4.26000000000341, -1.6238582910019215 
4.270000000003387, -1.6295621808185645 
4.280000000003364, -1.6340331072201095 
4.2900000000033405, -1.637409109809049 
4.300000000003317, -1.6398131330731538 
4.310000000003294, -1.6413540346225262 
4.320000000003271, -1.6421279416205463 
4.330000000003247, -1.642219878940231 
4.340000000003224, -1.641705586156929 
4.350000000003201, -1.6406534209225196 
4.360000000003177, -1.6391262164241194 
4.370000000003154, -1.6371829280956793 
4.380000000003131, -1.6348798841400731 
4.390000000003107, -1.632271467142335 
4.400000000003084, -1.6294101229365048 
4.410000000003061, -1.6263457303680677 
4.4200000000030375, -1.62312455830976 
4.430000000003014, -1.61978823460859 
4.440000000002991, -1.616373275583206 
4.450000000002968, -1.6129116919894315 
4.460000000002944, -1.609432954830811 
4.470000000002921, -1.6059671998974763 
4.480000000002898, -1.602549073865091 
4.490000000002874, -1.5992212190775665 
4.500000000002851, -1.5960361982308606 
4.510000000002828, -1.5930557757477892 
4.520000000002804, -1.5903469397729397 
4.530000000002781, -1.587974820579074 
4.540000000002758, -1.585993575122286 
4.5500000000027345, -1.584437083734717 
4.560000000002711, -1.583311619516631 
4.570000000002688, -1.5825922887873036 
4.580000000002665, -1.5822240509623866 
4.590000000002641, -1.582126853388351 
4.600000000002618, -1.582203349060455 
4.610000000002595, -1.5823471793427142 
4.620000000002571, -1.5824499821728228 
4.630000000002548, -1.5824059224969422 
4.640000000002525, -1.582113301396677 
4.6500000000025015, -1.5814734042252345 
4.660000000002478, -1.5803870683860621 
4.670000000002455, -1.578749502958396 
4.6800000000024315, -1.5764437665713593 
4.690000000002408, -1.573333109392608 
4.700000000002385, -1.5692521880686838 
4.710000000002362, -1.5639970169789181 
4.720000000002338, -1.5573134547281802 
4.730000000002315, -1.5488840696440829 
4.740000000002292, -1.5383134258493216 
4.750000000002268, -1.5251122550875762 
4.760000000002245, -1.5086817392004992 
4.770000000002222, -1.488300367461534 
4.7800000000021985, -1.463117693850953 
4.790000000002175, -1.432161843578009 
4.800000000002152, -1.3943705365451213 
4.810000000002129, -1.348657771377597 
4.820000000002105, -1.294028113247598 
4.830000000002082, -1.229744477329095 
4.840000000002059, -1.1555398394601089 
4.850000000002035, -1.0718376488890067 
4.860000000002012, -0.9799167431754437 
4.870000000001989, -0.8819416896948793 
4.880000000001965, -0.7808001723343395 
4.890000000001942, -0.679752146703433 
4.900000000001919, -0.581975849920531 
4.9100000000018955, -0.4901447748942696 
4.920000000001872, -0.40615332174682045 
4.930000000001849, -0.3310389306885554 
