t, s[1].omega / s[0].omega 
0, -0.5499977429120769 
0.009999999999999995, -0.5497841622659141 
0.019999999999999934, -0.5495879545290445 
0.029999999999999874, -0.5493920966126071 
0.04000000000000012, -0.549175984908856 
0.050000000000000405, -0.5489225093850835 
0.06000000000000069, -0.5486222273896807 
0.07000000000000098, -0.5482739477533638 
0.08000000000000126, -0.5478833249529662 
0.09000000000000155, -0.5474616785857137 
0.10000000000000184, -0.5470266351061449 
0.11000000000000212, -0.5466054863835084 
0.12000000000000241, -0.5462419360336902 
0.130000000000002, -0.5460070015542431 
0.1400000000000009, -0.5460146578812618 
0.1499999999999998, -0.5464412048567494 
0.1599999999999987, -0.5475421058722537 
0.1699999999999976, -0.5496478620414232 
0.1799999999999965, -0.5531011215052437 
0.1899999999999954, -0.5580899121451658 
0.1999999999999943, -0.5643971565372132 
0.2099999999999932, -0.5712656385013795 
0.2199999999999921, -0.5776603236216208 
0.229999999999991, -0.5828287514894792 
0.2399999999999899, -0.5866062484738693 
0.2499999999999888, -0.5892353343383213 
0.2599999999999877, -0.5910472142182914 
0.2699999999999866, -0.5923003960725922 
0.2799999999999855, -0.5931632583811327 
0.2899999999999844, -0.5937417390432858 
0.2999999999999833, -0.5941038492275402 
0.3099999999999822, -0.5942934032948954 
0.3199999999999811, -0.5943366296974313 
0.32999999999998, -0.5942451969065994 
0.3399999999999789, -0.594017648530331 
0.3499999999999778, -0.5936406127249633 
0.35999999999997667, -0.5930913864508488 
0.36999999999997557, -0.5923439694390462 
0.37999999999997447, -0.5913800809558686 
0.38999999999997337, -0.5902035236245623 
0.39999999999997227, -0.5888509190574756 
0.40999999999997117, -0.5873896892394048 
0.41999999999997006, -0.5859011036553854 
0.42999999999996896, -0.5844578142537473 
0.43999999999996786, -0.5831088907840261 
0.44999999999996676, -0.5818777516073377 
0.45999999999996566, -0.5807692930427721 
0.46999999999996456, -0.579779630099215 
0.47999999999996346, -0.578904036231864 
0.48999999999996235, -0.5781417979760426 
0.49999999999996125, -0.5774985817632988 
0.5099999999999602, -0.5769874049022551 
0.519999999999959, -0.5766290591126493 
0.529999999999958, -0.5764524469388764 
0.5399999999999568, -0.5764950261960341 
0.5499999999999557, -0.5768034134131779 
0.5599999999999546, -0.5774340359382455 
0.5699999999999535, -0.5784533480945477 
0.5799999999999524, -0.5799363166284042 
0.5899999999999513, -0.5819604661765447 
0.5999999999999502, -0.5845909847932286 
0.6099999999999491, -0.5878517700645078 
0.619999999999948, -0.5916820288521702 
0.6299999999999469, -0.5958936515398362 
0.6399999999999458, -0.6001669839066355 
0.6499999999999447, -0.6041220558117768 
0.6599999999999436, -0.6074467660519793 
0.6699999999999425, -0.6099961737844826 
0.6799999999999414, -0.6117954989340915 
0.6899999999999403, -0.612969542767136 
0.6999999999999392, -0.6136658783107256 
0.7099999999999381, -0.6140097650734736 
0.719999999999937, -0.614089251130285 
0.7299999999999359, -0.6139554083895435 
0.7399999999999348, -0.6136260303901759 
0.7499999999999337, -0.6130870001681438 
0.7599999999999326, -0.6122890394990955 
0.7699999999999315, -0.6111393941541279 
0.7799999999999304, -0.6094905859035346 
0.7899999999999293, -0.6071348653385059 
0.7999999999999282, -0.6038254869384099 
0.8099999999999271, -0.5993558982264664 
0.819999999999926, -0.5937032668124281 
0.8299999999999249, -0.5871577147981621 
0.8399999999999238, -0.5802955249773395 
0.8499999999999227, -0.5737645671926288 
0.8599999999999216, -0.5680452979542456 
0.8699999999999205, -0.5633542603661564 
0.8799999999999194, -0.5596912054201099 
0.8899999999999183, -0.5569359438773064 
0.8999999999999172, -0.5549270899723139 
0.9099999999999161, -0.5535063906065472 
0.919999999999915, -0.5525372451746579 
0.9299999999999139, -0.5519092206166838 
0.9399999999999128, -0.5515365007781228 
0.9499999999999117, -0.5513543617231667 
0.9599999999999106, -0.5513154565228375 
0.9699999999999095, -0.5513865918553663 
0.9799999999999084, -0.5515462208682083 
0.9899999999999073, -0.551782651294828 
0.9999999999999062, -0.5520927183244531 
1.0099999999999052, -0.5524802801376375 
1.019999999999904, -0.5529534564132739 
1.029999999999903, -0.5535194498926724 
1.039999999999902, -0.5541766610835954 
1.0499999999999008, -0.5549059297439359 
1.0599999999998997, -0.555665394710817 
1.0699999999998986, -0.5563943078572955 
1.0799999999998975, -0.5570272370797483 
1.0899999999998964, -0.557512337224835 
1.0999999999998953, -0.5578230839231241 
1.1099999999998942, -0.5579577951667628 
1.119999999999893, -0.5579302464126805 
1.129999999999892, -0.5577585351759915 
1.1399999999998909, -0.5574568313023365 
1.1499999999998898, -0.5570307010928609 
1.1599999999998887, -0.556474597746278 
1.1699999999998876, -0.5557697219402897 
1.1799999999998865, -0.5548804915143253 
1.1899999999998854, -0.5537473512381175 
1.1999999999998843, -0.5522722216074285 
1.2099999999998832, -0.5502917573263 
1.219999999999882, -0.5475397734658136 
1.229999999999881, -0.5436317328815032 
1.2399999999998799, -0.5381679610120413 
1.2499999999998788, -0.5310478227450571 
1.2599999999998777, -0.5228180643008985 
1.2699999999998766, -0.5145855412959064 
1.2799999999998755, -0.5074249147816997 
1.2899999999998744, -0.5018795941545083 
1.2999999999998733, -0.4979447801494161 
1.3099999999998722, -0.49532404664293866 
1.319999999999871, -0.49365943720750816 
1.32999999999987, -0.49264379028059624 
1.3399999999998689, -0.4920492696296444 
1.3499999999998678, -0.49171925722092613 
1.3599999999998666, -0.49155066462404606 
1.3699999999998655, -0.49147742803931466 
1.3799999999998644, -0.4914580569491386 
1.3899999999998633, -0.49146723312585083 
1.3999999999998622, -0.49149073283068667 
1.4099999999998611, -0.4915228851802264 
1.41999999999986, -0.49156570746330736 
1.429999999999859, -0.49162853444078547 
1.4399999999998578, -0.4917265604511972 
1.4499999999998567, -0.4918768257188959 
1.4599999999998556, -0.49209135090824085 
1.4699999999998545, -0.49236916735392355 
1.4799999999998534, -0.4926908596080885 
1.4899999999998523, -0.49301951399765126 
1.4999999999998512, -0.4933094083591631 
1.5099999999998501, -0.49351888828927704 
1.519999999999849, -0.49362050988156014 
1.529999999999848, -0.49360356359577173 
1.5399999999998468, -0.49346965828179606 
1.5499999999998457, -0.4932255545113583 
1.5599999999998446, -0.4928768092789982 
1.5699999999998435, -0.4924233670680892 
1.5799999999998424, -0.49185641221367016 
1.5899999999998413, -0.4911549623651218 
1.5999999999998402, -0.49028005649132106 
1.6099999999998391, -0.4891631337210832 
1.619999999999838, -0.4876831583005184 
1.629999999999837, -0.4856270098112982 
1.6399999999998358, -0.4826415614326637 
1.6499999999998347, -0.47823719078121896 
1.6599999999998336, -0.47197650700256294 
1.6699999999998325, -0.46390002544076225 
1.6799999999998314, -0.45483446003780414 
1.6899999999998303, -0.4460720797546065 
1.6999999999998292, -0.43864671820113044 
1.709999999999828, -0.43295033275094774 
1.719999999999827, -0.4288655166690341 
1.729999999999826, -0.42605974626136867 
1.7399999999998248, -0.4241856221158343 
1.7499999999998237, -0.4229605403240808 
1.7599999999998226, -0.42217878326036573 
1.7699999999998215, -0.42169899901883034 
1.7799999999998204, -0.42142744846388647 
1.7899999999998193, -0.421303939370111 
1.7999999999998182, -0.4212917621956316 
1.809999999999817, -0.4213711643695178 
1.819999999999816, -0.4215355415779607 
1.8299999999998149, -0.4217895024730519 
1.8399999999998138, -0.42214783884707685 
1.8499999999998127, -0.42263408554165005 
1.8599999999998116, -0.4232769169115763 
1.8699999999998105, -0.42410250239484465 
1.8799999999998094, -0.4251218266142646 
1.8899999999998083, -0.4263148437544381 
1.8999999999998072, -0.42761853818474443 
1.909999999999806, -0.4289301959494046 
1.919999999999805, -0.4301322748217894 
1.9299999999998039, -0.43112862952324116 
1.9399999999998028, -0.4318694218832075 
1.9499999999998017, -0.4323512188526456 
1.9599999999998006, -0.4325990862114155 
1.9699999999997995, -0.4326458496833106 
1.9799999999997984, -0.43251745180223605 
1.9899999999997973, -0.4322248477067786 
1.9999999999997962, -0.431759136204522 
2.0099999999998173, -0.4310866504893414 
2.0199999999998384, -0.4301422350875515 
2.0299999999998595, -0.4288216168918976 
2.0399999999998806, -0.42697927114305345 
2.0499999999999017, -0.4244475548245636 
2.059999999999923, -0.4210987386151136 
2.069999999999944, -0.4169493052944559 
2.079999999999965, -0.412241074106786 
2.089999999999986, -0.40739808723292625 
2.100000000000007, -0.4028573413967901 
2.1100000000000283, -0.3989087917378332 
2.1200000000000494, -0.3956532467543282 
2.1300000000000705, -0.3930557296890267 
2.1400000000000916, -0.391019109831199 
2.1500000000001127, -0.3894355429636879 
2.160000000000134, -0.3882113841061404 
2.170000000000155, -0.3872751726863917 
2.180000000000176, -0.3865778012492629 
2.190000000000197, -0.38609028153194036 
2.2000000000002182, -0.38580171473634584 
2.2100000000002393, -0.3857185814477804 
2.2200000000002604, -0.38586583373249783 
2.2300000000002815, -0.38629004654149457 
2.2400000000003026, -0.38706470348065675 
2.2500000000003237, -0.3882971222399782 
2.260000000000345, -0.39013481887909063 
2.270000000000366, -0.3927649692437087 
2.280000000000387, -0.39639271055424075 
2.290000000000408, -0.40117474037486084 
2.3000000000004293, -0.40709070085652443 
2.3100000000004504, -0.413792553768831 
2.3200000000004715, -0.420579552693808 
2.3300000000004926, -0.4266418226487703 
2.3400000000005137, -0.43144117904387924 
2.3500000000005348, -0.43488431706771397 
2.360000000000556, -0.4371897412616604 
2.370000000000577, -0.4386653715545072 
2.380000000000598, -0.4395754879726786 
2.390000000000619, -0.4401059945926692 
2.4000000000006403, -0.4403749735259502 
2.4100000000006614, -0.4404521674690522 
2.4200000000006825, -0.4403746044447088 
2.4300000000007036, -0.440156863993041 
2.4400000000007247, -0.4397979092934805 
2.450000000000746, -0.43928711581911173 
2.460000000000767, -0.43861202005701133 
2.470000000000788, -0.43776908931604525 
2.480000000000809, -0.43677552048183577 
2.49000000000083, -0.4356757402223016 
2.5000000000008513, -0.43453575712165843 
2.5100000000008724, -0.4334256823989744 
2.5200000000008935, -0.43240007669927366 
2.5300000000009146, -0.4314868993225794 
2.5400000000009357, -0.4306882458969624 
2.550000000000957, -0.4299887822073082 
2.560000000000978, -0.4293660268774695 
2.570000000000999, -0.42879855190759475 
2.58000000000102, -0.4282707468824448 
2.5900000000010412, -0.42777471116711674 
2.6000000000010624, -0.4273107639091509 
2.6100000000010835, -0.42688811810302896 
2.6200000000011046, -0.42652692006947446 
2.6300000000011257, -0.42626257076035784 
2.6400000000011468, -0.4261531682496399 
2.650000000001168, -0.42629079103693696 
2.660000000001189, -0.4268163644098285 
2.67000000000121, -0.4279340542882234 
2.680000000001231, -0.42991063411857333 
2.6900000000012523, -0.43302422648709343 
2.7000000000012734, -0.43740681535613446 
2.7100000000012945, -0.44277210575491477 
2.7200000000013156, -0.44823619713487417 
2.7300000000013367, -0.45263990839802276 
2.740000000001358, -0.45532323867008434 
2.750000000001379, -0.45649749418680374 
2.7600000000014, -0.45681901793662705 
2.770000000001421, -0.45683600943054997 
2.780000000001442, -0.45681839984706407 
2.7900000000014633, -0.4568430966719902 
2.8000000000014844, -0.4569050740506084 
2.8100000000015055, -0.456979175148439 
2.8200000000015266, -0.4570427514401558 
2.8300000000015477, -0.45708015618869596 
2.840000000001569, -0.4570813363061158 
2.85000000000159, -0.4570395958767923 
2.860000000001611, -0.45695026975165387 
2.870000000001632, -0.45681085135596566 
2.8800000000016532, -0.45662262881726584 
2.8900000000016743, -0.45639327807487556 
2.9000000000016954, -0.45613892240875725 
2.9100000000017165, -0.45588349295902414 
2.9200000000017377, -0.4556539384549952 
2.9300000000017588, -0.45547218474473256 
2.94000000000178, -0.4553471505383686 
2.950000000001801, -0.45527065462694705 
2.960000000001822, -0.45521940848819076 
2.970000000001843, -0.4551624117354097 
2.9800000000018643, -0.45507024877323426 
2.9900000000018854, -0.45492186476580726 
3.0000000000019065, -0.4547064029851155 
3.0100000000019276, -0.4544209091830698 
3.0200000000019487, -0.454066418709243 
3.03000000000197, -0.4536444883642597 
3.040000000001991, -0.453154913667816 
3.050000000002012, -0.4525943165526713 
3.060000000002033, -0.4519545603655663 
3.070000000002054, -0.45121887257535287 
3.0800000000020753, -0.45035111479982903 
3.0900000000020964, -0.4492691471158462 
3.1000000000021175, -0.4477899070552301 
3.1100000000021386, -0.4455498080294385 
3.1200000000021597, -0.4419792060579815 
3.130000000002181, -0.43652465800709345 
3.140000000002202, -0.4291873728837693 
3.150000000002223, -0.42087082311333857 
3.160000000002244, -0.4129282563319297 
3.1700000000022652, -0.4063428803542125 
3.1800000000022863, -0.4014079003857248 
3.1900000000023074, -0.3979430522615611 
3.2000000000023285, -0.3956049356286681 
3.2100000000023496, -0.3940659860564418 
3.2200000000023707, -0.3930730486077628 
3.230000000002392, -0.39244841553373133 
3.240000000002413, -0.3920735977224504 
3.250000000002434, -0.3918723740716902 
3.260000000002455, -0.3917977846637978 
3.2700000000024763, -0.39182339645425773 
3.2800000000024974, -0.3919380275722334 
3.2900000000025185, -0.3921429897806349 
3.3000000000025396, -0.39245090779137265 
3.3100000000025607, -0.3928849743570945 
3.3200000000025818, -0.39347706191425946 
3.330000000002603, -0.39426263209928497 
3.340000000002624, -0.39527034415219015 
3.350000000002645, -0.3965056308077098 
3.360000000002666, -0.39793178224864356 
3.3700000000026873, -0.3994592376803953 
3.3800000000027084, -0.40095736243322344 
3.3900000000027295, -0.4022917015399215 
3.4000000000027506, -0.40336672776028093 
3.4100000000027717, -0.4041461228772894 
3.420000000002793, -0.40464283021410646 
3.430000000002814, -0.40489413607426067 
3.440000000002835, -0.40493928371050564 
3.450000000002856, -0.4048061350984621 
3.460000000002877, -0.40450484870049574 
3.4700000000028983, -0.4040244483222475 
3.4800000000029194, -0.40332948603880636 
3.4900000000029405, -0.40235645473859527 
3.5000000000029616, -0.40101323432321445 
3.5100000000029827, -0.39919021592548765 
3.520000000003004, -0.39679564256250177 
3.530000000003025, -0.3938182424057567 
3.540000000003046, -0.39038661628095006 
3.550000000003067, -0.38676499639659745 
3.5600000000030882, -0.3832622476693787 
3.5700000000031094, -0.38011775222356803 
3.5800000000031305, -0.37744634788196607 
3.5900000000031516, -0.37525496527370505 
3.6000000000031727, -0.37348962297219446 
3.6100000000031938, -0.37207650607054404 
3.620000000003215, -0.37094599446970145 
3.630000000003236, -0.37004295428516343 
3.640000000003257, -0.36932945559887015 
3.650000000003278, -0.36878452149186125 
3.6600000000032993, -0.3684035852483578 
3.6700000000033204, -0.36819909074034907 
3.6800000000033415, -0.3682030894937703 
3.6900000000033626, -0.3684725250457332 
3.7000000000033837, -0.36909786162721886 
3.710000000003405, -0.37021534187527494 
3.720000000003426, -0.37202141453733606 
3.730000000003447, -0.3747824857133804 
3.740000000003468, -0.37882034637043016 
3.750000000003489, -0.38443245293266526 
3.7600000000035103, -0.39169817736784684 
3.7700000000035314, -0.4002013807902693 
3.7800000000035525, -0.40891838770468986 
3.7900000000035736, -0.4165992114596773 
3.8000000000035947, -0.42245346673177836 
3.810000000003616, -0.42644231501587776 
3.820000000003637, -0.42898719756458076 
3.830000000003658, -0.4305711846569388 
3.840000000003679, -0.43155455432668444 
3.8500000000037002, -0.43216240254385313 
3.8600000000037213, -0.4325255809934737 
3.8700000000037424, -0.4327183504812182 
3.8800000000037635, -0.43278204102883305 
3.8900000000037847, -0.43273820219203085 
3.9000000000038058, -0.4325959547611281 
3.910000000003827, -0.43235691006826044 
3.920000000003848, -0.43201985573930807 
3.930000000003869, -0.43158638257567183 
3.94000000000389, -0.43106710913675766 
3.9500000000039113, -0.4304861090859107 
3.9600000000039324, -0.42988005399377827 
3.9700000000039535, -0.4292905571643667 
3.9800000000039746, -0.42875266534200573 
3.9900000000039957, -0.42828530062998693 
4.000000000004016, -0.427887977513694 
4.010000000003993, -0.4275442774506731 
4.02000000000397, -0.42722954224323084 
4.030000000003946, -0.4269190995927463 
4.040000000003923, -0.4265939344811095 
4.0500000000039, -0.42624264831418646 
4.0600000000038765, -0.42586060251963803 
4.070000000003853, -0.4254480593895287 
4.08000000000383, -0.4250088140740953 
4.090000000003807, -0.42455004402385715 
4.100000000003783, -0.4240834721378744 
4.11000000000376, -0.42362735909466653 
4.120000000003737, -0.42320757649449214 
4.130000000003713, -0.4228526165979015 
4.14000000000369, -0.4225699298766018 
4.150000000003667, -0.4222808607277009 
4.1600000000036434, -0.4216990457985722 
4.17000000000362, -0.42022258917154787 
4.180000000003597, -0.4170896584102417 
4.1900000000035735, -0.4119844400502167 
4.20000000000355, -0.40557216959868664 
4.210000000003527, -0.39914006587338935 
4.220000000003504, -0.393711288869771 
4.23000000000348, -0.38964379663582116 
4.240000000003457, -0.38681806717763906 
4.250000000003434, -0.38494317183658955 
4.26000000000341, -0.38373497923355926 
4.270000000003387, -0.3829745656056875 
4.280000000003364, -0.3825100532630533 
4.2900000000033405, -0.38224180560381693 
4.300000000003317, -0.3821070142760369 
4.310000000003294, -0.38206805890661344 
4.320000000003271, -0.3821048873780465 
4.330000000003247, -0.38221061698288633 
4.340000000003224, -0.3823894366843046 
4.350000000003201, -0.3826558415797527 
4.360000000003177, -0.3830339759523772 
4.370000000003154, -0.38355544331547287 
4.380000000003131, -0.38425364553868274 
4.390000000003107, -0.3851530351102764 
4.400000000003084, -0.3862534469776223 
4.410000000003061, -0.3875140028558276 
4.4200000000030375, -0.3888470532775779 
4.430000000003014, -0.3901334553097577 
4.440000000002991, -0.39125780384075104 
4.450000000002968, -0.39214340654896584 
4.460000000002944, -0.3927650025209916 
4.470000000002921, -0.39313687180622503 
4.480000000002898, -0.39329086210666425 
4.490000000002874, -0.3932579012814302 
4.500000000002851, -0.3930570449037685 
4.510000000002828, -0.39268978604454746 
4.520000000002804, -0.3921361688481852 
4.530000000002781, -0.39135064859886415 
4.540000000002758, -0.3902582345213663 
4.5500000000027345, -0.38875571625887956 
4.560000000002711, -0.38672876509062193 
4.570000000002688, -0.3840977494081228 
4.580000000002665, -0.38088816391907354 
4.590000000002641, -0.3772807092903584 
4.600000000002618, -0.37357826360912094 
4.610000000002595, -0.37009168294582334 
4.620000000002571, -0.3670312463730044 
4.630000000002548, -0.36447487336878504 
4.640000000002525, -0.36240187172492805 
4.6500000000025015, -0.36074373150268146 
4.660000000002478, -0.3594218136943778 
4.670000000002455, -0.3583670010683252 
4.6800000000024315, -0.3575269830199064 
4.690000000002408, -0.35686745432058664 
4.700000000002385, -0.3563713649280928 
4.710000000002362, -0.3560384978228607 
4.720000000002338, -0.3558866036208628 
4.730000000002315, -0.3559549048600115 
4.740000000002292, -0.35631072502262257 
4.750000000002268, -0.35705996485795155 
4.760000000002245, -0.3583615116894855 
4.770000000002222, -0.3604429397089664 
4.7800000000021985, -0.36360683728307225 
4.790000000002175, -0.3681992261422486 
4.800000000002152, -0.37448681691619856 
4.810000000002129, -0.3824001341039 
4.820000000002105, -0.39124719136237174 
4.830000000002082, -0.3997636741259505 
4.840000000002059, -0.40673843440716106 
4.850000000002035, -0.41168730067824927 
4.860000000002012, -0.4148678694093603 
4.870000000001989, -0.4168203069665523 
