t, s[1].omega / s[0].omega 
0, -1.3399873283994477 
0.009999999999999995, -1.338515993394127 
0.019999999999999934, -1.3366361776694204 
0.029999999999999874, -1.334367100362336 
0.04000000000000012, -1.3317825607354208 
0.050000000000000405, -1.3290470818665456 
0.06000000000000069, -1.3264437429393388 
0.07000000000000098, -1.3243310964643566 
0.08000000000000126, -1.3229756236771055 
0.09000000000000155, -1.3223671579789946 
0.10000000000000184, -1.3222379851058608 
0.11000000000000212, -1.3222667073963077 
0.12000000000000241, -1.3222249087370206 
0.130000000000002, -1.3219754650870927 
0.1400000000000009, -1.3214006976192327 
0.1499999999999998, -1.3203216503968347 
0.1599999999999987, -1.3184097204161904 
0.1699999999999976, -1.3150764342979022 
0.1799999999999965, -1.3093707430906691 
0.1899999999999954, -1.3000591688189336 
0.1999999999999943, -1.2863136898275904 
0.2099999999999932, -1.269309066982055 
0.2199999999999921, -1.2533970826043233 
0.229999999999991, -1.2437754492375348 
0.2399999999999899, -1.24176588194928 
0.2499999999999888, -1.2443053870905423 
0.2599999999999877, -1.2478297859594727 
0.2699999999999866, -1.250608245006514 
0.2799999999999855, -1.2523464947818181 
0.2899999999999844, -1.2532580669481872 
0.2999999999999833, -1.2535934221205927 
0.3099999999999822, -1.2535137596885197 
0.3199999999999811, -1.2530867682898656 
0.32999999999998, -1.252309746867613 
0.3399999999999789, -1.2511528560937089 
0.3499999999999778, -1.2496715041431012 
0.35999999999997667, -1.2482707765386043 
0.36999999999997557, -1.2480821093881151 
0.37999999999997447, -1.250928312367953 
0.38999999999997337, -1.2581382457655483 
0.39999999999997227, -1.2690054829186108 
0.40999999999997117, -1.2810275950242713 
0.41999999999997006, -1.2917329737493877 
0.42999999999996896, -1.2998902254585032 
0.43999999999996786, -1.3054288253538116 
0.44999999999996676, -1.3088561412884885 
0.45999999999996566, -1.3107913409197915 
0.46999999999996456, -1.3117458295750812 
0.47999999999996346, -1.3120737310899275 
0.48999999999996235, -1.3119995467092962 
0.49999999999996125, -1.3116687343364348 
0.5099999999999602, -1.3112012117813496 
0.519999999999959, -1.3107379981233334 
0.529999999999958, -1.3104565130580452 
0.5399999999999568, -1.3105223365518157 
0.5499999999999557, -1.3110001313143151 
0.5599999999999546, -1.3118166794513475 
0.5699999999999535, -1.31281571706018 
0.5799999999999524, -1.3138363571827727 
0.5899999999999513, -1.3147537332047825 
0.5999999999999502, -1.3154844493966935 
0.6099999999999491, -1.3159783841781767 
0.619999999999948, -1.3162085340528393 
0.6299999999999469, -1.3161631369471194 
0.6399999999999458, -1.3158411950905586 
0.6499999999999447, -1.3152509941311303 
0.6599999999999436, -1.3144110948619399 
0.6699999999999425, -1.3133538835533045 
0.6799999999999414, -1.3121316070355244 
0.6899999999999403, -1.3108230765058895 
0.6999999999999392, -1.3095370776400177 
0.7099999999999381, -1.308405570458642 
0.719999999999937, -1.3075539205167215 
0.7299999999999359, -1.3070439289450557 
0.7399999999999348, -1.3068284258176395 
0.7499999999999337, -1.3067717653537718 
0.7599999999999326, -1.3067179261454398 
0.7699999999999315, -1.3065346883154612 
0.7799999999999304, -1.3061064718543172 
0.7899999999999293, -1.305298235299813 
0.7999999999999282, -1.3039146628785927 
0.8099999999999271, -1.3016685273745634 
0.819999999999926, -1.2981763332994307 
0.8299999999999249, -1.2930137778429884 
0.8399999999999238, -1.2858720140540505 
0.8499999999999227, -1.2768378165805558 
0.8599999999999216, -1.2667319409948483 
0.8699999999999205, -1.2572105851352566 
0.8799999999999194, -1.250151394385081 
0.8899999999999183, -1.246442072589317 
0.8999999999999172, -1.245441308439848 
0.9099999999999161, -1.245796025344355 
0.919999999999915, -1.2464614976399002 
0.9299999999999139, -1.2469595953777608 
0.9399999999999128, -1.2471585329674952 
0.9499999999999117, -1.247041714179836 
0.9599999999999106, -1.2465849745048754 
0.9699999999999095, -1.2456972031664664 
0.9799999999999084, -1.2441767216513733 
0.9899999999999073, -1.2416744659253385 
0.9999999999999062, -1.237727970489216 
1.0099999999999052, -1.2320792716761964 
1.019999999999904, -1.225588433961536 
1.029999999999903, -1.2213547020006532 
1.039999999999902, -1.2237647565765795 
1.0499999999999008, -1.2342006181772815 
1.0599999999998997, -1.2487244279411778 
1.0699999999998986, -1.261976800192287 
1.0799999999998975, -1.2713935832767829 
1.0899999999998964, -1.2771431623060554 
1.0999999999998953, -1.280333223848627 
1.1099999999998942, -1.2819583264040255 
1.119999999999893, -1.2826634284008347 
1.129999999999892, -1.2828118748988844 
1.1399999999998909, -1.282593306206811 
1.1499999999998898, -1.2821102331040604 
1.1599999999998887, -1.2814565433650833 
1.1699999999998876, -1.2808134536202642 
1.1799999999998865, -1.2805465121740864 
1.1899999999998854, -1.2811811725482156 
1.1999999999998843, -1.283123309990554 
1.2099999999998832, -1.2863129582638952 
1.219999999999882, -1.2902302507751806 
1.229999999999881, -1.2942376627996073 
1.2399999999998799, -1.2978619760954022 
1.2499999999998788, -1.300854066259041 
1.2599999999998777, -1.3031327139146653 
1.2699999999998766, -1.3047190847981882 
1.2799999999998755, -1.3056913458063069 
1.2899999999998744, -1.306153735035399 
1.2999999999998733, -1.306214140353803 
1.3099999999998722, -1.3059714130335058 
1.319999999999871, -1.3055150455323055 
1.32999999999987, -1.3049349367135568 
1.3399999999998689, -1.304331059219365 
1.3499999999998678, -1.303808117168612 
1.3599999999998666, -1.303450908499522 
1.3699999999998655, -1.3032988461776112 
1.3799999999998644, -1.303339394152352 
1.3899999999998633, -1.3035167805862056 
1.3999999999998622, -1.3037465358564815 
1.4099999999998611, -1.3039346359349318 
1.41999999999986, -1.303994464722708 
1.429999999999859, -1.3038523228405396 
1.4399999999998578, -1.3034435735596723 
1.4499999999998567, -1.3027086334779832 
1.4599999999998556, -1.3015942743667641 
1.4699999999998545, -1.300059579948387 
1.4799999999998534, -1.29808415626006 
1.4899999999998523, -1.2956794291685605 
1.4999999999998512, -1.2929080328590192 
1.5099999999998501, -1.2899150668651003 
1.519999999999849, -1.2869596885434116 
1.529999999999848, -1.2844002643819834 
1.5399999999998468, -1.2825695496661251 
1.5499999999998457, -1.2815775284071353 
1.5599999999998446, -1.281239010261714 
1.5699999999998435, -1.281224079143385 
1.5799999999998424, -1.2812503848456072 
1.5899999999998413, -1.2811438461774907 
1.5999999999998402, -1.2807922117516324 
1.6099999999998391, -1.2800716723517152 
1.619999999999838, -1.2787735751189735 
1.629999999999837, -1.2765211281769835 
1.6399999999998358, -1.2726719661624482 
1.6499999999998347, -1.2662608301871745 
1.6599999999998336, -1.256175684837007 
1.6699999999998325, -1.2419068221381018 
1.6799999999998314, -1.2248882783066877 
1.6899999999998303, -1.2090909987518867 
1.6999999999998292, -1.1988381124840573 
1.709999999999828, -1.1952900719101063 
1.719999999999827, -1.1961448208346668 
1.729999999999826, -1.1984629523021235 
1.7399999999998248, -1.2005756048969276 
1.7499999999998237, -1.2020020899522639 
1.7599999999998226, -1.202784873323433 
1.7699999999998215, -1.2030745416709803 
1.7799999999998204, -1.2029815584636383 
1.7899999999998193, -1.2025439577154313 
1.7999999999998182, -1.2017258448971253 
1.809999999999817, -1.2004260208113846 
1.819999999999816, -1.1985247409237176 
1.8299999999998149, -1.1960593883598656 
1.8399999999998138, -1.1936619617407462 
1.8499999999998127, -1.1931515787672315 
1.8599999999998116, -1.1973569232775443 
1.8699999999998105, -1.20804603659714 
1.8799999999998094, -1.223551007717121 
1.8899999999998083, -1.2396312481926524 
1.8999999999998072, -1.252770335265419 
1.909999999999806, -1.2618476782580283 
1.919999999999805, -1.2674363805099782 
1.9299999999998039, -1.270599651036453 
1.9399999999998028, -1.2722448604250645 
1.9499999999998017, -1.272976399343405 
1.9599999999998006, -1.2731509482007395 
1.9699999999997995, -1.2729681388536362 
1.9799999999997984, -1.2725492746832485 
1.9899999999997973, -1.272007747473549 
1.9999999999997962, -1.2715185316255189 
2.0099999999998173, -1.2713579594774642 
2.0199999999998384, -1.2718393272974073 
2.0299999999998595, -1.2731309441563021 
2.0399999999998806, -1.275122735062825 
2.0499999999999017, -1.2774988219296675 
2.059999999999923, -1.2799194716548437 
2.069999999999944, -1.2821357035189473 
2.079999999999965, -1.2840042043712352 
2.089999999999986, -1.2854594609155376 
2.100000000000007, -1.2864854841913735 
2.1100000000000283, -1.287098123735166 
2.1200000000000494, -1.287334698478261 
2.1300000000000705, -1.2872461468251384 
2.1400000000000916, -1.286890812422626 
2.1500000000001127, -1.2863323874210872 
2.160000000000134, -1.2856432173897043 
2.170000000000155, -1.2849082965298364 
2.180000000000176, -1.2842208013031042 
2.190000000000197, -1.2836656128198956 
2.2000000000002182, -1.2832995164599053 
2.2100000000002393, -1.2831372808003763 
2.2200000000002604, -1.2831448883576115 
2.2300000000002815, -1.2832449868982017 
2.2400000000003026, -1.283338641269292 
2.2500000000003237, -1.2833293347378474 
2.260000000000345, -1.2831318165901702 
2.270000000000366, -1.2826665314193737 
2.280000000000387, -1.2818521652925825 
2.290000000000408, -1.2806058498820625 
2.3000000000004293, -1.278852712529534 
2.3100000000004504, -1.2765412133999887 
2.3200000000004715, -1.273661457534455 
2.3300000000004926, -1.2702696585757924 
2.3400000000005137, -1.2665250280079385 
2.3500000000005348, -1.2627312282204453 
2.360000000000556, -1.259332686363517 
2.370000000000577, -1.2567831799302271 
2.380000000000598, -1.2552993567353987 
2.390000000000619, -1.2547214859986984 
2.4000000000006403, -1.254658297284671 
2.4100000000006614, -1.254742412789217 
2.4200000000006825, -1.254745753958289 
2.4300000000007036, -1.2545451215460623 
2.4400000000007247, -1.2540426176100306 
2.450000000000746, -1.2530917900366292 
2.460000000000767, -1.2514239008005115 
2.470000000000788, -1.2485575284570678 
2.480000000000809, -1.2437037774352155 
2.49000000000083, -1.2357727553370148 
2.5000000000008513, -1.2237604911086002 
2.5100000000008724, -1.207828527276599 
2.5200000000008935, -1.1905976371932017 
2.5300000000009146, -1.1766615893105143 
2.5400000000009357, -1.1693283806132189 
2.550000000000957, -1.1680793316941431 
2.560000000000978, -1.1699842807553293 
2.570000000000999, -1.1725091739898457 
2.58000000000102, -1.1745134719671657 
2.5900000000010412, -1.1757855647528976 
2.6000000000010624, -1.1764452162367338 
2.6100000000010835, -1.1766458161805473 
2.6200000000011046, -1.1764826074861072 
2.6300000000011257, -1.1759768807327766 
2.6400000000011468, -1.1750762650667539 
2.650000000001168, -1.173661520319159 
2.660000000001189, -1.1715916986670238 
2.67000000000121, -1.1688798094602502 
2.680000000001231, -1.166133262800373 
2.6900000000012523, -1.1651653241735365 
2.7000000000012734, -1.1688863125967601 
2.7100000000012945, -1.1792969810022638 
2.7200000000013156, -1.194945791145901 
2.7300000000013367, -1.2115104064193452 
2.740000000001358, -1.225187666822022 
2.750000000001379, -1.23466851380427 
2.7600000000014, -1.2405055523217372 
2.770000000001421, -1.2438112964257155 
2.780000000001442, -1.2455402952218793 
2.7900000000014633, -1.2463251886543072 
2.8000000000014844, -1.2465359908052722 
2.8100000000015055, -1.2463755907165288 
2.8200000000015266, -1.2459596038066736 
2.8300000000015477, -1.245386200060766 
2.840000000001569, -1.2448122020115484 
2.85000000000159, -1.2445232021640393 
2.860000000001611, -1.2449192508339681 
2.870000000001632, -1.2463318094573594 
2.8800000000016532, -1.248779631749424 
2.8900000000016743, -1.2519318025479478 
2.9000000000016954, -1.2553146112500886 
2.9100000000017165, -1.2585259020818516 
2.9200000000017377, -1.2613124175418242 
2.9300000000017588, -1.2635509954786301 
2.94000000000178, -1.2652082640583606 
2.950000000001801, -1.2663097669278391 
2.960000000001822, -1.2669183740586627 
2.970000000001843, -1.267116013258618 
2.9800000000018643, -1.2669885545990551 
2.9900000000018854, -1.2666182686008534 
3.0000000000019065, -1.2660864508522787 
3.0100000000019276, -1.2654821248527355 
3.0200000000019487, -1.2649052648298897 
3.03000000000197, -1.2644529667731887 
3.040000000001991, -1.2641926149529268 
3.050000000002012, -1.2641426567840273 
3.060000000002033, -1.2642726533496476 
3.070000000002054, -1.2645153138720029 
3.0800000000020753, -1.2647834013307437 
3.0900000000020964, -1.2649883260204668 
3.1000000000021175, -1.265052962348561 
3.1100000000021386, -1.2649142095663188 
3.1200000000021597, -1.2645199807897183 
3.130000000002181, -1.263827501684544 
3.140000000002202, -1.2628051511427796 
3.150000000002223, -1.2614361272767134 
3.160000000002244, -1.2597226322104822 
3.1700000000022652, -1.2576922386437057 
3.1800000000022863, -1.255409676397965 
3.1900000000023074, -1.252994711201467 
3.2000000000023285, -1.2506376300873145 
3.2100000000023496, -1.2485863686260794 
3.2200000000023707, -1.247071402158026 
3.230000000002392, -1.246184794176618 
3.240000000002413, -1.2458193471845722 
3.250000000002434, -1.2457435275363424 
3.260000000002455, -1.2457300144192462 
3.2700000000024763, -1.245617452304689 
3.2800000000024974, -1.2452919403207832 
3.2900000000025185, -1.2446356568090613 
3.3000000000025396, -1.2434712496883413 
3.3100000000025607, -1.2415059016078367 
3.3200000000025818, -1.2382814567910567 
3.330000000002603, -1.2331676840266887 
3.340000000002624, -1.2254849711504983 
3.350000000002645, -1.2148632382485358 
3.360000000002666, -1.201822969723599 
3.3700000000026873, -1.1882039026333968 
3.3800000000027084, -1.1767153898475082 
3.3900000000027295, -1.1694016431702514 
3.4000000000027506, -1.1663377641959598 
3.4100000000027717, -1.1660277029563444 
3.420000000002793, -1.1668173588502695 
3.430000000002814, -1.1677135368551999 
3.440000000002835, -1.168339910592241 
3.450000000002856, -1.1686261317141189 
3.460000000002877, -1.1685880735975045 
3.4700000000028983, -1.1682263504487738 
3.4800000000029194, -1.1674811386721144 
3.4900000000029405, -1.1661979097981283 
3.5000000000029616, -1.164087020497822 
3.5100000000029827, -1.1606961198694707 
3.520000000003004, -1.155491788400653 
3.530000000003025, -1.148273192650998 
3.540000000003046, -1.1400873395896851 
3.550000000003067, -1.1339724254964478 
3.5600000000030882, -1.1336575207216548 
3.5700000000031094, -1.1401495770678538 
3.5800000000031305, -1.15044151729734 
3.5900000000031516, -1.1604394765295711 
3.6000000000031727, -1.16793747990328 
3.6100000000031938, -1.1727537448112881 
3.620000000003215, -1.1755553827554592 
3.630000000003236, -1.1770489992168183 
3.640000000003257, -1.1777315791268763 
3.650000000003278, -1.1778962597716418 
3.6600000000032993, -1.1776932961517979 
3.6700000000033204, -1.1771833542296826 
3.6800000000033415, -1.1763830486202487 
3.6900000000033626, -1.1753303707444094 
3.7000000000033837, -1.1742150804788667 
3.710000000003405, -1.173594151022448 
3.720000000003426, -1.1745478987782552 
3.730000000003447, -1.1783794260412455 
3.740000000003468, -1.185694936639996 
3.750000000003489, -1.195668738381143 
3.7600000000035103, -1.206436271321434 
3.7700000000035314, -1.216190827650905 
3.7800000000035525, -1.2239081902273212 
3.7900000000035736, -1.229386903066168 
3.8000000000035947, -1.2329344853794604 
3.810000000003616, -1.2350351934855486 
3.820000000003637, -1.2361411882457136 
3.830000000003658, -1.2365920508341222 
3.840000000003679, -1.2366141286265528 
3.8500000000037002, -1.2363537706035073 
3.8600000000037213, -1.2359209282019241 
3.8700000000037424, -1.2354348920458906 
3.8800000000037635, -1.2350594223846405 
3.8900000000037847, -1.234995487989444 
3.9000000000038058, -1.235407446822573 
3.910000000003827, -1.2363291715015778 
3.920000000003848, -1.2376449426042209 
3.930000000003869, -1.2391608461785597 
3.94000000000389, -1.2406890568715103 
3.9500000000039113, -1.2420889537347344 
3.9600000000039324, -1.243270204005697 
3.9700000000039535, -1.2441812649010315 
3.9800000000039746, -1.2447974568394824 
3.9900000000039957, -1.2451132353951715 
4.000000000004016, -1.245138384483582 
4.010000000003993, -1.244896004098671 
4.02000000000397, -1.2444209557873929 
4.030000000003946, -1.2437595195932885 
4.040000000003923, -1.2429712985065475 
4.0500000000039, -1.2421311878557264 
4.0600000000038765, -1.2413257425654607 
4.070000000003853, -1.2406406076701606 
4.08000000000383, -1.2401426173080228 
4.090000000003807, -1.2398619320041906 
4.100000000003783, -1.2397785935887466 
4.11000000000376, -1.2398233312696287 
4.120000000003737, -1.2398985804461387 
4.130000000003713, -1.2399054517415553 
4.14000000000369, -1.2397567342615199 
4.150000000003667, -1.2393735623846385 
4.1600000000036434, -1.2386774630687658 
4.17000000000362, -1.2375886837820533 
4.180000000003597, -1.2360342591379028 
4.1900000000035735, -1.233962558041067 
4.20000000000355, -1.2313589855119802 
4.210000000003527, -1.228261780963083 
4.220000000003504, -1.2247827043890482 
4.23000000000348, -1.2211345067961894 
4.240000000003457, -1.2176465325421764 
4.250000000003434, -1.214718118279691 
4.26000000000341, -1.2126688496501168 
4.270000000003387, -1.2115596720218194 
4.280000000003364, -1.2111646951827066 
4.2900000000033405, -1.2111361750153251 
4.300000000003317, -1.2111838376377144 
4.310000000003294, -1.2111295208217954 
4.320000000003271, -1.2108658832098598 
4.330000000003247, -1.2102915196267479 
4.340000000003224, -1.2092502998920334 
4.350000000003201, -1.2074698424791799 
4.360000000003177, -1.2044939366484257 
4.370000000003154, -1.199634101915275 
4.380000000003131, -1.1920320854746382 
4.390000000003107, -1.1809990949841267 
4.400000000003084, -1.16672469530481 
4.410000000003061, -1.1509941800833532 
4.4200000000030375, -1.1369475993702114 
4.430000000003014, -1.1273648035157364 
4.440000000002991, -1.122869609520762 
4.450000000002968, -1.1220097063556898 
4.460000000002944, -1.122815755168626 
4.470000000002921, -1.1239560916218383 
4.480000000002898, -1.1248601897915949 
4.490000000002874, -1.1253926729402322 
4.500000000002851, -1.1255721701687629 
4.510000000002828, -1.1254314108687973 
4.520000000002804, -1.124961024458385 
4.530000000002781, -1.1240802652745856 
4.540000000002758, -1.1226050670831955 
4.5500000000027345, -1.1202059143814587 
4.560000000002711, -1.1163803288519065 
4.570000000002688, -1.110537948283776 
4.580000000002665, -1.1024028171767584 
4.590000000002641, -1.0928553438971402 
4.600000000002618, -1.0845901294018914 
4.610000000002595, -1.081057284772215 
4.620000000002571, -1.0836571263832835 
4.630000000002548, -1.090424481897683 
4.640000000002525, -1.0980265512942735 
4.6500000000025015, -1.1042537238893617 
4.660000000002478, -1.1085279990043262 
4.670000000002455, -1.111153004110931 
4.6800000000024315, -1.1126241167705704 
4.690000000002408, -1.1133404663558542 
4.700000000002385, -1.113555414030897 
4.710000000002362, -1.1134023464972898 
4.720000000002338, -1.1129263929737996 
4.730000000002315, -1.1121072095777584 
4.740000000002292, -1.110883404372083 
4.750000000002268, -1.1092125397627073 
4.760000000002245, -1.1072330987779202 
4.770000000002222, -1.1055946803344527 
4.7800000000021985, -1.105835188926633 
4.790000000002175, -1.1102110302789685 
4.800000000002152, -1.1203067568280463 
4.810000000002129, -1.1352256834245773 
4.820000000002105, -1.1516375019996898 
4.830000000002082, -1.1660349058400354 
4.840000000002059, -1.1766721601804326 
4.850000000002035, -1.1836101572805346 
4.860000000002012, -1.1877481666206506 
4.870000000001989, -1.1900398025593333 
4.880000000001965, -1.1911912197207493 
4.890000000001942, -1.1916460147691235 
4.900000000001919, -1.1916582172212196 
4.9100000000018955, -1.1913672817859686 
4.920000000001872, -1.1908605201147107 
4.930000000001849, -1.190236072490007 
