t, s[1].omega / s[0].omega 
0, -0.6799977002154792 
0.009999999999999995, -0.6797668091112229 
0.019999999999999934, -0.6795265766182741 
0.029999999999999874, -0.6792584416668801 
0.04000000000000012, -0.6789421369306236 
0.050000000000000405, -0.6785649232472981 
0.06000000000000069, -0.6781266726756207 
0.07000000000000098, -0.6776408187367025 
0.08000000000000126, -0.6771341562123737 
0.09000000000000155, -0.6766484993220573 
0.10000000000000184, -0.6762455270280574 
0.11000000000000212, -0.6760144330440483 
0.12000000000000241, -0.6760807908499277 
0.130000000000002, -0.6766142440197151 
0.1400000000000009, -0.6778322274872535 
0.1499999999999998, -0.6799968558433285 
0.1599999999999987, -0.6834016106049293 
0.1699999999999976, -0.6883418558338079 
0.1799999999999965, -0.6950575216418047 
0.1899999999999954, -0.703631845171516 
0.1999999999999943, -0.7138439256961295 
0.2099999999999932, -0.7250325713722606 
0.2199999999999921, -0.736121308884102 
0.229999999999991, -0.7459372102827144 
0.2399999999999899, -0.75368730884702 
0.2499999999999888, -0.7592095626120109 
0.2599999999999877, -0.7628286213725546 
0.2699999999999866, -0.7650417151925132 
0.2799999999999855, -0.7662958277030099 
0.2899999999999844, -0.7669108656281579 
0.2999999999999833, -0.7670851070262659 
0.3099999999999822, -0.7669225668132633 
0.3199999999999811, -0.7664547418342105 
0.32999999999998, -0.7656488004951914 
0.3399999999999789, -0.7644002133532947 
0.3499999999999778, -0.7625073205548564 
0.35999999999997667, -0.7596232279881139 
0.36999999999997557, -0.7551816538530486 
0.37999999999997447, -0.7483113236148182 
0.38999999999997337, -0.737823326495357 
0.39999999999997227, -0.7225116998248298 
0.40999999999997117, -0.7020703133159047 
0.41999999999997006, -0.67826521252527 
0.42999999999996896, -0.6548060051163582 
0.43999999999996786, -0.6352656814361539 
0.44999999999996676, -0.6211926217461199 
0.45999999999996566, -0.6121604316427423 
0.46999999999996456, -0.6068722915715773 
0.47999999999996346, -0.6040220317353502 
0.48999999999996235, -0.6026226711074296 
0.49999999999996125, -0.6020248825181383 
0.5099999999999602, -0.6018344218565677 
0.519999999999959, -0.6018238576692898 
0.529999999999958, -0.6018658132870375 
0.5399999999999568, -0.6018888404831475 
0.5499999999999557, -0.601850450106622 
0.5599999999999546, -0.6017220372883807 
0.5699999999999535, -0.6014823241805676 
0.5799999999999524, -0.6011174714609864 
0.5899999999999513, -0.6006260034172086 
0.5999999999999502, -0.6000247342313797 
0.6099999999999491, -0.5993497903864559 
0.619999999999948, -0.5986485307918544 
0.6299999999999469, -0.5979647257136995 
0.6399999999999458, -0.5973250950892265 
0.6499999999999447, -0.5967343260526788 
0.6599999999999436, -0.5961797394110784 
0.6699999999999425, -0.5956415631143959 
0.6799999999999414, -0.5951032186069859 
0.6899999999999403, -0.5945579133612324 
0.6999999999999392, -0.594011283945625 
0.7099999999999381, -0.5934823465287214 
0.719999999999937, -0.5930054056053953 
0.7299999999999359, -0.5926346377456582 
0.7399999999999348, -0.59245206352731 
0.7499999999999337, -0.5925790496277631 
0.7599999999999326, -0.5931911713494957 
0.7699999999999315, -0.5945357670799443 
0.7799999999999304, -0.5969500408932935 
0.7899999999999293, -0.6008733901368466 
0.7999999999999282, -0.6068374374601724 
0.8099999999999271, -0.6153974912810354 
0.819999999999926, -0.6269462417469371 
0.8299999999999249, -0.6413695020314328 
0.8399999999999238, -0.6576640228780678 
0.8499999999999227, -0.6739276347423915 
0.8599999999999216, -0.6880831956776126 
0.8699999999999205, -0.6988951062389861 
0.8799999999999194, -0.7063211411320887 
0.8899999999999183, -0.7110539104253888 
0.8999999999999172, -0.7139218204333825 
0.9099999999999161, -0.715583195924865 
0.919999999999915, -0.7164747831481921 
0.9299999999999139, -0.71685759303697 
0.9399999999999128, -0.7168711826635435 
0.9499999999999117, -0.7165696563402972 
0.9599999999999106, -0.7159367379083275 
0.9699999999999095, -0.7148814060313418 
0.9799999999999084, -0.7132139710676435 
0.9899999999999073, -0.7106029766130154 
0.9999999999999062, -0.7065258767874301 
1.0099999999999052, -0.7002675350301152 
1.019999999999904, -0.6910890005199166 
1.029999999999903, -0.678677897717735 
1.039999999999902, -0.6636888632757603 
1.0499999999999008, -0.6477763656662175 
1.0599999999998997, -0.6328544631516713 
1.0699999999998986, -0.6202413784364589 
1.0799999999998975, -0.6103897087887424 
1.0899999999998964, -0.6031295677285413 
1.0999999999998953, -0.5980134596804529 
1.1099999999998942, -0.5945457130171778 
1.119999999999893, -0.5922866649630011 
1.129999999999892, -0.5908831735898563 
1.1399999999998909, -0.5900667333150256 
1.1499999999998898, -0.5896405597870242 
1.1599999999998887, -0.5894645809522843 
1.1699999999998876, -0.5894416258489267 
1.1799999999998865, -0.5895059841381565 
1.1899999999998854, -0.5896147995672337 
1.1999999999998843, -0.5897424433600523 
1.2099999999998832, -0.589877585299613 
1.219999999999882, -0.5900218644012177 
1.229999999999881, -0.5901880110697524 
1.2399999999998799, -0.5903948962745672 
1.2499999999998788, -0.5906584208721419 
1.2599999999998777, -0.5909803038000636 
1.2699999999998766, -0.5913398289276963 
1.2799999999998755, -0.5916941606447108 
1.2899999999998744, -0.5919893197750815 
1.2999999999998733, -0.5921770496720136 
1.3099999999998722, -0.592228010264516 
1.319999999999871, -0.5921347794262223 
1.32999999999987, -0.5919062598609176 
1.3399999999998689, -0.5915599557361431 
1.3499999999998678, -0.5911175517053183 
1.3599999999998666, -0.5906062812508119 
1.3699999999998655, -0.5900673321282498 
1.3799999999998644, -0.5895735248793877 
1.3899999999998633, -0.5892607676820008 
1.3999999999998622, -0.589379923817236 
1.4099999999998611, -0.5903743781561379 
1.41999999999986, -0.5929741027653443 
1.429999999999859, -0.5982472850300303 
1.4399999999998578, -0.6074409796860107 
1.4499999999998567, -0.6213432283100913 
1.4599999999998556, -0.6391927375965687 
1.4699999999998545, -0.658193315559763 
1.4799999999998534, -0.6749550129024753 
1.4899999999998523, -0.6876763861450345 
1.4999999999998512, -0.696513358681313 
1.5099999999998501, -0.7024396371811757 
1.519999999999849, -0.7063727858218545 
1.529999999999848, -0.7089614799274517 
1.5399999999998468, -0.7106357448878291 
1.5499999999998457, -0.7116787662372644 
1.5599999999998446, -0.7122741168697619 
1.5699999999998435, -0.7125343283877273 
1.5799999999998424, -0.7125178131395095 
1.5899999999998413, -0.7122372279837194 
1.5999999999998402, -0.7116607707597848 
1.6099999999998391, -0.7107084161269419 
1.619999999999838, -0.7092483623150277 
1.629999999999837, -0.7071060487675739 
1.6399999999998358, -0.7041055180635689 
1.6499999999998347, -0.7001546258757477 
1.6599999999998336, -0.6953425595509759 
1.6699999999998325, -0.689968801536297 
1.6799999999998314, -0.6844533640019864 
1.6899999999998303, -0.6791886638729708 
1.6999999999998292, -0.6744404458650686 
1.709999999999828, -0.6703357235304621 
1.719999999999827, -0.6669016930664438 
1.729999999999826, -0.6641106959525707 
1.7399999999998248, -0.6619108352207712 
1.7499999999998237, -0.6602412660294092 
1.7599999999998226, -0.6590379459655482 
1.7699999999998215, -0.6582354653441881 
1.7799999999998204, -0.6577683922954528 
1.7899999999998193, -0.6575734368344537 
1.7999999999998182, -0.6575923059486707 
1.809999999999817, -0.6577745268241748 
1.819999999999816, -0.6580796141491709 
1.8299999999998149, -0.6584783604129122 
1.8399999999998138, -0.658953241178319 
1.8499999999998127, -0.6594976142213032 
1.8599999999998116, -0.660112693297823 
1.8699999999998105, -0.6608010021729792 
1.8799999999998094, -0.6615562541320793 
1.8899999999998083, -0.6623526405544105 
1.8999999999998072, -0.66313977711509 
1.909999999999806, -0.6638495271428837 
1.919999999999805, -0.6644144972764361 
1.9299999999998039, -0.6647883388081973 
1.9399999999998028, -0.6649554039131605 
1.9499999999998017, -0.6649262104691177 
1.9599999999998006, -0.6647256969587468 
1.9699999999997995, -0.6643833669039472 
1.9799999999997984, -0.6639302244232135 
1.9899999999997973, -0.6634038084587692 
1.9999999999997962, -0.6628623550888554 
2.0099999999998173, -0.6624110620072486 
2.0199999999998384, -0.6622457137554798 
2.0299999999998595, -0.6627192786964854 
2.0399999999998806, -0.6644309765117034 
2.0499999999999017, -0.6683149083304731 
2.059999999999923, -0.6756503132722018 
2.069999999999944, -0.6878226917120966 
2.079999999999965, -0.7056228716779633 
2.089999999999986, -0.7281822802395121 
2.100000000000007, -0.7524808246011634 
2.1100000000000283, -0.77457776314931 
2.1200000000000494, -0.7918199419522917 
2.1300000000000705, -0.8037751978544051 
2.1400000000000916, -0.8114405932246582 
2.1500000000001127, -0.8161301932206456 
2.160000000000134, -0.8189111509972135 
2.170000000000155, -0.8205014605445523 
2.180000000000176, -0.8213410243521642 
2.190000000000197, -0.8216818732433462 
2.2000000000002182, -0.8216528230512458 
2.2100000000002393, -0.8212950694001465 
2.2200000000002604, -0.8205732518767382 
2.2300000000002815, -0.8193641325508662 
2.2400000000003026, -0.8174210360199383 
2.2500000000003237, -0.8143120490622051 
2.260000000000345, -0.8093451426388218 
2.270000000000366, -0.8015470813957425 
2.280000000000387, -0.789863213209083 
2.290000000000408, -0.773764849179796 
2.3000000000004293, -0.7540693136173345 
2.3100000000004504, -0.7331214976117495 
2.3200000000004715, -0.7137742320168089 
2.3300000000004926, -0.6980192417061166 
2.3400000000005137, -0.686463114315225 
2.3500000000005348, -0.6786869203538213 
2.360000000000556, -0.6738353908024532 
2.370000000000577, -0.67102615379727 
2.380000000000598, -0.6695330728326016 
2.390000000000619, -0.6688275480966963 
2.4000000000006403, -0.6685550713681405 
2.4100000000006614, -0.6684917415701958 
2.4200000000006825, -0.6685016763641851 
2.4300000000007036, -0.6685030919326259 
2.4400000000007247, -0.6684444973673042 
2.450000000000746, -0.6682901072904811 
2.460000000000767, -0.6680132896361191 
2.470000000000788, -0.6675969697512102 
2.480000000000809, -0.6670388613160461 
2.49000000000083, -0.6663568107256264 
2.5000000000008513, -0.665587936188466 
2.5100000000008724, -0.6647785612061708 
2.5200000000008935, -0.6639693362531366 
2.5300000000009146, -0.6631842328933288 
2.5400000000009357, -0.6624289127292146 
2.550000000000957, -0.661697359479689 
2.560000000000978, -0.6609816252713856 
2.570000000000999, -0.6602799031959505 
2.58000000000102, -0.6596011063119099 
2.5900000000010412, -0.658966886751368 
2.6000000000010624, -0.6584128764998441 
2.6100000000010835, -0.6579901638827643 
2.6200000000011046, -0.6577668718120337 
2.6300000000011257, -0.6578290476454799 
2.6400000000011468, -0.658280122474948 
2.650000000001168, -0.659238729284039 
2.660000000001189, -0.6608351548867882 
2.67000000000121, -0.6632063799174721 
2.680000000001231, -0.6664878007671664 
2.6900000000012523, -0.6707961065797439 
2.7000000000012734, -0.6761937088997151 
2.7100000000012945, -0.6826257881108865 
2.7200000000013156, -0.6898380543346063 
2.7300000000013367, -0.6973261710414576 
2.740000000001358, -0.7044061179856527 
2.750000000001379, -0.7104379182624547 
2.7600000000014, -0.7150696242790673 
2.770000000001421, -0.718307007453559 
2.780000000001442, -0.7203889352992572 
2.7900000000014633, -0.7216150728564743 
2.8000000000014844, -0.7222392530993798 
2.8100000000015055, -0.72243649389353 
2.8200000000015266, -0.722307180355728 
2.8300000000015477, -0.7218890562188823 
2.840000000001569, -0.7211634065851438 
2.85000000000159, -0.7200501239767538 
2.860000000001611, -0.7183878982430767 
2.870000000001632, -0.7158938302656007 
2.8800000000016532, -0.7120946697125741 
2.8900000000016743, -0.7062290633933799 
2.9000000000016954, -0.6971688704435058 
2.9100000000017165, -0.6835586940708682 
2.9200000000017377, -0.6645571802537641 
2.9300000000017588, -0.641165362684318 
2.94000000000178, -0.6167277182555686 
2.950000000001801, -0.5952062698367304 
2.960000000001822, -0.5788593573645844 
2.970000000001843, -0.5677647964309691 
2.9800000000018643, -0.5608222977815808 
2.9900000000018854, -0.5567373427983597 
3.0000000000019065, -0.554462352802673 
3.0100000000019276, -0.55327163448197 
3.0200000000019487, -0.5527009811849248 
3.03000000000197, -0.5524665832141884 
3.040000000001991, -0.552399441016504 
3.050000000002012, -0.5524000597074765 
3.060000000002033, -0.5524094927983335 
3.070000000002054, -0.5523920360320247 
3.0800000000020753, -0.5523261284604339 
3.0900000000020964, -0.5522012054567041 
3.1000000000021175, -0.5520185053702307 
3.1100000000021386, -0.5517929522127253 
3.1200000000021597, -0.5515522179734935 
3.130000000002181, -0.5513300302114219 
3.140000000002202, -0.5511545914450988 
3.150000000002223, -0.5510370493170555 
3.160000000002244, -0.5509658587623898 
3.1700000000022652, -0.550910183754918 
3.1800000000022863, -0.5508309494149933 
3.1900000000023074, -0.5506939505085688 
3.2000000000023285, -0.5504785646253849 
3.2100000000023496, -0.5501794163128692 
3.2200000000023707, -0.5498033976378631 
3.230000000002392, -0.5493665347099022 
3.240000000002413, -0.5488942135971199 
3.250000000002434, -0.5484268733463853 
3.260000000002455, -0.5480331670703223 
3.2700000000024763, -0.5478338665680853 
3.2800000000024974, -0.5480417079143531 
3.2900000000025185, -0.5490232157995334 
3.3000000000025396, -0.5513830862456 
3.3100000000025607, -0.5560454536031865 
3.3200000000025818, -0.5642307908886133 
3.330000000002603, -0.5770936583325421 
3.340000000002624, -0.5947806687231737 
3.350000000002645, -0.6153380666644395 
3.360000000002666, -0.635058139448993 
3.3700000000026873, -0.6508391942799834 
3.3800000000027084, -0.6619279510756776 
3.3900000000027295, -0.6692471858227484 
3.4000000000027506, -0.6740118590814734 
3.4100000000027717, -0.677122299468272 
3.420000000002793, -0.6791486876842003 
3.430000000002814, -0.6804454428576016 
3.440000000002835, -0.6812357300525491 
3.450000000002856, -0.6816585894140309 
3.460000000002877, -0.6817943873349664 
3.4700000000028983, -0.6816781575095543 
3.4800000000029194, -0.6813051372137204 
3.4900000000029405, -0.6806311105497678 
3.5000000000029616, -0.6795713358853774 
3.5100000000029827, -0.6780058905058796 
3.520000000003004, -0.6758045067617002 
3.530000000003025, -0.6728816363354235 
3.540000000003046, -0.6692685374947361 
3.550000000003067, -0.6651518130327625 
3.5600000000030882, -0.660830251319695 
3.5700000000031094, -0.6566108482331667 
3.5800000000031305, -0.652720394980048 
3.5900000000031516, -0.6492794909290339 
3.6000000000031727, -0.6463251315798617 
3.6100000000031938, -0.6438468064301117 
3.620000000003215, -0.6418145298309106 
3.630000000003236, -0.6401940404967947 
3.640000000003257, -0.638952334042817 
3.650000000003278, -0.6380580621693747 
3.6600000000032993, -0.6374802605728699 
3.6700000000033204, -0.637187437596951 
3.6800000000033415, -0.6371478806833856 
3.6900000000033626, -0.6373312101889185 
3.7000000000033837, -0.6377107305569006 
3.710000000003405, -0.6382659491888866 
3.720000000003426, -0.6389845863954962 
3.730000000003447, -0.6398632241547475 
3.740000000003468, -0.6409052961276459 
3.750000000003489, -0.6421147220109464 
3.7600000000035103, -0.6434840893011522 
3.7700000000035314, -0.6449791215280912 
3.7800000000035525, -0.646526476890138 
3.7900000000035736, -0.648016377525208 
3.8000000000035947, -0.6493272734384852 
3.810000000003616, -0.6503631141984617 
3.820000000003637, -0.6510795172746493 
3.830000000003658, -0.6514831381726147 
3.840000000003679, -0.6516109760447896 
3.8500000000037002, -0.6515071049917536 
3.8600000000037213, -0.6512078311014581 
3.8700000000037424, -0.6507365599171384 
3.8800000000037635, -0.6501058652381576 
3.8900000000037847, -0.6493255584307656 
3.9000000000038058, -0.6484188376802623 
3.910000000003827, -0.6474520634525703 
3.920000000003848, -0.6465852384216194 
3.930000000003869, -0.6461429203424587 
3.94000000000389, -0.6466715941638147 
3.9500000000039113, -0.6488688696582523 
3.9600000000039324, -0.6531951207629132 
3.9700000000039535, -0.659199389296081 
3.9800000000039746, -0.6653376011046535 
3.9900000000039957, -0.670105735941905 
4.000000000004016, -0.673296262817048 
4.010000000003993, -0.6756245967928203 
4.02000000000397, -0.6776584630849071 
4.030000000003946, -0.6795161834434577 
4.040000000003923, -0.6811167572333566 
4.0500000000039, -0.6823899787342749 
4.0600000000038765, -0.6833269482317791 
4.070000000003853, -0.6839585456921479 
4.08000000000383, -0.68432609627255 
4.090000000003807, -0.6844623471837071 
4.100000000003783, -0.6843814965862542 
4.11000000000376, -0.6840737501062745 
4.120000000003737, -0.6835018644709135 
4.130000000003713, -0.6826006197722306 
4.14000000000369, -0.6812844022521667 
4.150000000003667, -0.6794708862296717 
4.1600000000036434, -0.6771234305445233 
4.17000000000362, -0.6742955564497912 
4.180000000003597, -0.671142116286268 
4.1900000000035735, -0.667876864468634 
4.20000000000355, -0.6647026701084806 
4.210000000003527, -0.6617621362819088 
4.220000000003504, -0.6591290046204401 
4.23000000000348, -0.6568266739700734 
4.240000000003457, -0.6548522907672442 
4.250000000003434, -0.6531943671147756 
4.26000000000341, -0.6518416478687896 
4.270000000003387, -0.6507854415180797 
4.280000000003364, -0.6500184298621197 
4.2900000000033405, -0.6495323770295418 
4.300000000003317, -0.6493163356563203 
4.310000000003294, -0.649356206689386 
4.320000000003271, -0.6496358624862586 
4.330000000003247, -0.6501395100472944 
4.340000000003224, -0.6508545936532212 
4.350000000003201, -0.6517742679320733 
4.360000000003177, -0.652898153313066 
4.370000000003154, -0.6542296354535745 
4.380000000003131, -0.655767763467944 
4.390000000003107, -0.657492939836337 
4.400000000003084, -0.6593495405236472 
4.410000000003061, -0.6612352862153568 
4.4200000000030375, -0.6630112610623253 
4.430000000003014, -0.6645375655955761 
4.440000000002991, -0.6657173210744551 
4.450000000002968, -0.6665196046679959 
4.460000000002944, -0.6669693001859356 
4.470000000002921, -0.6671185307174935 
4.480000000002898, -0.6670205379136415 
4.490000000002874, -0.6667153428474415 
4.500000000002851, -0.666225951493919 
4.510000000002828, -0.6655613605903332 
4.520000000002804, -0.6647250435068028 
4.530000000002781, -0.6637314041884855 
4.540000000002758, -0.6626363504833328 
4.5500000000027345, -0.6615893852573861 
4.560000000002711, -0.660905380443347 
4.570000000002688, -0.6611154231393916 
4.580000000002665, -0.6628715199383819 
4.590000000002641, -0.6665295244300611 
4.600000000002618, -0.6715337686771418 
4.610000000002595, -0.676443216698252 
4.620000000002571, -0.6801259519622131 
4.630000000002548, -0.6826644205807795 
4.640000000002525, -0.6847294301479254 
4.6500000000025015, -0.6866893433269907 
4.660000000002478, -0.6885218415884535 
4.670000000002455, -0.6900946496366563 
4.6800000000024315, -0.6913309899917093 
4.690000000002408, -0.6922269016855969 
4.700000000002385, -0.6928174092135759 
4.710000000002362, -0.69314489935232 
4.720000000002338, -0.6932405667686858 
4.730000000002315, -0.6931150199470817 
4.740000000002292, -0.6927529692775796 
4.750000000002268, -0.69210965585256 
4.760000000002245, -0.691110585929134 
4.770000000002222, -0.6896607780153153 
4.7800000000021985, -0.6876723826289428 
4.790000000002175, -0.6851122678723959 
4.800000000002152, -0.6820487246528445 
4.810000000002129, -0.678657931358179 
4.820000000002105, -0.6751725666619992 
4.830000000002082, -0.6718063682925726 
4.840000000002059, -0.6687054645916446 
4.850000000002035, -0.6659434410247885 
4.860000000002012, -0.6635426253060811 
4.870000000001989, -0.6614990500091914 
4.880000000001965, -0.6597997472910149 
4.890000000001942, -0.6584309368393179 
4.900000000001919, -0.6573798165065665 
4.9100000000018955, -0.6566331928988903 
4.920000000001872, -0.6561754408063684 
4.930000000001849, -0.655987334688047 
