t, s[1].omega / s[0].omega 
0, -1.4400052790718958 
0.009999999999999995, -1.4403302204980575 
0.019999999999999934, -1.4402812651233998 
0.029999999999999874, -1.4399019426771749 
0.04000000000000012, -1.4392383764766445 
0.050000000000000405, -1.4383440272035621 
0.06000000000000069, -1.4372883702579606 
0.07000000000000098, -1.4361647832861206 
0.08000000000000126, -1.4350931442723873 
0.09000000000000155, -1.4342100798786004 
0.10000000000000184, -1.433625601301261 
0.11000000000000212, -1.4333497765603103 
0.12000000000000241, -1.4332681503444493 
0.130000000000002, -1.4332086928648118 
0.1400000000000009, -1.4330144993702676 
0.1499999999999998, -1.4325469801690882 
0.1599999999999987, -1.4316347180914186 
0.1699999999999976, -1.430000275845405 
0.1799999999999965, -1.4271771178742887 
0.1899999999999954, -1.4224415793089213 
0.1999999999999943, -1.4148614942030728 
0.2099999999999932, -1.4037088596430443 
0.2199999999999921, -1.389518321370295 
0.229999999999991, -1.3752751119588003 
0.2399999999999899, -1.3654311143938385 
0.2499999999999888, -1.3619689666568384 
0.2599999999999877, -1.3627943439196346 
0.2699999999999866, -1.3648432999085611 
0.2799999999999855, -1.366528352026098 
0.2899999999999844, -1.3675190927233956 
0.2999999999999833, -1.367924864490242 
0.3099999999999822, -1.3678892028620233 
0.3199999999999811, -1.3674843206490013 
0.32999999999998, -1.366710739853792 
0.3399999999999789, -1.365548167114801 
0.3499999999999778, -1.3641115989607449 
0.35999999999997667, -1.3629987392235676 
0.36999999999997557, -1.3636199716249404 
0.37999999999997447, -1.367627063370688 
0.38999999999997337, -1.3752214751404153 
0.39999999999997227, -1.3845712431847463 
0.40999999999997117, -1.3933946564517914 
0.41999999999997006, -1.4003943713882383 
0.42999999999996896, -1.4053223286302818 
0.43999999999996786, -1.4084772764123517 
0.44999999999996676, -1.4103073345475314 
0.45999999999996566, -1.411218713604041 
0.46999999999996456, -1.4115159359132552 
0.47999999999996346, -1.411407178658278 
0.48999999999996235, -1.4110372879607753 
0.49999999999996125, -1.4105286700473239 
0.5099999999999602, -1.4100117885906578 
0.519999999999959, -1.4096202556678636 
0.529999999999958, -1.4094460724792708 
0.5399999999999568, -1.4095020184051361 
0.5499999999999557, -1.4097324673198781 
0.5599999999999546, -1.4100469405791372 
0.5699999999999535, -1.4103437897899513 
0.5799999999999524, -1.4105259573379585 
0.5899999999999513, -1.4105098213219784 
0.5999999999999502, -1.4102225486124524 
0.6099999999999491, -1.4095936327015548 
0.619999999999948, -1.4085500235557216 
0.6299999999999469, -1.4070185336677479 
0.6399999999999458, -1.4049351747261702 
0.6499999999999447, -1.4022639390334133 
0.6599999999999436, -1.3990354321185434 
0.6699999999999425, -1.395418522641174 
0.6799999999999414, -1.3918059061117984 
0.6899999999999403, -1.3887935099932565 
0.6999999999999392, -1.3868901693269586 
0.7099999999999381, -1.386125850507571 
0.719999999999937, -1.386065958169939 
0.7299999999999359, -1.386212460677232 
0.7399999999999348, -1.3862600322351588 
0.7499999999999337, -1.3860658900386538 
0.7599999999999326, -1.3855284015195775 
0.7699999999999315, -1.3844821730655519 
0.7799999999999304, -1.3826010483091995 
0.7899999999999293, -1.3792923951666256 
0.7999999999999282, -1.3736739271961433 
0.8099999999999271, -1.3650457739603352 
0.819999999999926, -1.3545782503256136 
0.8299999999999249, -1.347293481715987 
0.8399999999999238, -1.3492388100387513 
0.8499999999999227, -1.3599313127247865 
0.8599999999999216, -1.372707863873394 
0.8699999999999205, -1.3825477965691133 
0.8799999999999194, -1.388599513449042 
0.8899999999999183, -1.391882198265768 
0.8999999999999172, -1.3934927376809225 
0.9099999999999161, -1.39414642308423 
0.919999999999915, -1.394236066048196 
0.9299999999999139, -1.3939643341544663 
0.9399999999999128, -1.3934532256522643 
0.9499999999999117, -1.3928452631590484 
0.9599999999999106, -1.3924028120108736 
0.9699999999999095, -1.3925206744983583 
0.9799999999999084, -1.393521836315832 
0.9899999999999073, -1.3953720390897726 
0.9999999999999062, -1.39769013144786 
1.0099999999999052, -1.4000342628204026 
1.019999999999904, -1.402105489302399 
1.029999999999903, -1.403763053828954 
1.039999999999902, -1.4049662649665202 
1.0499999999999008, -1.4057247925137801 
1.0599999999998997, -1.4060714324379295 
1.0699999999998986, -1.406049351187948 
1.0799999999998975, -1.4057063835096208 
1.0899999999998964, -1.4050939067828332 
1.0999999999998953, -1.4042706878625497 
1.1099999999998942, -1.4033100966293346 
1.119999999999893, -1.4023047143430114 
1.129999999999892, -1.4013632705282457 
1.1399999999998909, -1.4005980218875966 
1.1499999999998898, -1.4000930636136688 
1.1599999999998887, -1.3998539676159447 
1.1699999999998876, -1.399787378230722 
1.1799999999998865, -1.399746299799614 
1.1899999999998854, -1.3995884208974778 
1.1999999999998843, -1.3991864074456095 
1.2099999999998832, -1.3983937621596239 
1.219999999999882, -1.396994502929291 
1.229999999999881, -1.394654659370733 
1.2399999999998799, -1.3908959416434243 
1.2499999999998788, -1.3851397173348188 
1.2599999999998777, -1.3769143520909175 
1.2699999999998766, -1.3663357220426082 
1.2799999999998755, -1.354768090090993 
1.2899999999998744, -1.3448865322086063 
1.2999999999998733, -1.3390811250970214 
1.3099999999998722, -1.3374107678325295 
1.319999999999871, -1.3380145679520732 
1.32999999999987, -1.3391410519622848 
1.3399999999998689, -1.3399986607080205 
1.3499999999998678, -1.3404235190628924 
1.3599999999998666, -1.3404511075600911 
1.3699999999998655, -1.3401160135384664 
1.3799999999998644, -1.3393890805229813 
1.3899999999998633, -1.3381676632255843 
1.3999999999998622, -1.3363264462119404 
1.4099999999998611, -1.3339506992441585 
1.41999999999986, -1.331934063636664 
1.429999999999859, -1.3326169386992286 
1.4399999999998578, -1.3388246578123955 
1.4499999999998567, -1.3507553519082869 
1.4599999999998556, -1.3649604400530315 
1.4699999999998545, -1.3775125840490028 
1.4799999999998534, -1.3866325126478527 
1.4899999999998523, -1.3924518305657434 
1.4999999999998512, -1.395828928291126 
1.5099999999998501, -1.397612731293119 
1.519999999999849, -1.3984139436072138 
1.529999999999848, -1.3986140725693048 
1.5399999999998468, -1.3984395915228245 
1.5499999999998457, -1.39803888587033 
1.5599999999998446, -1.397548807202048 
1.5699999999998435, -1.3971360847154315 
1.5799999999998424, -1.3969774029045146 
1.5899999999998413, -1.3971737703890017 
1.5999999999998402, -1.3976892900421531 
1.6099999999998391, -1.3983902721265793 
1.619999999999838, -1.3991261391837448 
1.629999999999837, -1.3997738512386022 
1.6399999999998358, -1.4002451993348053 
1.6499999999998347, -1.400480716906627 
1.6599999999998336, -1.400440487298628 
1.6699999999998325, -1.4000961498469497 
1.6799999999998314, -1.399426606051116 
1.6899999999998303, -1.3984175688678997 
1.6999999999998292, -1.3970648543780415 
1.709999999999828, -1.3953831487777841 
1.719999999999827, -1.3934236286021715 
1.729999999999826, -1.391302691690634 
1.7399999999998248, -1.3892319156061559 
1.7499999999998237, -1.3875031776615934 
1.7599999999998226, -1.3863643059969761 
1.7699999999998215, -1.3858420917284757 
1.7799999999998204, -1.3857221209828559 
1.7899999999998193, -1.3857197119271834 
1.7999999999998182, -1.3856216074175034 
1.809999999999817, -1.385287401636958 
1.819999999999816, -1.3845761235638583 
1.8299999999998149, -1.3832555939579314 
1.8399999999998138, -1.380893279405535 
1.8499999999998127, -1.3767206667390688 
1.8599999999998116, -1.3695498666977344 
1.8699999999998105, -1.3580833526415836 
1.8799999999998094, -1.3422718338993236 
1.8899999999998083, -1.3254963621944233 
1.8999999999998072, -1.3140638160783484 
1.909999999999806, -1.3114444031697157 
1.919999999999805, -1.3148662702474245 
1.9299999999998039, -1.3196447876905482 
1.9399999999998028, -1.3233411401916007 
1.9499999999998017, -1.3255969239776613 
1.9599999999998006, -1.326767669418641 
1.9699999999997995, -1.3272289606781256 
1.9799999999997984, -1.3272180583466597 
1.9899999999997973, -1.3268503013009671 
1.9999999999997962, -1.3261692782103702 
2.0099999999998173, -1.3252226173610901 
2.0199999999998384, -1.3242097757608051 
2.0299999999998595, -1.323711009850336 
2.0399999999998806, -1.324755756290566 
2.0499999999999017, -1.328261167585588 
2.059999999999923, -1.334104755814289 
2.069999999999944, -1.3410679507321064 
2.079999999999965, -1.3477603040214705 
2.089999999999986, -1.3533259883618973 
2.100000000000007, -1.35749236310479 
2.1100000000000283, -1.3603426400990126 
2.1200000000000494, -1.3621115539116677 
2.1300000000000705, -1.36306228879211 
2.1400000000000916, -1.3634250542637039 
2.1500000000001127, -1.363377225942074 
2.160000000000134, -1.363051161872056 
2.170000000000155, -1.3625577781281109 
2.180000000000176, -1.3620116389032284 
2.190000000000197, -1.3615367686390931 
2.2000000000002182, -1.3612388911931035 
2.2100000000002393, -1.3611656586132974 
2.2200000000002604, -1.361296229665477 
2.2300000000002815, -1.3615619861252157 
2.2400000000003026, -1.3618705160308155 
2.2500000000003237, -1.36212436618273 
2.260000000000345, -1.3622355462851088 
2.270000000000366, -1.3621301549634948 
2.280000000000387, -1.3617436647672134 
2.290000000000408, -1.361015380222903 
2.3000000000004293, -1.3598880667841535 
2.3100000000004504, -1.3583129272194776 
2.3200000000004715, -1.356258769202443 
2.3300000000004926, -1.3537280931711155 
2.3400000000005137, -1.3507877063633134 
2.3500000000005348, -1.3476185536356142 
2.360000000000556, -1.344560767879523 
2.370000000000577, -1.3420678515455682 
2.380000000000598, -1.3404872540811987 
2.390000000000619, -1.339810564117766 
2.4000000000006403, -1.3397027529516163 
2.4100000000006614, -1.3397757530871233 
2.4200000000006825, -1.3397712662637562 
2.4300000000007036, -1.3395492202926476 
2.4400000000007247, -1.3389984803623989 
2.450000000000746, -1.337946695042104 
2.460000000000767, -1.3360661145090746 
2.470000000000788, -1.3327546308699365 
2.480000000000809, -1.3270257335041369 
2.49000000000083, -1.3176344152283817 
2.5000000000008513, -1.3040086739299572 
2.5100000000008724, -1.2882734122125157 
2.5200000000008935, -1.2760654155661442 
2.5300000000009146, -1.2722957536872277 
2.5400000000009357, -1.2759456853006814 
2.550000000000957, -1.2821600985146178 
2.560000000000978, -1.2874508011548131 
2.570000000000999, -1.2909089143562895 
2.58000000000102, -1.292857321476865 
2.5900000000010412, -1.293806270727027 
2.6000000000010624, -1.2941232204389899 
2.6100000000010835, -1.2940138370880157 
2.6200000000011046, -1.2935717070163089 
2.6300000000011257, -1.2928356313794214 
2.6400000000011468, -1.2918734918840435 
2.650000000001168, -1.2909387978172027 
2.660000000001189, -1.2906791454262982 
2.67000000000121, -1.2921230616527146 
2.680000000001231, -1.2960649618326294 
2.6900000000012523, -1.3022527276478955 
2.7000000000012734, -1.3094558780790657 
2.7100000000012945, -1.316335042632677 
2.7200000000013156, -1.322061880305829 
2.7300000000013367, -1.3263624334935071 
2.740000000001358, -1.3293148789025815 
2.750000000001379, -1.3311566013155192 
2.7600000000014, -1.332159005623493 
2.770000000001421, -1.3325609881568243 
2.780000000001442, -1.3325461369238263 
2.7900000000014633, -1.3322498386397579 
2.8000000000014844, -1.331783400290318 
2.8100000000015055, -1.3312613933599309 
2.8200000000015266, -1.3308120600090585 
2.8300000000015477, -1.3305522637598655 
2.840000000001569, -1.3305413665661887 
2.85000000000159, -1.3307607946964999 
2.860000000001611, -1.3311356340267548 
2.870000000001632, -1.3315677847473897 
2.8800000000016532, -1.3319588463715597 
2.8900000000016743, -1.332223428951286 
2.9000000000016954, -1.3322939357880454 
2.9100000000017165, -1.3321178888765213 
2.9200000000017377, -1.3316533415910394 
2.9300000000017588, -1.3308669671305076 
2.94000000000178, -1.3297352880633921 
2.950000000001801, -1.3282481997402664 
2.960000000001822, -1.3264159168726142 
2.970000000001843, -1.324282660276901 
2.9800000000018643, -1.3219497307805117 
2.9900000000018854, -1.3196024808275777 
3.0000000000019065, -1.317511939420549 
3.0100000000019276, -1.3159572860572966 
3.0200000000019487, -1.3150689825755975 
3.03000000000197, -1.3147341549131573 
3.040000000001991, -1.3146876912892975 
3.050000000002012, -1.3146772307700512 
3.060000000002033, -1.3145330178594885 
3.070000000002054, -1.3141347605541158 
3.0800000000020753, -1.3133426089450195 
3.0900000000020964, -1.3119214829595136 
3.1000000000021175, -1.3094531207746192 
3.1100000000021386, -1.3052394523655244 
3.1200000000021597, -1.2982705649098834 
3.130000000002181, -1.2874830005175841 
3.140000000002202, -1.2726506289697528 
3.150000000002223, -1.2557634263971709 
3.160000000002244, -1.2412054540204163 
3.1700000000022652, -1.23288887828521 
3.1800000000022863, -1.2309470236339792 
3.1900000000023074, -1.232514460821455 
3.2000000000023285, -1.23485823153814 
3.2100000000023496, -1.2367233663014683 
3.2200000000023707, -1.2378742538631136 
3.230000000002392, -1.2384290565815952 
3.240000000002413, -1.2385360585861487 
3.250000000002434, -1.2382799843879988 
3.260000000002455, -1.237669395100777 
3.2700000000024763, -1.2366453736850658 
3.2800000000024974, -1.2351180282201961 
3.2900000000025185, -1.233099751273044 
3.3000000000025396, -1.231058445152485 
3.3100000000025607, -1.2304629785283752 
3.3200000000025818, -1.2337973506097237 
3.330000000002603, -1.2429044843870383 
3.340000000002624, -1.2567106463744715 
3.350000000002645, -1.2716040716429569 
3.360000000002666, -1.2842551098501465 
3.3700000000026873, -1.2933305386657965 
3.3800000000027084, -1.299110610757453 
3.3900000000027295, -1.3024769733420858 
3.4000000000027506, -1.3042732443660117 
3.4100000000027717, -1.3051016558138193 
3.420000000002793, -1.3053361087168596 
3.430000000002814, -1.3051949771517766 
3.440000000002835, -1.3048148198375706 
3.450000000002856, -1.3043171028153686 
3.460000000002877, -1.3038660776649462 
3.4700000000028983, -1.3036873400567235 
3.4800000000029194, -1.303997483233728 
3.4900000000029405, -1.3048721464936233 
3.5000000000029616, -1.3061912233169755 
3.5100000000029827, -1.3077242745943916 
3.520000000003004, -1.309249968625689 
3.530000000003025, -1.3106124116594686 
3.540000000003046, -1.3117205963528076 
3.550000000003067, -1.3125294209350176 
3.5600000000030882, -1.3130225412044474 
3.5700000000031094, -1.3132016529096717 
3.5800000000031305, -1.3130810967848359 
3.5900000000031516, -1.3126855341529593 
3.6000000000031727, -1.312049565306396 
3.6100000000031938, -1.3112197394399803 
3.620000000003215, -1.3102587566390633 
3.630000000003236, -1.3092483755981514 
3.640000000003257, -1.3082859889430316 
3.650000000003278, -1.3074725888268797 
3.6600000000032993, -1.3068901153032118 
3.6700000000033204, -1.306567537980446 
3.6800000000033415, -1.3064559560407045 
3.6900000000033626, -1.3064440733147369 
3.7000000000033837, -1.3064037323914202 
3.710000000003405, -1.3062200916510316 
3.720000000003426, -1.305786971889518 
3.730000000003447, -1.3049828619224462 
3.740000000003468, -1.303648106138119 
3.750000000003489, -1.3015770854020423 
3.7600000000035103, -1.2985361015570418 
3.7700000000035314, -1.294315457659289 
3.7800000000035525, -1.2888210587070843 
3.7900000000035736, -1.2822085053192267 
3.8000000000035947, -1.275037589964914 
3.810000000003616, -1.2683202641549514 
3.820000000003637, -1.263211263258086 
3.830000000003658, -1.2603303606837517 
3.840000000003679, -1.2593584459266611 
3.8500000000037002, -1.2594326469886838 
3.8600000000037213, -1.2598035430295254 
3.8700000000037424, -1.2600792396774234 
3.8800000000037635, -1.260117332405398 
3.8900000000037847, -1.2598639097891033 
3.9000000000038058, -1.2592492006504834 
3.910000000003827, -1.2581201769996144 
3.920000000003848, -1.2561740225334668 
3.930000000003869, -1.2528856824378614 
3.94000000000389, -1.2475059841653349 
3.9500000000039113, -1.2394007230933386 
3.9600000000039324, -1.2291510238850707 
3.9700000000039535, -1.2199976391489926 
3.9800000000039746, -1.2169378185029867 
3.9900000000039957, -1.2220576327640065 
4.000000000004016, -1.2320089302414174 
4.010000000003993, -1.2418385422361522 
4.02000000000397, -1.2490239552729767 
4.030000000003946, -1.253466562661517 
4.040000000003923, -1.2559395123197774 
4.0500000000039, -1.2571807513958926 
4.0600000000038765, -1.2576753660397253 
4.070000000003853, -1.2576942972768208 
4.08000000000383, -1.2573714781164906 
4.090000000003807, -1.25677013435766 
4.100000000003783, -1.2559545884712875 
4.11000000000376, -1.2551041025749103 
4.120000000003737, -1.2546717846789688 
4.130000000003713, -1.2554411660423055 
4.14000000000369, -1.2581933802900618 
4.150000000003667, -1.2630644084127214 
4.1600000000036434, -1.2693123010398026 
4.17000000000362, -1.2758106115907875 
4.180000000003597, -1.281651145390513 
4.1900000000035735, -1.2863620353029828 
4.20000000000355, -1.289833858669282 
4.210000000003527, -1.2921758341398075 
4.220000000003504, -1.293596111492071 
4.23000000000348, -1.2943196280614708 
4.240000000003457, -1.294541708539295 
4.250000000003434, -1.2944135319117298 
4.26000000000341, -1.2940516033989584 
4.270000000003387, -1.2935608082676875 
4.280000000003364, -1.293057025881378 
4.2900000000033405, -1.292668757343391 
4.300000000003317, -1.2925042964307767 
4.310000000003294, -1.2926067600335658 
4.320000000003271, -1.292941425103932 
4.330000000003247, -1.2934224984211478 
4.340000000003224, -1.2939475690989248 
4.350000000003201, -1.2944201244591937 
4.360000000003177, -1.294760823811711 
4.370000000003154, -1.2949102253781435 
4.380000000003131, -1.2948258213852886 
4.390000000003107, -1.2944780121157315 
4.400000000003084, -1.2938479260842626 
4.410000000003061, -1.2929272416797903 
4.4200000000030375, -1.2917197668133185 
4.430000000003014, -1.2902457140644683 
4.440000000002991, -1.2885500881700034 
4.450000000002968, -1.2867152593183897 
4.460000000002944, -1.284873805751379 
4.470000000002921, -1.2832080743326164 
4.480000000002898, -1.2819103942786299 
4.490000000002874, -1.2810946641330514 
4.500000000002851, -1.2807205091470362 
4.510000000002828, -1.2806171824551453 
4.520000000002804, -1.2805843268777506 
4.530000000002781, -1.2804627771527153 
4.540000000002758, -1.2801325885393413 
4.5500000000027345, -1.2794697306908376 
4.560000000002711, -1.278292916921125 
4.570000000002688, -1.276310551622411 
4.580000000002665, -1.2730782001746643 
4.590000000002641, -1.2680039976256057 
4.600000000002618, -1.260480206965176 
4.610000000002595, -1.2502312210682311 
4.620000000002571, -1.2378577215955624 
4.630000000002548, -1.2252192366955437 
4.640000000002525, -1.2149326752776255 
4.6500000000025015, -1.2087979381164975 
4.660000000002478, -1.2065966281173763 
4.670000000002455, -1.2067146866170897 
4.6800000000024315, -1.2076017134645471 
4.690000000002408, -1.2084319911680752 
4.700000000002385, -1.208940816966709 
4.710000000002362, -1.2091018544512875 
4.720000000002338, -1.2089340408947504 
4.730000000002315, -1.2084195009070577 
4.740000000002292, -1.2074646512165887 
4.750000000002268, -1.2058678334809945 
4.760000000002245, -1.2032972967806985 
4.770000000002222, -1.19935317352689 
4.7800000000021985, -1.1939146392569768 
4.790000000002175, -1.1879990706114592 
4.800000000002152, -1.184636129707966 
4.810000000002129, -1.187753976482868 
4.820000000002105, -1.198370375549711 
4.830000000002082, -1.2127676610436213 
4.840000000002059, -1.2259638414722218 
4.850000000002035, -1.2354766361541638 
4.860000000002012, -1.2413833128683438 
4.870000000001989, -1.244718454211705 
4.880000000001965, -1.2464547538732569 
4.890000000001942, -1.2472407971399957 
4.900000000001919, -1.2474491395444327 
4.9100000000018955, -1.2472754379710322 
4.920000000001872, -1.2468193359659943 
4.930000000001849, -1.246154547083839 
4.940000000001826, -1.2454166937221207 
