t, s[1].omega / s[0].omega 
0, -1.0800352214952849 
0.009999999999999995, -1.0831916213338264 
0.019999999999999934, -1.0855854866691736 
0.029999999999999874, -1.0872383501877052 
0.04000000000000012, -1.088248703220669 
0.050000000000000405, -1.0887482173817953 
0.06000000000000069, -1.0888647033947436 
0.07000000000000098, -1.0887045117921228 
0.08000000000000126, -1.0883545998771498 
0.09000000000000155, -1.0878984934008726 
0.10000000000000184, -1.0874386733758046 
0.11000000000000212, -1.087113195222361 
0.12000000000000241, -1.0870875632638004 
0.130000000000002, -1.0875099425529104 
0.1400000000000009, -1.0884498501718567 
0.1499999999999998, -1.089866805130134 
0.1599999999999987, -1.0916325366156434 
0.1699999999999976, -1.09358254753435 
0.1799999999999965, -1.0955595252741464 
0.1899999999999954, -1.0974334116055977 
0.1999999999999943, -1.0991040960191825 
0.2099999999999932, -1.100498243335302 
0.2199999999999921, -1.101568086819141 
0.229999999999991, -1.1022935197590278 
0.2399999999999899, -1.1026833651278412 
0.2499999999999888, -1.1027713177280654 
0.2599999999999877, -1.102607154271356 
0.2699999999999866, -1.1022487692839262 
0.2799999999999855, -1.101760213486783 
0.2899999999999844, -1.1012158296299517 
0.2999999999999833, -1.100704302307928 
0.3099999999999822, -1.100322910982642 
0.3199999999999811, -1.1001570658965607 
0.32999999999998, -1.1002540067538908 
0.3399999999999789, -1.1006085064001907 
0.3499999999999778, -1.1011691990442471 
0.35999999999997667, -1.1018580057127583 
0.36999999999997557, -1.10259056097265 
0.37999999999997447, -1.103290843913459 
0.38999999999997337, -1.1038984085119008 
0.39999999999997227, -1.1043694580231915 
0.40999999999997117, -1.1046744359493257 
0.41999999999997006, -1.1047948582666087 
0.42999999999996896, -1.1047213016259565 
0.43999999999996786, -1.1044533212535907 
0.44999999999996676, -1.104000790346581 
0.45999999999996566, -1.1033855270815547 
0.46999999999996456, -1.1026426852591154 
0.47999999999996346, -1.1018219492414896 
0.48999999999996235, -1.100987401549419 
0.49999999999996125, -1.1002130411690982 
0.5099999999999602, -1.0995717205958537 
0.519999999999959, -1.0991196319613858 
0.529999999999958, -1.0988820732608113 
0.5399999999999568, -1.0988458446890905 
0.5499999999999557, -1.0989616718618644 
0.5599999999999546, -1.0991569733101496 
0.5699999999999535, -1.099353414370059 
0.5799999999999524, -1.0994804959467999 
0.5899999999999513, -1.099481065028163 
0.5999999999999502, -1.0993115360397734 
0.6099999999999491, -1.0989414547345067 
0.619999999999948, -1.0983541085338888 
0.6299999999999469, -1.0975468843517333 
0.6399999999999458, -1.0965301275921286 
0.6499999999999447, -1.095325454963488 
0.6599999999999436, -1.0939656422123698 
0.6699999999999425, -1.0924969604649049 
0.6799999999999414, -1.0909825485303606 
0.6899999999999403, -1.0895036775832225 
0.6999999999999392, -1.0881550675465193 
0.7099999999999381, -1.0870309223035308 
0.719999999999937, -1.0862013024004722 
0.7299999999999359, -1.0856861259402917 
0.7399999999999348, -1.0854429204096716 
0.7499999999999337, -1.0853804708755885 
0.7599999999999326, -1.0853900418307982 
0.7699999999999315, -1.0853718545758082 
0.7799999999999304, -1.0852436036902111 
0.7899999999999293, -1.084935073186632 
0.7999999999999282, -1.0843802321500244 
0.8099999999999271, -1.083515661926137 
0.819999999999926, -1.0822882745445224 
0.8299999999999249, -1.0806687859598005 
0.8399999999999238, -1.078662933927594 
0.8499999999999227, -1.076314363717686 
0.8599999999999216, -1.073700718623171 
0.8699999999999205, -1.0709295843201825 
0.8799999999999194, -1.068137903631129 
0.8899999999999183, -1.0654904052071337 
0.8999999999999172, -1.063165932947672 
0.9099999999999161, -1.061321745136746 
0.919999999999915, -1.060041561690738 
0.9299999999999139, -1.0592979665101827 
0.9399999999999128, -1.058963163012073 
0.9499999999999117, -1.0588644497593074 
0.9599999999999106, -1.058842105735591 
0.9699999999999095, -1.058775053129339 
0.9799999999999084, -1.0585741728584188 
0.9899999999999073, -1.0581614645007864 
0.9999999999999062, -1.0574504513445548 
1.0099999999999052, -1.0563364508278732 
1.019999999999904, -1.054702628560753 
1.029999999999903, -1.0524449240222953 
1.039999999999902, -1.049509827848668 
1.0499999999999008, -1.0459274579574287 
1.0599999999998997, -1.0418228968340555 
1.0699999999998986, -1.0374051101898198 
1.0799999999998975, -1.0329457314315613 
1.0899999999998964, -1.0287533601393102 
1.0999999999998953, -1.0251332745269823 
1.1099999999998942, -1.0223219759105562 
1.119999999999893, -1.0204131642746923 
1.129999999999892, -1.0193240703233408 
1.1399999999998909, -1.018838580447516 
1.1499999999998898, -1.0187011495202518 
1.1599999999998887, -1.0186959775853017 
1.1699999999998876, -1.0186740426320486 
1.1799999999998865, -1.0185383955625311 
1.1899999999998854, -1.0182144595307576 
1.1999999999998843, -1.017622565815461 
1.2099999999998832, -1.0166592654902824 
1.219999999999882, -1.0151918112219147 
1.229999999999881, -1.0130727980735625 
1.2399999999998799, -1.010179797160214 
1.2499999999998788, -1.0064704489359102 
1.2599999999998777, -1.0020253456452006 
1.2699999999998766, -0.9970531210066579 
1.2799999999998755, -0.9918589929871482 
1.2899999999998744, -0.9867980092534095 
1.2999999999998733, -0.9822256937299267 
1.3099999999998722, -0.9784415429002895 
1.319999999999871, -0.9756244637014282 
1.32999999999987, -0.9737844707051788 
1.3399999999998689, -0.9727683152557456 
1.3499999999998678, -0.9723271837274267 
1.3599999999998666, -0.9722059374554612 
1.3699999999998655, -0.9722026332462195 
1.3799999999998644, -0.9721811115437996 
1.3899999999998633, -0.9720527025238704 
1.3999999999998622, -0.9717492354057008 
1.4099999999998611, -0.9712001826088639 
1.41999999999986, -0.9703190504768544 
1.429999999999859, -0.9690028024419071 
1.4399999999998578, -0.9671487477109226 
1.4499999999998567, -0.9646884430903258 
1.4599999999998556, -0.9616251591926195 
1.4699999999998545, -0.9580520580919456 
1.4799999999998534, -0.954138939707714 
1.4899999999998523, -0.9500991473474765 
1.4999999999998512, -0.9461577515632857 
1.5099999999998501, -0.9425297601157977 
1.519999999999849, -0.9394016881298489 
1.529999999999848, -0.9369075989428396 
1.5399999999998468, -0.9351017579919703 
1.5499999999998457, -0.9339433734988388 
1.5599999999998446, -0.9333094920224345 
1.5699999999998435, -0.9330345558503452 
1.5799999999998424, -0.9329554269759315 
1.5899999999998413, -0.9329396685815455 
1.5999999999998402, -0.9328907440410518 
1.6099999999998391, -0.9327381114751953 
1.619999999999838, -0.9324235165465081 
1.629999999999837, -0.9318915429452501 
1.6399999999998358, -0.9310888098688089 
1.6499999999998347, -0.9299729371380856 
1.6599999999998336, -0.9285274465400326 
1.6699999999998325, -0.9267732783374878 
1.6799999999998314, -0.9247679496738332 
1.6899999999998303, -0.9225925010350793 
1.6999999999998292, -0.9203356922267419 
1.709999999999828, -0.9180845170538134 
1.719999999999827, -0.915922354236363 
1.729999999999826, -0.9139299003876966 
1.7399999999998248, -0.912183217349692 
1.7499999999998237, -0.9107460071036444 
1.7599999999998226, -0.9096573265196699 
1.7699999999998215, -0.90891996330648 
1.7799999999998204, -0.9084964948265339 
1.7899999999998193, -0.9083170774619924 
1.7999999999998182, -0.9082960320798443 
1.809999999999817, -0.9083489885343786 
1.819999999999816, -0.9084035329999829 
1.8299999999998149, -0.9084020594532053 
1.8399999999998138, -0.9083003103088917 
1.8499999999998127, -0.908066001228889 
1.8599999999998116, -0.9076796759248346 
1.8699999999998105, -0.9071365832212563 
1.8799999999998094, -0.9064463974697757 
1.8899999999998083, -0.9056290258574216 
1.8999999999998072, -0.9047084919238259 
1.909999999999806, -0.9037088809002396 
1.919999999999805, -0.9026544732036405 
1.9299999999998039, -0.9015729091955074 
1.9399999999998028, -0.9004986788263855 
1.9499999999998017, -0.8994746696590166 
1.9599999999998006, -0.898550452615587 
1.9699999999997995, -0.8977768290386295 
1.9799999999997984, -0.8971973650746088 
1.9899999999997973, -0.8968392068750836 
1.9999999999997962, -0.8967064374643527 
2.0099999999998173, -0.8967786952802188 
2.0199999999998384, -0.8970157678310612 
2.0299999999998595, -0.8973663549968386 
2.0399999999998806, -0.8977776142213424 
2.0499999999999017, -0.8982024618731085 
2.059999999999923, -0.8986033678813143 
2.069999999999944, -0.898952911720059 
2.079999999999965, -0.8992318273041336 
2.089999999999986, -0.8994254116599503 
2.100000000000007, -0.8995199519826091 
2.1100000000000283, -0.8995015556234278 
2.1200000000000494, -0.8993587235414754 
2.1300000000000705, -0.8990872471872542 
2.1400000000000916, -0.8986942715886004 
2.1500000000001127, -0.8981997215115479 
2.160000000000134, -0.8976360585242231 
2.170000000000155, -0.8970482879170196 
2.180000000000176, -0.8964944429711 
2.190000000000197, -0.8960442873979144 
2.2000000000002182, -0.8957731148606085 
2.2100000000002393, -0.895749733858793 
2.2200000000002604, -0.8960220973657458 
2.2300000000002815, -0.8966069514840465 
2.2400000000003026, -0.8974881910704857 
2.2500000000003237, -0.8986235679155665 
2.260000000000345, -0.8999552749008668 
2.270000000000366, -0.9014192024692212 
2.280000000000387, -0.9029495921060435 
2.290000000000408, -0.9044787780858169 
2.3000000000004293, -0.905934816806304 
2.3100000000004504, -0.907242111708334 
2.3200000000004715, -0.9083294560935711 
2.3300000000004926, -0.9091444079110277 
2.3400000000005137, -0.9096658293890247 
2.3500000000005348, -0.9099058198473642 
2.360000000000556, -0.9099004682281475 
2.370000000000577, -0.9096971911556704 
2.380000000000598, -0.9093470849671977 
2.390000000000619, -0.9089059790318975 
2.4000000000006403, -0.9084433274398949 
2.4100000000006614, -0.9080549448944618 
2.4200000000006825, -0.907872273166349 
2.4300000000007036, -0.9080580977831078 
2.4400000000007247, -0.9087814180397056 
2.450000000000746, -0.910176098566579 
2.460000000000767, -0.9123016727706545 
2.470000000000788, -0.9151253046955088 
2.480000000000809, -0.9185285621698874 
2.49000000000083, -0.9223271464412311 
2.5000000000008513, -0.9262908745451284 
2.5100000000008724, -0.9301629645762425 
2.5200000000008935, -0.9336884816460019 
2.5300000000009146, -0.9366580967668323 
2.5400000000009357, -0.9389535329025798 
2.550000000000957, -0.9405661412960162 
2.560000000000978, -0.941574353337629 
2.570000000000999, -0.942097042288566 
2.58000000000102, -0.942251962687485 
2.5900000000010412, -0.9421348059771498 
2.6000000000010624, -0.9418179161564249 
2.6100000000010835, -0.9413625774421724 
2.6200000000011046, -0.9408415290682782 
2.6300000000011257, -0.9403707169867621 
2.6400000000011468, -0.9401450389934368 
2.650000000001168, -0.9404597810256009 
2.660000000001189, -0.9416863145450691 
2.67000000000121, -0.9441806589287355 
2.680000000001231, -0.9481491554100139 
2.6900000000012523, -0.9535404074813106 
2.7000000000012734, -0.9600219249398674 
2.7100000000012945, -0.9670443363493831 
2.7200000000013156, -0.9739603506689006 
2.7300000000013367, -0.9801683449331989 
2.740000000001358, -0.9852492902025523 
2.750000000001379, -0.9890455612600899 
2.7600000000014, -0.9916399286452504 
2.770000000001421, -0.9932552636656389 
2.780000000001442, -0.9941441548457364 
2.7900000000014633, -0.9945202514384887 
2.8000000000014844, -0.9945369246192508 
2.8100000000015055, -0.9942948490754976 
2.8200000000015266, -0.9938626221743618 
2.8300000000015477, -0.9933056107986111 
2.840000000001569, -0.9927258821172323 
2.85000000000159, -0.9923141651025198 
2.860000000001611, -0.9923970831735115 
2.870000000001632, -0.9934327472856885 
2.8800000000016532, -0.9959009450127654 
2.8900000000016743, -1.0000999543568767 
2.9000000000016954, -1.0059658931434352 
2.9100000000017165, -1.0130411735286935 
2.9200000000017377, -1.0206046512412674 
2.9300000000017588, -1.0278769175252225 
2.94000000000178, -1.0342145161409295 
2.950000000001801, -1.0392415622628157 
2.960000000001822, -1.042883424708043 
2.970000000001843, -1.045297361041229 
2.9800000000018643, -1.0467490730554376 
2.9900000000018854, -1.0475052052181222 
3.0000000000019065, -1.0477778282022778 
3.0100000000019276, -1.0477145649932924 
3.0200000000019487, -1.0474136283434952 
3.03000000000197, -1.0469503106960474 
3.040000000001991, -1.0464120258746485 
3.050000000002012, -1.0459415618620045 
3.060000000002033, -1.0457762003318585 
3.070000000002054, -1.0462463613625848 
3.0800000000020753, -1.0476923630495185 
3.0900000000020964, -1.050315151879871 
3.1000000000021175, -1.0540607423404875 
3.1100000000021386, -1.0586282417216377 
3.1200000000021597, -1.0635800067043897 
3.130000000002181, -1.0684648783257555 
3.140000000002202, -1.072901117621492 
3.150000000002223, -1.076621613679481 
3.160000000002244, -1.0794958328782684 
3.1700000000022652, -1.0815267157373465 
3.1800000000022863, -1.0828168318594487 
3.1900000000023074, -1.0835154988063818 
3.2000000000023285, -1.0837714961589644 
3.2100000000023496, -1.0837080288117655 
3.2200000000023707, -1.0834208535733283 
3.230000000002392, -1.0829928211600355 
3.240000000002413, -1.0825178407138494 
3.250000000002434, -1.0821251750537486 
3.260000000002455, -1.0819866280652244 
3.2700000000024763, -1.0822856346633807 
3.2800000000024974, -1.0831502253915375 
3.2900000000025185, -1.08459326171571 
3.3000000000025396, -1.0865080126778652 
3.3100000000025607, -1.088716802236259 
3.3200000000025818, -1.0910295136666355 
3.330000000002603, -1.093279424092534 
3.340000000002624, -1.0953341960000524 
3.350000000002645, -1.0970950388142915 
3.360000000002666, -1.0984956913812802 
3.3700000000026873, -1.0995047696931333 
3.3800000000027084, -1.1001273132695286 
3.3900000000027295, -1.1003997455620356 
3.4000000000027506, -1.1003781824819032 
3.4100000000027717, -1.1001265503902027 
3.420000000002793, -1.0997114600879412 
3.430000000002814, -1.0992057352272409 
3.440000000002835, -1.0986959314544744 
3.450000000002856, -1.0982837668842815 
3.460000000002877, -1.0980715291605854 
3.4700000000028983, -1.0981330484055607 
3.4800000000029194, -1.0984881912095008 
3.4900000000029405, -1.0990993328768843 
3.5000000000029616, -1.099889428762296 
3.5100000000029827, -1.100766868326406 
3.520000000003004, -1.101644916665705 
3.530000000003025, -1.1024520903952832 
3.540000000003046, -1.1031347841740238 
3.550000000003067, -1.103655212822558 
3.5600000000030882, -1.1039879806656945 
3.5700000000031094, -1.1041178278753612 
3.5800000000031305, -1.1040395924957775 
3.5900000000031516, -1.1037596275727803 
3.6000000000031727, -1.1032970573057694 
3.6100000000031938, -1.1026842477565741 
3.620000000003215, -1.1019672717282893 
3.630000000003236, -1.1012064475438172 
3.640000000003257, -1.1004742868015691 
3.650000000003278, -1.099847015323576 
3.6600000000032993, -1.0993895323565361 
3.6700000000033204, -1.0991395283882226 
3.6800000000033415, -1.0990977861483135 
3.6900000000033626, -1.0992280826406806 
3.7000000000033837, -1.099466638321902 
3.710000000003405, -1.099737793435771 
3.720000000003426, -1.0999691267919105 
3.730000000003447, -1.1001002533317938 
3.740000000003468, -1.1000851521702122 
3.750000000003489, -1.0998916814496797 
3.7600000000035103, -1.0995009789147958 
3.7700000000035314, -1.098906801889957 
3.7800000000035525, -1.0981141310829505 
3.7900000000035736, -1.097137676494579 
3.8000000000035947, -1.0960018412299177 
3.810000000003616, -1.0947428415647307 
3.820000000003637, -1.0934119610983557 
3.830000000003658, -1.0920775128580549 
3.840000000003679, -1.0908224048722255 
3.8500000000037002, -1.0897345590684022 
3.8600000000037213, -1.088889176188941 
3.8700000000037424, -1.088325982996497 
3.8800000000037635, -1.0880316595471398 
3.8900000000037847, -1.08794078370076 
3.9000000000038058, -1.0879575766984746 
3.910000000003827, -1.0879834431695676 
3.920000000003848, -1.0879330552132536 
3.930000000003869, -1.0877354182564738 
3.94000000000389, -1.0873280890094306 
3.9500000000039113, -1.0866540440778836 
3.9600000000039324, -1.085665785571491 
3.9700000000039535, -1.0843349316165987 
3.9800000000039746, -1.0826610219572594 
3.9900000000039957, -1.080674114775401 
4.000000000004016, -1.0784317420174554 
4.010000000003993, -1.0760155876289133 
4.02000000000397, -1.0735317030910927 
4.030000000003946, -1.07111202021188 
4.040000000003923, -1.0689090835081625 
4.0500000000039, -1.067074092578061 
4.0600000000038765, -1.0657157108031408 
4.070000000003853, -1.0648565181680008 
4.08000000000383, -1.0644196476315957 
4.090000000003807, -1.0642616294980747 
4.100000000003783, -1.064227274662413 
4.11000000000376, -1.0641876208743006 
4.120000000003737, -1.0640460263312974 
4.130000000003713, -1.0637235813054366 
4.14000000000369, -1.0631404550042753 
4.150000000003667, -1.0622042198515116 
4.1600000000036434, -1.0608116911490533 
4.17000000000362, -1.058867440468965 
4.180000000003597, -1.0563147290533084 
4.1900000000035735, -1.053164720526175 
4.20000000000355, -1.0495088253263911 
4.210000000003527, -1.0455120349398404 
4.220000000003504, -1.0413977302092308 
4.23000000000348, -1.037430901869199 
4.240000000003457, -1.0338920054301322 
4.250000000003434, -1.0310271834714142 
4.26000000000341, -1.0289780429894926 
4.270000000003387, -1.0277284669308249 
4.280000000003364, -1.0271153985007708 
4.2900000000033405, -1.0269042516448839 
4.300000000003317, -1.026874176978229 
4.310000000003294, -1.0268619707677158 
4.320000000003271, -1.0267594835199298 
4.330000000003247, -1.0264879603549038 
4.340000000003224, -1.0259701023219097 
4.350000000003201, -1.025109316934808 
4.360000000003177, -1.0237809807299991 
4.370000000003154, -1.0218420655615406 
4.380000000003131, -1.0191646923081472 
4.390000000003107, -1.015687630844961 
4.400000000003084, -1.011461939531843 
4.410000000003061, -1.0066643329560834 
4.4200000000030375, -1.0015743091435505 
4.430000000003014, -0.9965329843715193 
4.440000000002991, -0.9918972989385606 
4.450000000002968, -0.9879857080077201 
4.460000000002944, -0.9850111879724587 
4.470000000002921, -0.9830222984998249 
4.480000000002898, -0.9818937350064351 
4.490000000002874, -0.9813852797916891 
4.500000000002851, -0.9812345131524381 
4.510000000002828, -0.9812264103293915 
4.520000000002804, -0.9812138247633518 
4.530000000002781, -0.9811018360813742 
4.540000000002758, -0.9808199418849644 
4.5500000000027345, -0.9802971335834922 
4.560000000002711, -0.979445745739155 
4.570000000002688, -0.9781578351798714 
4.580000000002665, -0.9763191561255775 
4.590000000002641, -0.9738426295189242 
4.600000000002618, -0.9707105737194869 
4.610000000002595, -0.96700188840864 
4.620000000002571, -0.9628862406358458 
4.630000000002548, -0.9585919056882324 
4.640000000002525, -0.9543693369504819 
4.6500000000025015, -0.9504632057410551 
4.660000000002478, -0.9470882603689355 
4.670000000002455, -0.9443998299125023 
4.6800000000024315, -0.9424614851967232 
4.690000000002408, -0.941227853688954 
4.700000000002385, -0.9405609480264452 
4.710000000002362, -0.9402770142820657 
4.720000000002338, -0.9401980676306267 
4.730000000002315, -0.9401826730515511 
4.740000000002292, -0.9401300656469616 
4.750000000002268, -0.9399677432592094 
4.760000000002245, -0.9396353158855397 
4.770000000002222, -0.9390730794924711 
4.7800000000021985, -0.9382198997258273 
4.790000000002175, -0.9370222954478761 
4.800000000002152, -0.935451970026295 
4.810000000002129, -0.9335222345468802 
4.820000000002105, -0.9312916321729487 
4.830000000002082, -0.9288517123681151 
4.840000000002059, -0.9263081749482837 
4.850000000002035, -0.9237671312518888 
4.860000000002012, -0.9213302045527245 
4.870000000001989, -0.9190938969981486 
4.880000000001965, -0.9171464792440519 
4.890000000001942, -0.915558612365893 
4.900000000001919, -0.9143691748252539 
4.9100000000018955, -0.9135729825715655 
4.920000000001872, -0.9131188695949003 
4.930000000001849, -0.9129218052373531 
