t, s[1].omega / s[0].omega 
0, -0.6899976969188037 
0.009999999999999995, -0.6897688842631168 
0.019999999999999934, -0.6895340320863705 
0.029999999999999874, -0.6892709361950626 
0.04000000000000012, -0.688955280794883 
0.050000000000000405, -0.6885716927577232 
0.06000000000000069, -0.6881198679566363 
0.07000000000000098, -0.6876157625949225 
0.08000000000000126, -0.687091442538635 
0.09000000000000155, -0.6865971418741739 
0.10000000000000184, -0.6862068897551012 
0.11000000000000212, -0.6860268320233824 
0.12000000000000241, -0.6862038458335042 
0.130000000000002, -0.6869312853866109 
0.1400000000000009, -0.6884488904188705 
0.1499999999999998, -0.6910349368135733 
0.1599999999999987, -0.694989296075942 
0.1699999999999976, -0.7006036910902672 
0.1799999999999965, -0.7081084594841018 
0.1899999999999954, -0.7175774772698079 
0.1999999999999943, -0.7287815934683879 
0.2099999999999932, -0.7410376619902259 
0.2199999999999921, -0.7532057481116053 
0.229999999999991, -0.764002321538 
0.2399999999999899, -0.7725262584530727 
0.2499999999999888, -0.7785737486445975 
0.2599999999999877, -0.7825016995215371 
0.2699999999999866, -0.7848715606674049 
0.2799999999999855, -0.7861880209071364 
0.2899999999999844, -0.7868086215444692 
0.2999999999999833, -0.7869509154781167 
0.3099999999999822, -0.7867249928044291 
0.3199999999999811, -0.7861589421229757 
0.32999999999998, -0.7852087894278106 
0.3399999999999789, -0.7837521732940406 
0.3499999999999778, -0.781565903024849 
0.35999999999997667, -0.7782873955694749 
0.36999999999997557, -0.7733610439933777 
0.37999999999997447, -0.7659733695876321 
0.38999999999997337, -0.7549978642627827 
0.39999999999997227, -0.7390823079784494 
0.40999999999997117, -0.717328362749897 
0.41999999999997006, -0.690914862063156 
0.42999999999996896, -0.6640581675602965 
0.43999999999996786, -0.6417541363356533 
0.44999999999996676, -0.6263998142980474 
0.45999999999996566, -0.6173554034221386 
0.46999999999996456, -0.6126978947403473 
0.47999999999996346, -0.6106272105830318 
0.48999999999996235, -0.6099093817510111 
0.49999999999996125, -0.6098188863448927 
0.5099999999999602, -0.6099668263445738 
0.519999999999959, -0.6101575017939783 
0.529999999999958, -0.6102958126039868 
0.5399999999999568, -0.6103337191567436 
0.5499999999999557, -0.6102412242123745 
0.5599999999999546, -0.6099921070659288 
0.5699999999999535, -0.6095596820378519 
0.5799999999999524, -0.6089211799733806 
0.5899999999999513, -0.6080695030878096 
0.5999999999999502, -0.6070270075852507 
0.6099999999999491, -0.6058507096361261 
0.619999999999948, -0.6046204210437705 
0.6299999999999469, -0.6034139979782231 
0.6399999999999458, -0.6022848915923983 
0.6499999999999447, -0.6012539872056755 
0.6599999999999436, -0.6003159900702969 
0.6699999999999425, -0.5994530441190299 
0.6799999999999414, -0.5986480328551836 
0.6899999999999403, -0.5978935074135491 
0.6999999999999392, -0.5971960560396757 
0.7099999999999381, -0.5965782305112716 
0.719999999999937, -0.5960803442703357 
0.7299999999999359, -0.5957634248318457 
0.7399999999999348, -0.5957135276537452 
0.7499999999999337, -0.5960470754606677 
0.7599999999999326, -0.5969168531589208 
0.7699999999999315, -0.5985184324610432 
0.7799999999999304, -0.601096490186687 
0.7899999999999293, -0.6049485475730447 
0.7999999999999282, -0.6104181459097759 
0.8099999999999271, -0.6178581492396155 
0.819999999999926, -0.6275292376946144 
0.8299999999999249, -0.6393977617740231 
0.8399999999999238, -0.6528661684135487 
0.8499999999999227, -0.6666501251213767 
0.8599999999999216, -0.6791200638977805 
0.8699999999999205, -0.6890446868283973 
0.8799999999999194, -0.6960921409506029 
0.8899999999999183, -0.7006724855474833 
0.8999999999999172, -0.7034594716258323 
0.9099999999999161, -0.705052242684896 
0.919999999999915, -0.7058693226223236 
0.9299999999999139, -0.7061642698930684 
0.9399999999999128, -0.7060680580740517 
0.9499999999999117, -0.7056197168936239 
0.9599999999999106, -0.7047756984240883 
0.9699999999999095, -0.7033947720742723 
0.9799999999999084, -0.7011920964902416 
0.9899999999999073, -0.6976524201525788 
0.9999999999999062, -0.6919039324546049 
1.0099999999999052, -0.6826242886130183 
1.019999999999904, -0.6682368936839765 
1.029999999999903, -0.6478095320395446 
1.039999999999902, -0.6224731807282602 
1.0499999999999008, -0.5957407658592171 
1.0599999999998997, -0.5716082417568247 
1.0699999999998986, -0.5523788683764909 
1.0799999999998975, -0.5383240114045182 
1.0899999999998964, -0.528599013870292 
1.0999999999998953, -0.5221010130726815 
1.1099999999998942, -0.5178693669571522 
1.119999999999893, -0.5151812765537063 
1.129999999999892, -0.513527073206829 
1.1399999999998909, -0.512558271034514 
1.1499999999998898, -0.5120404827979972 
1.1599999999998887, -0.5118179754482732 
1.1699999999998876, -0.5117888329263954 
1.1799999999998865, -0.5118882788706464 
1.1899999999998854, -0.5120780884455097 
1.1999999999998843, -0.5123405561839787 
1.2099999999998832, -0.5126756007257055 
1.219999999999882, -0.5130991054506415 
1.229999999999881, -0.5136398170262461 
1.2399999999998799, -0.5143319067967018 
1.2499999999998788, -0.5152015165585478 
1.2599999999998777, -0.5162485413799893 
1.2699999999998766, -0.5174295736322325 
1.2799999999998755, -0.5186531721711259 
1.2899999999998744, -0.5197980737299657 
1.2999999999998733, -0.5207507872945468 
1.3099999999998722, -0.5214400619531736 
1.319999999999871, -0.5218463297043796 
1.32999999999987, -0.5219862566152932 
1.3399999999998689, -0.5218887974946406 
1.3499999999998678, -0.5215760152103972 
1.3599999999998666, -0.521051243004621 
1.3699999999998655, -0.5202905906436525 
1.3799999999998644, -0.5192316302217731 
1.3899999999998633, -0.5177508070326675 
1.3999999999998622, -0.5156139081020248 
1.4099999999998611, -0.5123667822377266 
1.41999999999986, -0.5071090528623026 
1.429999999999859, -0.4981250366600861 
1.4399999999998578, -0.4826934397167671 
1.4499999999998567, -0.4582851232614014 
1.4599999999998556, -0.42595421631376806 
1.4699999999998545, -0.39196658094243586 
1.4799999999998534, -0.3632136853410056 
1.4899999999998523, -0.3423765181512391 
1.4999999999998512, -0.3285070816950012 
1.5099999999998501, -0.31958704026197127 
1.519999999999849, -0.3138854456218022 
1.529999999999848, -0.3102217828760604 
1.5399999999998468, -0.30785543948325855 
1.5499999999998457, -0.30633525253990734 
1.5599999999998446, -0.3053895766584507 
1.5699999999998435, -0.3048578081992815 
1.5799999999998424, -0.30465055112384504 
1.5899999999998413, -0.3047279088214453 
1.5999999999998402, -0.30508948318750606 
1.6099999999998391, -0.3057727458426779 
1.619999999999838, -0.3068584025620689 
1.629999999999837, -0.30848232596564695 
1.6399999999998358, -0.3108530881738245 
1.6499999999998347, -0.3142699283384832 
1.6599999999998336, -0.31912272757969695 
1.6699999999998325, -0.32582616818602833 
1.6799999999998314, -0.3346078110676535 
1.6899999999998303, -0.3451290934335313 
1.6999999999998292, -0.3562163771259385 
1.709999999999828, -0.3662350914899668 
1.719999999999827, -0.3740205646107183 
1.729999999999826, -0.37938390625985796 
1.7399999999998248, -0.382795897025194 
1.7499999999998237, -0.38486361728009044 
1.7599999999998226, -0.38606439459943154 
1.7699999999998215, -0.38670616588934875 
1.7799999999998204, -0.3869671779315782 
1.7899999999998193, -0.38693968790044275 
1.7999999999998182, -0.38665978699092063 
1.809999999999817, -0.38612604665296413 
1.819999999999816, -0.38531442140464783 
1.8299999999998149, -0.3841971963033295 
1.8399999999998138, -0.38277033467291444 
1.8499999999998127, -0.3810828502634138 
1.8599999999998116, -0.37924795747992796 
1.8699999999998105, -0.3774181521674657 
1.8799999999998094, -0.37573484491101095 
1.8899999999998083, -0.3742869060353286 
1.8999999999998072, -0.37310007079111396 
1.909999999999806, -0.37215103407645844 
1.919999999999805, -0.3713895387684784 
1.9299999999998039, -0.37075795327422045 
1.9399999999998028, -0.37020495508889406 
1.9499999999998017, -0.36969286781771793 
1.9599999999998006, -0.3691996530409188 
1.9699999999997995, -0.3687179470128027 
1.9799999999997984, -0.3682541149924274 
1.9899999999997973, -0.3678299436739774 
1.9999999999997962, -0.3674892233398662 
2.0099999999998173, -0.36731183479635 
2.0199999999998384, -0.3674388001705126 
2.0299999999998595, -0.3681105575410726 
2.0399999999998806, -0.3697073773127546 
2.0499999999999017, -0.37272203588164227 
2.059999999999923, -0.37741553702255504 
2.069999999999944, -0.382622755484783 
2.079999999999965, -0.38372827471810034 
2.089999999999986, -0.373390615196301 
2.100000000000007, -0.34958228684251014 
2.1100000000000283, -0.320670259053777 
2.1200000000000494, -0.2962856634874542 
2.1300000000000705, -0.2795187817608482 
2.1400000000000916, -0.2690301092404029 
2.1500000000001127, -0.2626727024690506 
2.160000000000134, -0.2588277048413232 
2.170000000000155, -0.2564871512583995 
2.180000000000176, -0.25506173675377103 
2.190000000000197, -0.254213473356046 
2.2000000000002182, -0.2537509021646674 
2.2100000000002393, -0.2535698799644171 
2.2200000000002604, -0.25362202011190127 
2.2300000000002815, -0.25389958971115967 
2.2400000000003026, -0.25443091722611105 
2.2500000000003237, -0.25528353201183973 
2.260000000000345, -0.2565738933402833 
2.270000000000366, -0.2584826944492243 
2.280000000000387, -0.26127180760820734 
2.290000000000408, -0.26528829141745136 
2.3000000000004293, -0.2709154039803284 
2.3100000000004504, -0.2783981765078397 
2.3200000000004715, -0.28750979891415784 
2.3300000000004926, -0.2972770231976064 
2.3400000000005137, -0.3062498770249103 
2.3500000000005348, -0.31332094335977506 
2.360000000000556, -0.31824177605089865 
2.370000000000577, -0.321391503416784 
2.380000000000598, -0.3233057354661831 
2.390000000000619, -0.3244178376741762 
2.4000000000006403, -0.3250112300831788 
2.4100000000006614, -0.3252515943357026 
2.4200000000006825, -0.32522656354049767 
2.4300000000007036, -0.3249743579291957 
2.4400000000007247, -0.3245031690498742 
2.450000000000746, -0.32380753536562806 
2.460000000000767, -0.3228869346534883 
2.470000000000788, -0.3217668041702348 
2.480000000000809, -0.3205135899487903 
2.49000000000083, -0.3192306210702561 
2.5000000000008513, -0.3180314210893759 
2.5100000000008724, -0.31700582425671553 
2.5200000000008935, -0.316199193523076 
2.5300000000009146, -0.3156108543072901 
2.5400000000009357, -0.31520456598376206 
2.550000000000957, -0.314923160162853 
2.560000000000978, -0.31470368026079565 
2.570000000000999, -0.31449035041049334 
2.58000000000102, -0.31424204569257935 
2.5900000000010412, -0.3139326986746305 
2.6000000000010624, -0.31354633878077764 
2.6100000000010835, -0.3130697555383089 
2.6200000000011046, -0.3124842514854539 
2.6300000000011257, -0.3117548976334802 
2.6400000000011468, -0.31081126857662755 
2.650000000001168, -0.30950510095153405 
2.660000000001189, -0.3075122910763574 
2.67000000000121, -0.30411934204108587 
2.680000000001231, -0.2978566152842561 
2.6900000000012523, -0.2862803540004605 
2.7000000000012734, -0.26712481552227296 
2.7100000000012945, -0.24156642697351488 
2.7200000000013156, -0.2153384610890669 
2.7300000000013367, -0.19396199357579147 
2.740000000001358, -0.17896050747246228 
2.750000000001379, -0.16914544736274 
2.7600000000014, -0.16283217003681622 
2.770000000001421, -0.15872890222496144 
2.780000000001442, -0.15600650066771835 
2.7900000000014633, -0.1541650628162451 
2.8000000000014844, -0.15291094847764256 
2.8100000000015055, -0.15207757376477765 
2.8200000000015266, -0.1515808040993159 
2.8300000000015477, -0.15139757468344078 
2.840000000001569, -0.1515615133660803 
2.85000000000159, -0.15217488896142045 
2.860000000001611, -0.1534422696340896 
2.870000000001632, -0.15573950738949038 
2.8800000000016532, -0.15974237885750042 
2.8900000000016743, -0.16664027849893365 
2.9000000000016954, -0.17837821207166535 
2.9100000000017165, -0.1974333784874776 
2.9200000000017377, -0.22450287099245317 
2.9300000000017588, -0.2530941494003437 
2.94000000000178, -0.26968468772219334 
2.950000000001801, -0.2687015437206949 
2.960000000001822, -0.2584487859713478 
2.970000000001843, -0.24796720463694966 
2.9800000000018643, -0.2404085891577911 
2.9900000000018854, -0.23560442399662357 
3.0000000000019065, -0.2326827280163454 
3.0100000000019276, -0.23092931742531858 
3.0200000000019487, -0.22988683395475076 
3.03000000000197, -0.22928516169466903 
3.040000000001991, -0.22897092692328203 
3.050000000002012, -0.22886180607146872 
3.060000000002033, -0.22892099584173153 
3.070000000002054, -0.2291449206889903 
3.0800000000020753, -0.2295596349807989 
3.0900000000020964, -0.23022346142224145 
3.1000000000021175, -0.23123454063239382 
3.1100000000021386, -0.232741988271249 
3.1200000000021597, -0.23495709470820852 
3.130000000002181, -0.23815296784987158 
3.140000000002202, -0.24262254064895564 
3.150000000002223, -0.248543882944075 
3.160000000002244, -0.2557354831464288 
3.1700000000022652, -0.26346319770721877 
3.1800000000022863, -0.2706345050039238 
3.1900000000023074, -0.27638348183956324 
3.2000000000023285, -0.28046528690930655 
3.2100000000023496, -0.2831238660108284 
3.2200000000023707, -0.2847545490562877 
3.230000000002392, -0.2856959128089138 
3.240000000002413, -0.28617748009265553 
3.250000000002434, -0.2863359868668032 
3.260000000002455, -0.2862436112733174 
3.2700000000024763, -0.28593082383361945 
3.2800000000024974, -0.28540390281080286 
3.2900000000025185, -0.28466170110419625 
3.3000000000025396, -0.28371489790736587 
3.3100000000025607, -0.282605044511437 
3.3200000000025818, -0.28141302146734914 
3.330000000002603, -0.2802465453057152 
3.340000000002624, -0.2792103638656805 
3.350000000002645, -0.27837742558402256 
3.360000000002666, -0.27777593768803405 
3.3700000000026873, -0.2773919721470659 
3.3800000000027084, -0.2771797033244766 
3.3900000000027295, -0.277074543729447 
3.4000000000027506, -0.2770078330037779 
3.4100000000027717, -0.27692018990520517 
3.420000000002793, -0.27676881298684 
3.430000000002814, -0.27652647908558126 
3.440000000002835, -0.2761742019960848 
3.450000000002856, -0.2756907565713826 
3.460000000002877, -0.27503989944253576 
3.4700000000028983, -0.27415200901548287 
3.4800000000029194, -0.2728915746666618 
3.4900000000029405, -0.27099475165856957 
3.5000000000029616, -0.2679567058933553 
3.5100000000029827, -0.26287985791119095 
3.520000000003004, -0.25446054941885865 
3.530000000003025, -0.2416162510319087 
3.540000000003046, -0.22495793233987765 
3.550000000003067, -0.2074102162802322 
3.5600000000030882, -0.1922304150980713 
3.5700000000031094, -0.18083956517101457 
3.5800000000031305, -0.17293368530742337 
3.5900000000031516, -0.16760152375669307 
3.6000000000031727, -0.16400095513622598 
3.6100000000031938, -0.1615303755822161 
3.620000000003215, -0.15979968290773577 
3.630000000003236, -0.15856670558585612 
3.640000000003257, -0.15768691818635686 
3.650000000003278, -0.15708175399912436 
3.6600000000032993, -0.15672185845428696 
3.6700000000033204, -0.15662229673169403 
3.6800000000033415, -0.15684950928569613 
3.6900000000033626, -0.1575433858788951 
3.7000000000033837, -0.15896236760774407 
3.710000000003405, -0.16156321132725654 
3.720000000003426, -0.16611560408236492 
3.730000000003447, -0.17375783510479387 
3.740000000003468, -0.18550837898085176 
3.750000000003489, -0.1999047171296903 
3.7600000000035103, -0.20861808767053022 
3.7700000000035314, -0.19936761733879663 
3.7800000000035525, -0.17299605115075795 
3.7900000000035736, -0.14447628471300586 
3.8000000000035947, -0.12348769320704156 
3.810000000003616, -0.11035983519607954 
3.820000000003637, -0.10252437335691537 
3.830000000003658, -0.0978249503508267 
3.840000000003679, -0.09494567113322763 
3.8500000000037002, -0.09315072477149813 
3.8600000000037213, -0.09203857161046475 
3.8700000000037424, -0.09139574394786547 
3.8800000000037635, -0.091120596153185 
3.8900000000037847, -0.09118816663302733 
3.9000000000038058, -0.09164099531176852 
3.910000000003827, -0.09260161736643745 
3.920000000003848, -0.09431174212947 
3.930000000003869, -0.09721410909593257 
3.94000000000389, -0.10210672512928835 
3.9500000000039113, -0.11039988014374509 
3.9600000000039324, -0.12439754696059543 
3.9700000000039535, -0.1469754766942292 
3.9800000000039746, -0.1788519146772087 
3.9900000000039957, -0.21339771393916615 
4.000000000004016, -0.23874031769377707 
4.010000000003993, -0.2504486678743494 
4.02000000000397, -0.25342930614252546 
4.030000000003946, -0.2531791998717031 
4.040000000003923, -0.25230658466587397 
4.0500000000039, -0.25158036919970767 
4.0600000000038765, -0.25110735054208816 
4.070000000003853, -0.2508329793267384 
4.08000000000383, -0.25069059783920905 
4.090000000003807, -0.2506329512574399 
4.100000000003783, -0.25063322048533354 
4.11000000000376, -0.25068134727005653 
4.120000000003737, -0.25078201525180344 
4.130000000003713, -0.25095526403252894 
4.14000000000369, -0.25123916696680454 
4.150000000003667, -0.25169328883033937 
4.1600000000036434, -0.2524011150345869 
4.17000000000362, -0.25346896097873606 
4.180000000003597, -0.2550168379870019 
4.1900000000035735, -0.25715243044121017 
4.20000000000355, -0.25991743053092814 
4.210000000003527, -0.26321201964750973 
4.220000000003504, -0.26674959775544715 
4.23000000000348, -0.27012160735413776 
4.240000000003457, -0.2729681476975259 
4.250000000003434, -0.27511737112676476 
4.26000000000341, -0.2765866948193412 
4.270000000003387, -0.27749191677334145 
4.280000000003364, -0.27796111176015026 
4.2900000000033405, -0.27809149011985757 
4.300000000003317, -0.27793815946286227 
4.310000000003294, -0.2775162073668986 
4.320000000003271, -0.2768068268724226 
4.330000000003247, -0.2757675937010585 
4.340000000003224, -0.2743528634401826 
4.350000000003201, -0.2725494741879012 
4.360000000003177, -0.2704190663414397 
4.370000000003154, -0.2681158254774957 
4.380000000003131, -0.26584956362918477 
4.390000000003107, -0.2638102173080414 
4.400000000003084, -0.2621095256417646 
4.410000000003061, -0.2607722024727671 
4.4200000000030375, -0.25976111016740006 
4.430000000003014, -0.2590078812610199 
4.440000000002991, -0.2584355451878511 
4.450000000002968, -0.2579727341117018 
4.460000000002944, -0.2575616116872056 
4.470000000002921, -0.25716039431953813 
4.480000000002898, -0.25674130724940314 
4.490000000002874, -0.2562856775021625 
4.500000000002851, -0.25577770944276224 
4.510000000002828, -0.2551968086343329 
4.520000000002804, -0.2545051281991226 
4.530000000002781, -0.25362065432242037 
4.540000000002758, -0.2523515794242954 
4.5500000000027345, -0.25023766279647836 
4.560000000002711, -0.2462148175657485 
4.570000000002688, -0.23815809987137548 
4.580000000002665, -0.2231495702191586 
4.590000000002641, -0.2002108929855159 
4.600000000002618, -0.17364963475637996 
4.610000000002595, -0.15022959468527827 
4.620000000002571, -0.13324404987119737 
4.630000000002548, -0.12211461374581063 
4.640000000002525, -0.11505376345135496 
4.6500000000025015, -0.11054732566004925 
4.660000000002478, -0.10760616155175318 
4.670000000002455, -0.1056371950557288 
4.6800000000024315, -0.10429483620215904 
4.690000000002408, -0.10338218332979277 
4.700000000002385, -0.10279480363952638 
4.710000000002362, -0.10249238770760323 
4.720000000002338, -0.10248926230094821 
4.730000000002315, -0.10286098766160927 
4.740000000002292, -0.10377005895461582 
4.750000000002268, -0.1055198182675137 
4.760000000002245, -0.10864903453805279 
4.770000000002222, -0.11405580213129776 
4.7800000000021985, -0.12297622115165016 
4.790000000002175, -0.13601966667723475 
4.800000000002152, -0.1495338074226629 
4.810000000002129, -0.15151879344396163 
4.820000000002105, -0.13188885097783104 
4.830000000002082, -0.10041551067214712 
4.840000000002059, -0.07341131817528014 
4.850000000002035, -0.055801573270496604 
4.860000000002012, -0.045362681588756386 
4.870000000001989, -0.039232553724562684 
