t, s[1].omega / s[0].omega 
0, -0.6299977170440644 
0.009999999999999995, -0.6297673994024322 
0.019999999999999934, -0.6295284257368642 
0.029999999999999874, -0.6292692355331381 
0.04000000000000012, -0.6289768961931965 
0.050000000000000405, -0.6286426034174708 
0.06000000000000069, -0.6282647249671641 
0.07000000000000098, -0.6278492763144523 
0.08000000000000126, -0.6274094488510971 
0.09000000000000155, -0.6269660205172992 
0.10000000000000184, -0.6265497809238258 
0.11000000000000212, -0.626206389562821 
0.12000000000000241, -0.6260036378025816 
0.130000000000002, -0.6260406774517294 
0.1400000000000009, -0.626458019317788 
0.1499999999999998, -0.6274455313682388 
0.1599999999999987, -0.6292426682062541 
0.1699999999999976, -0.6321202068431958 
0.1799999999999965, -0.6363270202676051 
0.1899999999999954, -0.6419863765159424 
0.1999999999999943, -0.6489525841343236 
0.2099999999999932, -0.6567056036359661 
0.2199999999999921, -0.6644196278076164 
0.229999999999991, -0.6712561977987536 
0.2399999999999899, -0.6766975947623373 
0.2499999999999888, -0.6806591674801943 
0.2599999999999877, -0.6833542049763084 
0.2699999999999866, -0.6850936826975149 
0.2799999999999855, -0.6861587974433154 
0.2899999999999844, -0.6867581521535517 
0.2999999999999833, -0.6870297755423451 
0.3099999999999822, -0.6870558966951745 
0.3199999999999811, -0.6868761280629869 
0.32999999999998, -0.6864949235818589 
0.3399999999999789, -0.6858829419274741 
0.3499999999999778, -0.6849731656835926 
0.35999999999997667, -0.6836541829045849 
0.36999999999997557, -0.6817671936219515 
0.37999999999997447, -0.6791210352063233 
0.38999999999997337, -0.6755454138035977 
0.39999999999997227, -0.6709883000699459 
0.40999999999997117, -0.6656137677180975 
0.41999999999997006, -0.659811896066589 
0.42999999999996896, -0.6540798059072876 
0.43999999999996786, -0.6488515016218412 
0.44999999999996676, -0.644392067564133 
0.45999999999996566, -0.6407913405215041 
0.46999999999996456, -0.6380146615886751 
0.47999999999996346, -0.6359607860975373 
0.48999999999996235, -0.6345040549554711 
0.49999999999996125, -0.6335189550445823 
0.5099999999999602, -0.6328923618162371 
0.519999999999959, -0.632528577360877 
0.529999999999958, -0.6323503835939479 
0.5399999999999568, -0.6322978960143667 
0.5499999999999557, -0.6323262959660579 
0.5599999999999546, -0.6324032349381488 
0.5699999999999535, -0.6325065317209095 
0.5799999999999524, -0.6326225183906208 
0.5899999999999513, -0.6327449236647877 
0.5999999999999502, -0.6328735668304108 
0.6099999999999491, -0.6330117563483638 
0.619999999999948, -0.6331617744365248 
0.6299999999999469, -0.6333193976480983 
0.6399999999999458, -0.6334701368450285 
0.6499999999999447, -0.6335900714108678 
0.6599999999999436, -0.6336518410268936 
0.6699999999999425, -0.6336328374531248 
0.6799999999999414, -0.6335210402657208 
0.6899999999999403, -0.6333160036833029 
0.6999999999999392, -0.6330261474092587 
0.7099999999999381, -0.6326654096656762 
0.719999999999937, -0.6322518005433113 
0.7299999999999359, -0.6318090871586299 
0.7399999999999348, -0.6313721134332029 
0.7499999999999337, -0.6309962200072402 
0.7599999999999326, -0.6307712914146101 
0.7699999999999315, -0.6308402783812236 
0.7799999999999304, -0.6314194422860183 
0.7899999999999293, -0.632811305427899 
0.7999999999999282, -0.6353898164666065 
0.8099999999999271, -0.6395236816449225 
0.819999999999926, -0.6454075063171261 
0.8299999999999249, -0.6528336935935546 
0.8399999999999238, -0.6610713904317161 
0.8499999999999227, -0.6690659370753363 
0.8599999999999216, -0.6759083138488424 
0.8699999999999205, -0.6811859351518033 
0.8799999999999194, -0.6849597772606375 
0.8899999999999183, -0.6875248114038917 
0.8999999999999172, -0.6892057095584729 
0.9099999999999161, -0.6902664876944499 
0.919999999999915, -0.6908949693604 
0.9299999999999139, -0.6912147415035116 
0.9399999999999128, -0.691300834103824 
0.9499999999999117, -0.6911914449888626 
0.9599999999999106, -0.6908944242173497 
0.9699999999999095, -0.6903891043838251 
0.9799999999999084, -0.6896248439725378 
0.9899999999999073, -0.6885191624244117 
0.9999999999999062, -0.6869615687532244 
1.0099999999999052, -0.6848331351412645 
1.019999999999904, -0.6820505085527058 
1.029999999999903, -0.6786264141315345 
1.039999999999902, -0.6747101863449319 
1.0499999999999008, -0.6705662843636004 
1.0599999999998997, -0.6664935018719099 
1.0699999999998986, -0.6627388287938508 
1.0799999999998975, -0.6594546187538806 
1.0899999999998964, -0.6567026447998174 
1.0999999999998953, -0.6544805921210647 
1.1099999999998942, -0.6527492161062907 
1.119999999999893, -0.6514515198504826 
1.129999999999892, -0.6505240739370619 
1.1399999999998909, -0.649903314667821 
1.1499999999998898, -0.6495292560098445 
1.1599999999998887, -0.649347905888487 
1.1699999999998876, -0.6493128228720609 
1.1799999999998865, -0.6493859011023203 
1.1899999999998854, -0.6495374822439366 
1.1999999999998843, -0.6497460038571434 
1.2099999999998832, -0.6499973685775459 
1.219999999999882, -0.6502839360579259 
1.229999999999881, -0.6506026010759024 
1.2399999999998799, -0.6509512496319415 
1.2499999999998788, -0.6513235590495544 
1.2599999999998777, -0.6517037301721234 
1.2699999999998766, -0.6520642820455574 
1.2799999999998755, -0.6523696439472787 
1.2899999999998744, -0.6525850182583035 
1.2999999999998733, -0.6526859295653636 
1.3099999999998722, -0.6526631024571414 
1.319999999999871, -0.6525209986229336 
1.32999999999987, -0.6522727146815002 
1.3399999999998689, -0.6519352149636293 
1.3499999999998678, -0.6515274345560295 
1.3599999999998666, -0.6510721218095833 
1.3699999999998655, -0.6506017069167812 
1.3799999999998644, -0.6501687348898499 
1.3899999999998633, -0.6498616506983492 
1.3999999999998622, -0.6498259476861613 
1.4099999999998611, -0.6502874109920493 
1.41999999999986, -0.6515662880305475 
1.429999999999859, -0.6540573496432402 
1.4399999999998578, -0.6581368034162405 
1.4499999999998567, -0.6639694238167629 
1.4599999999998556, -0.6712744268659664 
1.4699999999998545, -0.6792497775176558 
1.4799999999998534, -0.6868447469829316 
1.4899999999998523, -0.6932392469273265 
1.4999999999998512, -0.6981205476922455 
1.5099999999998501, -0.7015969951274104 
1.519999999999849, -0.7039598362043674 
1.529999999999848, -0.7055091158647471 
1.5399999999998468, -0.7064842474192086 
1.5499999999998457, -0.7070550060410955 
1.5599999999998446, -0.7073330204301337 
1.5699999999998435, -0.707385322321979 
1.5799999999998424, -0.707244138109918 
1.5899999999998413, -0.7069118960052091 
1.5999999999998402, -0.7063618844859912 
1.6099999999998391, -0.7055358469962292 
1.619999999999838, -0.7043416224823081 
1.629999999999837, -0.7026576706495853 
1.6399999999998358, -0.7003556266755205 
1.6499999999998347, -0.6973498193815196 
1.6599999999998336, -0.6936631398681479 
1.6699999999998325, -0.6894676456389546 
1.6799999999998314, -0.6850558485874656 
1.6899999999998303, -0.6807504837444761 
1.6999999999998292, -0.6768132115411472 
1.709999999999828, -0.6734018474730943 
1.719999999999827, -0.6705766744940508 
1.729999999999826, -0.6683290577184925 
1.7399999999998248, -0.6666101433728866 
1.7499999999998237, -0.6653513476787213 
1.7599999999998226, -0.6644770260609079 
1.7699999999998215, -0.6639121173984596 
1.7799999999998204, -0.6635869553310944 
1.7899999999998193, -0.6634402904573565 
1.7999999999998182, -0.6634208696238018 
1.809999999999817, -0.6634877759186375 
1.819999999999816, -0.6636098834729051 
1.8299999999998149, -0.663764912074144 
1.8399999999998138, -0.6639384578526151 
1.8499999999998127, -0.6641229561568165 
1.8599999999998116, -0.6643159696296996 
1.8699999999998105, -0.6645169903682849 
1.8799999999998094, -0.6647226928875718 
1.8899999999998083, -0.664922212441288 
1.8999999999998072, -0.6650953108567716 
1.909999999999806, -0.6652155529722465 
1.919999999999805, -0.6652575751372609 
1.9299999999998039, -0.6652044649836497 
1.9399999999998028, -0.665051272815284 
1.9499999999998017, -0.6648038758671121 
1.9599999999998006, -0.6644755977165518 
1.9699999999997995, -0.6640846801040772 
1.9799999999997984, -0.6636545560860079 
1.9899999999997973, -0.6632176758113485 
1.9999999999997962, -0.66282315241432 
2.0099999999998173, -0.6625483768898154 
2.0199999999998384, -0.662514259214806 
2.0299999999998595, -0.6629020897955985 
2.0399999999998806, -0.6639663010501742 
2.0499999999999017, -0.6660308451916552 
2.059999999999923, -0.669448131624385 
2.069999999999944, -0.6744950789677566 
2.079999999999965, -0.6812007852119075 
2.089999999999986, -0.6891712525464305 
2.100000000000007, -0.6975715140777624 
2.1100000000000283, -0.7053932479308764 
2.1200000000000494, -0.711875554094502 
2.1300000000000705, -0.7167459523142121 
2.1400000000000916, -0.7201418024291507 
2.1500000000001127, -0.7223828558557243 
2.160000000000134, -0.7237942322285729 
2.170000000000155, -0.7246316211382441 
2.180000000000176, -0.725071483948981 
2.190000000000197, -0.725224739603752 
2.2000000000002182, -0.7251525593462546 
2.2100000000002393, -0.7248770563804181 
2.2200000000002604, -0.7243854906541601 
2.2300000000002815, -0.7236282958736352 
2.2400000000003026, -0.7225120840259834 
2.2500000000003237, -0.720891215128589 
2.260000000000345, -0.7185677688462182 
2.270000000000366, -0.7153196014620284 
2.280000000000387, -0.710979058104783 
2.290000000000408, -0.705555878638816 
2.3000000000004293, -0.6993315605332439 
2.3100000000004504, -0.6928234275339833 
2.3200000000004715, -0.6866108774607953 
2.3300000000004926, -0.6811455332699914 
2.3400000000005137, -0.6766621517909572 
2.3500000000005348, -0.6731979749949463 
2.360000000000556, -0.6706610584910243 
2.370000000000577, -0.6688971521830864 
2.380000000000598, -0.6677363864138157 
2.390000000000619, -0.6670201630982858 
2.4000000000006403, -0.6666139408274214 
2.4100000000006614, -0.6664110443973892 
2.4200000000006825, -0.6663311399348284 
2.4300000000007036, -0.6663159631453154 
2.4400000000007247, -0.66632420961386 
2.450000000000746, -0.6663269624705112 
2.460000000000767, -0.6663045318743973 
2.470000000000788, -0.666245010224795 
2.480000000000809, -0.6661440786690929 
2.49000000000083, -0.6660047347758097 
2.5000000000008513, -0.6658352873078928 
2.5100000000008724, -0.6656449865491327 
2.5200000000008935, -0.6654387764098593 
2.5300000000009146, -0.6652141044899115 
2.5400000000009357, -0.6649618848789819 
2.550000000000957, -0.6646710411287349 
2.560000000000978, -0.6643338419517357 
2.570000000000999, -0.6639493527668037 
2.58000000000102, -0.6635243728809488 
2.5900000000010412, -0.6630731691487265 
2.6000000000010624, -0.6626177993667348 
2.6100000000010835, -0.6621901638697218 
2.6200000000011046, -0.6618360490364769 
2.6300000000011257, -0.6616207637223884 
2.6400000000011468, -0.6616354363041231 
2.650000000001168, -0.6620024315438942 
2.660000000001189, -0.6628775143808989 
2.67000000000121, -0.6644451571906262 
2.680000000001231, -0.6669015307182082 
2.6900000000012523, -0.6704175937107847 
2.7000000000012734, -0.6750752575446912 
2.7100000000012945, -0.6807809514564714 
2.7200000000013156, -0.687192257184173 
2.7300000000013367, -0.6937311448335165 
2.740000000001358, -0.6997399591774742 
2.750000000001379, -0.7047184817064788 
2.7600000000014, -0.7084746212525249 
2.770000000001421, -0.7110944584181718 
2.780000000001442, -0.7128046024004826 
2.7900000000014633, -0.7138476265783879 
2.8000000000014844, -0.714419982289458 
2.8100000000015055, -0.7146581234949159 
2.8200000000015266, -0.714645358584389 
2.8300000000015477, -0.7144220922923838 
2.840000000001569, -0.7139923102877909 
2.85000000000159, -0.713324123677785 
2.860000000001611, -0.7123438217509381 
2.870000000001632, -0.710923835034895 
2.8800000000016532, -0.708868055485393 
2.8900000000016743, -0.7059067207895972 
2.9000000000016954, -0.7017294203073019 
2.9100000000017165, -0.6960958486160773 
2.9200000000017377, -0.6890263968550392 
2.9300000000017588, -0.6809602337821508 
2.94000000000178, -0.672695829874805 
2.950000000001801, -0.6650884467242725 
2.960000000001822, -0.6587321187535606 
2.970000000001843, -0.6538429900115544 
2.9800000000018643, -0.6503373108820315 
2.9900000000018854, -0.6479748184029496 
3.0000000000019065, -0.6464746790392252 
3.0100000000019276, -0.6455806645717146 
3.0200000000019487, -0.6450867903566361 
3.03000000000197, -0.6448401944321955 
3.040000000001991, -0.6447335550362915 
3.050000000002012, -0.6446942307615559 
3.060000000002033, -0.6446738060285706 
3.070000000002054, -0.6446397031448117 
3.0800000000020753, -0.6445694892251363 
3.0900000000020964, -0.6444480014987164 
3.1000000000021175, -0.6442669773190712 
3.1100000000021386, -0.6440261383303576 
3.1200000000021597, -0.6437337703273933 
3.130000000002181, -0.6434046928212003 
3.140000000002202, -0.6430550891385332 
3.150000000002223, -0.6426963064137862 
3.160000000002244, -0.6423310998368162 
3.1700000000022652, -0.641954418561101 
3.1800000000022863, -0.6415578869682553 
3.1900000000023074, -0.6411351308131964 
3.2000000000023285, -0.6406854436009761 
3.2100000000023496, -0.6402152343064912 
3.2200000000023707, -0.6397383861491651 
3.230000000002392, -0.6392770483130303 
3.240000000002413, -0.6388638243278548 
3.250000000002434, -0.6385455831238325 
3.260000000002455, -0.6383885621005254 
3.2700000000024763, -0.6384839974748467 
3.2800000000024974, -0.6389530133091857 
3.2900000000025185, -0.6399487047543568 
3.3000000000025396, -0.6416519414833369 
3.3100000000025607, -0.6442550504616704 
3.3200000000025818, -0.647924685853322 
3.330000000002603, -0.652735489590222 
3.340000000002624, -0.6585791604226321 
3.350000000002645, -0.6650893948336678 
3.360000000002666, -0.6716639057872286 
3.3700000000026873, -0.6776383164060985 
3.3800000000027084, -0.6825323547288271 
3.3900000000027295, -0.6861879232979484 
3.4000000000027506, -0.6887184660119011 
3.4100000000027717, -0.6903623293725208 
3.420000000002793, -0.6913619057319411 
3.430000000002814, -0.6919084415653839 
3.440000000002835, -0.6921326004567702 
3.450000000002856, -0.6921129553129964 
3.460000000002877, -0.6918863641681419 
3.4700000000028983, -0.6914540740970138 
3.4800000000029194, -0.6907818814971051 
3.4900000000029405, -0.6897941936810615 
3.5000000000029616, -0.688363173847836 
3.5100000000029827, -0.686298144922995 
3.520000000003004, -0.6833500391427357 
3.530000000003025, -0.6792593161553091 
3.540000000003046, -0.673874188557905 
3.550000000003067, -0.6673116393069738 
3.5600000000030882, -0.6600387635297453 
3.5700000000031094, -0.6527530584694038 
3.5800000000031305, -0.6461182162992227 
3.5900000000031516, -0.6405545425036456 
3.6000000000031727, -0.6361968477037576 
3.6100000000031938, -0.6329718699882743 
3.620000000003215, -0.630700977930711 
3.630000000003236, -0.6291766033393232 
3.640000000003257, -0.6282046805836635 
3.650000000003278, -0.6276225905841318 
3.6600000000032993, -0.6273031044865314 
3.6700000000033204, -0.62715142548624 
3.6800000000033415, -0.6270994319232066 
3.6900000000033626, -0.6270994009830573 
3.7000000000033837, -0.6271184863392769 
3.710000000003405, -0.6271346440418811 
3.720000000003426, -0.6271342692791908 
3.730000000003447, -0.6271112918633245 
3.740000000003468, -0.6270667834310013 
3.750000000003489, -0.6270075603100216 
3.7600000000035103, -0.6269425655935045 
3.7700000000035314, -0.6268774112047362 
3.7800000000035525, -0.6268094789357054 
3.7900000000035736, -0.6267265962781375 
3.8000000000035947, -0.6266105360052021 
3.810000000003616, -0.6264435275888262 
3.820000000003637, -0.6262141242264303 
3.830000000003658, -0.6259197800338504 
3.840000000003679, -0.6255662631274553 
3.8500000000037002, -0.6251660129152057 
3.8600000000037213, -0.6247376560112636 
3.8700000000037424, -0.624308008522686 
3.8800000000037635, -0.6239171488412891 
3.8900000000037847, -0.6236268410372585 
3.9000000000038058, -0.6235323667691574 
3.910000000003827, -0.6237770831018168 
3.920000000003848, -0.624566986551566 
3.930000000003869, -0.6261781505591826 
3.94000000000389, -0.6289420805454601 
3.9500000000039113, -0.6331843282779952 
3.9600000000039324, -0.6390915395261355 
3.9700000000039535, -0.6465204950563486 
3.9800000000039746, -0.6548609201194814 
3.9900000000039957, -0.6631391925724344 
4.000000000004016, -0.6704046720933695 
4.010000000003993, -0.6761207101058264 
4.02000000000397, -0.6802476839528852 
4.030000000003946, -0.6830501927508718 
4.040000000003923, -0.6848704606368814 
4.0500000000039, -0.6860034412808396 
4.0600000000038765, -0.6866631749707784 
4.070000000003853, -0.6869906510030283 
4.08000000000383, -0.6870709921418893 
4.090000000003807, -0.6869475364440856 
4.100000000003783, -0.6866299579015724 
4.11000000000376, -0.686096698292504 
4.120000000003737, -0.6852929705237432 
4.130000000003713, -0.684127006842311 
4.14000000000369, -0.6824706988221325 
4.150000000003667, -0.6801762820747317 
4.1600000000036434, -0.677122691844914 
4.17000000000362, -0.6732902138612337 
4.180000000003597, -0.6688251369930492 
4.1900000000035735, -0.6640338033612563 
4.20000000000355, -0.6592898342852249 
4.210000000003527, -0.6549159636015698 
4.220000000003504, -0.6511150173694487 
4.23000000000348, -0.6479673228957756 
4.240000000003457, -0.6454646312280448 
4.250000000003434, -0.6435483259880994 
4.26000000000341, -0.6421374444761874 
4.270000000003387, -0.6411454460606689 
4.280000000003364, -0.6404892656689827 
4.2900000000033405, -0.6400940086339242 
4.300000000003317, -0.6398952597548848 
4.310000000003294, -0.6398399184303469 
4.320000000003271, -0.6398860061615388 
4.330000000003247, -0.6400018181277521 
4.340000000003224, -0.6401648171288862 
4.350000000003201, -0.6403605681912913 
4.360000000003177, -0.6405816681206135 
4.370000000003154, -0.6408261087028878 
4.380000000003131, -0.6410942079953423 
4.390000000003107, -0.6413837462575581 
4.400000000003084, -0.6416844684509165 
4.410000000003061, -0.641974807934224 
4.4200000000030375, -0.6422237928141 
4.430000000003014, -0.6423984694996646 
4.440000000002991, -0.6424732157244499 
4.450000000002968, -0.6424357103172833 
4.460000000002944, -0.6422870263304783 
4.470000000002921, -0.6420375907591889 
4.480000000002898, -0.6417026820755816 
4.490000000002874, -0.6413002283947439 
4.500000000002851, -0.6408520582475071 
4.510000000002828, -0.6403889890990704 
4.520000000002804, -0.6399602402102064 
4.530000000002781, -0.6396479129256967 
4.540000000002758, -0.6395867552950989 
4.5500000000027345, -0.6399867819956067 
4.560000000002711, -0.6411495298771545 
4.570000000002688, -0.6434559687243305 
4.580000000002665, -0.6472889320827754 
4.590000000002641, -0.6528573321888527 
4.600000000002618, -0.6599597495289621 
4.610000000002595, -0.6678669409120465 
4.620000000002571, -0.6755388171767529 
4.630000000002548, -0.6820993634374323 
4.640000000002525, -0.6871657209838526 
4.6500000000025015, -0.6908045772157172 
4.660000000002478, -0.6932957638611492 
4.670000000002455, -0.6949427879388761 
4.6800000000024315, -0.6959923756481937 
4.690000000002408, -0.6966213188800137 
4.700000000002385, -0.696947196475511 
4.710000000002362, -0.6970422266852905 
4.720000000002338, -0.6969436545625777 
4.730000000002315, -0.6966594986326425 
4.740000000002292, -0.6961700964565437 
4.750000000002268, -0.695426668558608 
4.760000000002245, -0.6943496417239277 
4.770000000002222, -0.6928325924893431 
4.7800000000021985, -0.6907613638588772 
4.790000000002175, -0.6880563821855218 
4.800000000002152, -0.6847302206166401 
4.810000000002129, -0.6809257570495565 
4.820000000002105, -0.6768956562443454 
4.830000000002082, -0.6729261235561089 
4.840000000002059, -0.6692555057618553 
4.850000000002035, -0.6660332577972533 
4.860000000002012, -0.6633228995653695 
4.870000000001989, -0.6611263386441413 
4.880000000001965, -0.6594091700897076 
4.890000000001942, -0.658118715619368 
4.900000000001919, -0.6571948192880915 
4.9100000000018955, -0.6565760294153575 
4.920000000001872, -0.6562034362381277 
