t, s[1].omega / s[0].omega 
0, -0.7399976767741604 
0.009999999999999995, -0.7397507199168418 
0.019999999999999934, -0.7394690760655706 
0.029999999999999874, -0.7391392220421145 
0.04000000000000012, -0.7387480666880876 
0.050000000000000405, -0.7382908952622625 
0.06000000000000069, -0.737775658633179 
0.07000000000000098, -0.7372240371376915 
0.08000000000000126, -0.7366718880252043 
0.09000000000000155, -0.7361710062694706 
0.10000000000000184, -0.735792043324371 
0.11000000000000212, -0.7356266437004761 
0.12000000000000241, -0.7357862393423746 
0.130000000000002, -0.736395819532584 
0.1400000000000009, -0.7375831097718463 
0.1499999999999998, -0.7394656517959389 
0.1599999999999987, -0.7421383959603358 
0.1699999999999976, -0.7456616911314289 
0.1799999999999965, -0.7500453077512794 
0.1899999999999954, -0.7552219692811499 
0.1999999999999943, -0.7610093768678832 
0.2099999999999932, -0.7670782225306955 
0.2199999999999921, -0.7729687274702635 
0.229999999999991, -0.7781943878208096 
0.2399999999999899, -0.7824022235444484 
0.2499999999999888, -0.7854796527966645 
0.2599999999999877, -0.7875312904692965 
0.2699999999999866, -0.7887690657754297 
0.2799999999999855, -0.7894089076357539 
0.2899999999999844, -0.7896183118017629 
0.2999999999999833, -0.7895053011630527 
0.3099999999999822, -0.7891257210031057 
0.3199999999999811, -0.7884945668015899 
0.32999999999998, -0.7875978063532029 
0.3399999999999789, -0.7864091655585878 
0.3499999999999778, -0.784923877478778 
0.35999999999997667, -0.783229616082208 
0.36999999999997557, -0.7816365170260817 
0.37999999999997447, -0.7808568359319731 
0.38999999999997337, -0.7821154766035292 
0.39999999999997227, -0.7869013353168678 
0.40999999999997117, -0.7961158235494995 
0.41999999999997006, -0.8090694194437468 
0.42999999999996896, -0.8235089803599251 
0.43999999999996786, -0.8369281594392423 
0.44999999999996676, -0.8477922408016655 
0.45999999999996566, -0.8557409340982012 
0.46999999999996456, -0.8611470959469409 
0.47999999999996346, -0.8646325418593662 
0.48999999999996235, -0.8667802486927852 
0.49999999999996125, -0.8680304292219555 
0.5099999999999602, -0.8686763073422081 
0.519999999999959, -0.8688926345932344 
0.529999999999958, -0.8687634280852261 
0.5399999999999568, -0.8682966283366917 
0.5499999999999557, -0.8674213524290465 
0.5599999999999546, -0.8659641071514669 
0.5699999999999535, -0.8635995626034427 
0.5799999999999524, -0.8597776836922151 
0.5899999999999513, -0.8536599169681172 
0.5999999999999502, -0.8441755145168482 
0.6099999999999491, -0.8303980217102354 
0.619999999999948, -0.8123131855043331 
0.6299999999999469, -0.7914752003306726 
0.6399999999999458, -0.7706653563022949 
0.6499999999999447, -0.7525662901572707 
0.6599999999999436, -0.7386425978638052 
0.6699999999999425, -0.7290086191464115 
0.6799999999999414, -0.7229477505007714 
0.6899999999999403, -0.7194773357480274 
0.6999999999999392, -0.7176937460906749 
0.7099999999999381, -0.7169066612163586 
0.719999999999937, -0.7166478885297469 
0.7299999999999359, -0.716626513044875 
0.7399999999999348, -0.7166727690853966 
0.7499999999999337, -0.7166899197090085 
0.7599999999999326, -0.7166195983922095 
0.7699999999999315, -0.716419840839615 
0.7799999999999304, -0.7160537321542011 
0.7899999999999293, -0.7154875108959671 
0.7999999999999282, -0.7146974160112753 
0.8099999999999271, -0.7136821114793459 
0.819999999999926, -0.7124725110537329 
0.8299999999999249, -0.7111291818858606 
0.8399999999999238, -0.7097253804049264 
0.8499999999999227, -0.7083257352242812 
0.8599999999999216, -0.7069734292028318 
0.8699999999999205, -0.7056903880498314 
0.8799999999999194, -0.7044859701421924 
0.8899999999999183, -0.7033671941608993 
0.8999999999999172, -0.7023460981554351 
0.9099999999999161, -0.7014431560554664 
0.919999999999915, -0.7006874599397788 
0.9299999999999139, -0.7001146318766297 
0.9399999999999128, -0.6997632041105385 
0.9499999999999117, -0.699670244902176 
0.9599999999999106, -0.6998672977657686 
0.9699999999999095, -0.7003778040369257 
0.9799999999999084, -0.7012167523108335 
0.9899999999999073, -0.7023923740084289 
0.9999999999999062, -0.7039085734403303 
1.0099999999999052, -0.7057657306075179 
1.019999999999904, -0.7079567991364561 
1.029999999999903, -0.7104558707372753 
1.039999999999902, -0.7131991465275077 
1.0499999999999008, -0.7160654489571553 
1.0599999999998997, -0.7188732878950772 
1.0699999999998986, -0.7214125341833353 
1.0799999999998975, -0.7235063769233396 
1.0899999999998964, -0.7250660862385748 
1.0999999999998953, -0.7261004241411941 
1.1099999999998942, -0.7266814934422637 
1.119999999999893, -0.7268995756312223 
1.129999999999892, -0.726832431149973 
1.1399999999998909, -0.726533356533318 
1.1499999999998898, -0.7260316933162138 
1.1599999999998887, -0.7253404208652988 
1.1699999999998876, -0.7244707219447155 
1.1799999999998865, -0.7234593561409548 
1.1899999999998854, -0.722420557116501 
1.1999999999998843, -0.7216371951667432 
1.2099999999998832, -0.7216945635644315 
1.219999999999882, -0.723607244230177 
1.229999999999881, -0.7287671445443719 
1.2399999999998799, -0.7384223325021573 
1.2499999999998788, -0.7526358452347683 
1.2599999999998777, -0.7695582524696889 
1.2699999999998766, -0.7862094239858078 
1.2799999999998755, -0.8002407830460401 
1.2899999999998744, -0.8108070775238945 
1.2999999999998733, -0.8181792996062681 
1.3099999999998722, -0.8230620807532407 
1.319999999999871, -0.8261730793152962 
1.32999999999987, -0.8280827277395097 
1.3399999999998689, -0.8291909257919604 
1.3499999999998678, -0.829754574033187 
1.3599999999998666, -0.8299229140706978 
1.3699999999998655, -0.829763653232099 
1.3799999999998644, -0.8292747172147188 
1.3899999999998633, -0.828379848815161 
1.3999999999998622, -0.8269061154090342 
1.4099999999998611, -0.824542648411901 
1.41999999999986, -0.8207911135984028 
1.429999999999859, -0.8149535766890391 
1.4399999999998578, -0.8062633684826089 
1.4499999999998567, -0.794269869383336 
1.4599999999998556, -0.7793654948704687 
1.4699999999998545, -0.7629737926121614 
1.4799999999998534, -0.7470354235619137 
1.4899999999998523, -0.7331709053704563 
1.4999999999998512, -0.7222014116736164 
1.5099999999998501, -0.7141953594720598 
1.519999999999849, -0.7087612778677941 
1.529999999999848, -0.7053273413903428 
1.5399999999998468, -0.7033207736827907 
1.5499999999998457, -0.7022565758433134 
1.5599999999998446, -0.7017660094911079 
1.5699999999998435, -0.7015906242835172 
1.5799999999998424, -0.7015602077543537 
1.5899999999998413, -0.7015668002310724 
1.5999999999998402, -0.7015417155347056 
1.6099999999998391, -0.7014386801523008 
1.619999999999838, -0.701224067915111 
1.629999999999837, -0.7008742238400031 
1.6399999999998358, -0.7003786860213396 
1.6499999999998347, -0.6997456664006707 
1.6599999999998336, -0.6990037150784023 
1.6699999999998325, -0.6981948792668582 
1.6799999999998314, -0.6973611642597265 
1.6899999999998303, -0.6965320885318684 
1.6999999999998292, -0.695720273562736 
1.709999999999828, -0.694925858269325 
1.719999999999827, -0.6941453995916459 
1.729999999999826, -0.6933801825069307 
1.7399999999998248, -0.6926413934071621 
1.7499999999998237, -0.6919524497442903 
1.7599999999998226, -0.6913498730764912 
1.7699999999998215, -0.6908834960997986 
1.7799999999998204, -0.6906157746910362 
1.7899999999998193, -0.6906195623784578 
1.7999999999998182, -0.6909741427424789 
1.809999999999817, -0.6917602063070731 
1.819999999999816, -0.6930550507635173 
1.8299999999998149, -0.6949288705738115 
1.8399999999998138, -0.6974413344719473 
1.8499999999998127, -0.7006350992219216 
1.8599999999998116, -0.7045205422322833 
1.8699999999998105, -0.7090462255224188 
1.8799999999998094, -0.7140572372558067 
1.8899999999998083, -0.7192631851265392 
1.8999999999998072, -0.7242595841574079 
1.909999999999806, -0.7286325656471935 
1.919999999999805, -0.732102609921678 
1.9299999999998039, -0.7346027051675479 
1.9399999999998028, -0.7362404569903093 
1.9499999999998017, -0.7371990618238132 
1.9599999999998006, -0.7376549198121494 
1.9699999999997995, -0.7377393830912246 
1.9799999999997984, -0.7375318174468324 
1.9899999999997973, -0.7370647245727021 
1.9999999999997962, -0.7363297287697319 
2.0099999999998173, -0.7352809184915766 
2.0199999999998384, -0.7338366925299555 
2.0299999999998595, -0.7318844359544426 
2.0399999999998806, -0.7292941257339478 
2.0499999999999017, -0.7259420533136731 
2.059999999999923, -0.7217229566524207 
2.069999999999944, -0.7164971335043362 
2.079999999999965, -0.7099879600766735 
2.089999999999986, -0.701939774805113 
2.100000000000007, -0.6928191630694076 
2.1100000000000283, -0.6841968718598553 
2.1200000000000494, -0.677748754832674 
2.1300000000000705, -0.6740360942312663 
2.1400000000000916, -0.6725294860551652 
2.1500000000001127, -0.6723481921962763 
2.160000000000134, -0.6727721760677093 
2.170000000000155, -0.6733642629953112 
2.180000000000176, -0.6739073786136547 
2.190000000000197, -0.6743126996963398 
2.2000000000002182, -0.674551929823723 
2.2100000000002393, -0.6746172349396804 
2.2200000000002604, -0.6744997062121869 
2.2300000000002815, -0.6741781988150124 
2.2400000000003026, -0.6736145299527102 
2.2500000000003237, -0.6727553439781663 
2.260000000000345, -0.6715441752837564 
2.270000000000366, -0.6699462160269948 
2.280000000000387, -0.6679789912867831 
2.290000000000408, -0.6657288434070578 
2.3000000000004293, -0.6633343289851206 
2.3100000000004504, -0.660942785580072 
2.3200000000004715, -0.6586694304716829 
2.3300000000004926, -0.6565814002380206 
2.3400000000005137, -0.6547054817189222 
2.3500000000005348, -0.653045566210862 
2.360000000000556, -0.6515983340098577 
2.370000000000577, -0.6503627595907147 
2.380000000000598, -0.6493437646858079 
2.390000000000619, -0.6485519664464315 
2.4000000000006403, -0.6480014148965499 
2.4100000000006614, -0.6477067443815437 
2.4200000000006825, -0.6476807849526636 
2.4300000000007036, -0.6479333755253129 
2.4400000000007247, -0.648471741944612 
2.450000000000746, -0.6493022937591346 
2.460000000000767, -0.6504330864281356 
2.470000000000788, -0.6518755021108088 
2.480000000000809, -0.6536428970083509 
2.49000000000083, -0.6557432372337221 
2.5000000000008513, -0.6581630429497063 
2.5100000000008724, -0.6608434309029548 
2.5200000000008935, -0.6636579122467383 
2.5300000000009146, -0.6664126392986317 
2.5400000000009357, -0.6688875470903441 
2.550000000000957, -0.6709067249392893 
2.560000000000978, -0.6723918553290159 
2.570000000000999, -0.6733626775768224 
2.58000000000102, -0.6738959965682154 
2.5900000000010412, -0.674079874803517 
2.6000000000010624, -0.6739851826497432 
2.6100000000010835, -0.6736548236895908 
2.6200000000011046, -0.673102505220801 
2.6300000000011257, -0.6723145426601663 
2.6400000000011468, -0.6712520982850934 
2.650000000001168, -0.6698542069222898 
2.660000000001189, -0.6680430213965313 
2.67000000000121, -0.6657291995389751 
2.680000000001231, -0.6627996698550015 
2.6900000000012523, -0.6590373755483758 
2.7000000000012734, -0.6539247579865529 
2.7100000000012945, -0.6465124599289647 
2.7200000000013156, -0.6359877550771951 
2.7300000000013367, -0.6230485896516067 
2.740000000001358, -0.6102165796827952 
2.750000000001379, -0.5999949289561517 
2.7600000000014, -0.5932526378247129 
2.770000000001421, -0.5894574238615521 
2.780000000001442, -0.5876299024396715 
2.7900000000014633, -0.5869273444702601 
2.8000000000014844, -0.5867885725664719 
2.8100000000015055, -0.5868867283466259 
2.8200000000015266, -0.5870465740435958 
2.8300000000015477, -0.5871787411566693 
2.840000000001569, -0.587237442994594 
2.85000000000159, -0.5871958835750937 
2.860000000001611, -0.5870332347868172 
2.870000000001632, -0.5867295245646603 
2.8800000000016532, -0.5862670446126254 
2.8900000000016743, -0.5856375155358737 
2.9000000000016954, -0.5848521734048472 
2.9100000000017165, -0.5839481230011214 
2.9200000000017377, -0.5829836036723013 
2.9300000000017588, -0.582021594624202 
2.94000000000178, -0.581110682163828 
2.950000000001801, -0.580274055330433 
2.960000000001822, -0.5795106021785998 
2.970000000001843, -0.5788045175482681 
2.9800000000018643, -0.5781370915040522 
2.9900000000018854, -0.577495835281111 
3.0000000000019065, -0.5768793919226114 
3.0100000000019276, -0.5762995573835894 
3.0200000000019487, -0.5757828474287274 
3.03000000000197, -0.5753735764105736 
3.040000000001991, -0.5751394587478134 
3.050000000002012, -0.5751800733562462 
3.060000000002033, -0.5756382449339253 
3.070000000002054, -0.5767142074326294 
3.0800000000020753, -0.5786817617087971 
3.0900000000020964, -0.5819033315988336 
3.1000000000021175, -0.5868343827595642 
3.1100000000021386, -0.5939932468489709 
3.1200000000021597, -0.6038490446028619 
3.130000000002181, -0.6165684293597705 
3.140000000002202, -0.631635583460709 
3.150000000002223, -0.6476031306548921 
3.160000000002244, -0.6624346544016645 
3.1700000000022652, -0.6744598184646036 
3.1800000000022863, -0.6831124751212345 
3.1900000000023074, -0.6888058829503722 
3.2000000000023285, -0.6923336611118623 
3.2100000000023496, -0.6944243018530492 
3.2200000000023707, -0.6955956120320081 
3.230000000002392, -0.6961707056488996 
3.240000000002413, -0.6963323103708885 
3.250000000002434, -0.6961664797540041 
3.260000000002455, -0.6956859240228622 
3.2700000000024763, -0.6948339056300926 
3.2800000000024974, -0.6934698047637144 
3.2900000000025185, -0.6913370962221234 
3.3000000000025396, -0.6880220140666815 
3.3100000000025607, -0.6829394452356771 
3.3200000000025818, -0.6754366534118122 
3.330000000002603, -0.6651216701406925 
3.340000000002624, -0.6523320817788525 
3.350000000002645, -0.6383001488828047 
3.360000000002666, -0.6246656383502575 
3.3700000000026873, -0.612723809805664 
3.3800000000027084, -0.6030631513625498 
3.3900000000027295, -0.5956841950226184 
3.4000000000027506, -0.590281818121255 
3.4100000000027717, -0.5864617400728556 
3.420000000002793, -0.5838503069363761 
3.430000000002814, -0.5821335819168512 
3.440000000002835, -0.5810629285996164 
3.450000000002856, -0.5804482203216612 
3.460000000002877, -0.5801478905595773 
3.4700000000028983, -0.5800591548801067 
3.4800000000029194, -0.5801094770659753 
3.4900000000029405, -0.5802496935627636 
3.5000000000029616, -0.5804490382235904 
3.5100000000029827, -0.580692070468104 
3.520000000003004, -0.5809769184054219 
3.530000000003025, -0.5813133138905553 
3.540000000003046, -0.5817181884464957 
3.550000000003067, -0.5822071502555641 
3.5600000000030882, -0.5827825479085429 
3.5700000000031094, -0.5834222926270074 
3.5800000000031305, -0.5840761726554881 
3.5900000000031516, -0.5846750681824993 
3.6000000000031727, -0.585151103205914 
3.6100000000031938, -0.5854576537740913 
3.620000000003215, -0.5855774779786188 
3.630000000003236, -0.5855171031622454 
3.640000000003257, -0.585294960037096 
3.650000000003278, -0.5849314269876424 
3.6600000000032993, -0.5844444915825138 
3.6700000000033204, -0.5838514745888976 
3.6800000000033415, -0.5831770809813805 
3.6900000000033626, -0.5824698239049304 
3.7000000000033837, -0.5818310451592535 
3.710000000003405, -0.5814607953094331 
3.720000000003426, -0.5817154755243533 
3.730000000003447, -0.5831355025594742 
3.740000000003468, -0.5863157141821358 
3.750000000003489, -0.5914171082425936 
3.7600000000035103, -0.5974056656882314 
3.7700000000035314, -0.6020522667308463 
3.7800000000035525, -0.6036965190559367 
3.7900000000035736, -0.6028814139054978 
3.8000000000035947, -0.6013900411377108 
3.810000000003616, -0.6004251809156569 
3.820000000003637, -0.6002084379169551 
3.830000000003658, -0.6004923796622426 
3.840000000003679, -0.6009854802356123 
3.8500000000037002, -0.6014934231824414 
3.8600000000037213, -0.6019167507465667 
3.8700000000037424, -0.6022143911897117 
3.8800000000037635, -0.6023724218812789 
3.8900000000037847, -0.6023843510715173 
3.9000000000038058, -0.6022402304286784 
3.910000000003827, -0.6019217555628071 
3.920000000003848, -0.6014025959868193 
3.930000000003869, -0.6006550830303977 
3.94000000000389, -0.5996640860319722 
3.9500000000039113, -0.5984443833749664 
3.9600000000039324, -0.597050829685292 
3.9700000000039535, -0.5955700455622611 
3.9800000000039746, -0.594094805983419 
3.9900000000039957, -0.5926969401845852 
4.000000000004016, -0.591414276571949 
4.010000000003993, -0.590254237778175 
4.02000000000397, -0.5892066200800532 
4.030000000003946, -0.5882571035530673 
4.040000000003923, -0.5873968965734783 
4.0500000000039, -0.5866278915272715 
4.0600000000038765, -0.5859648918236553 
4.070000000003853, -0.5854367956207494 
4.08000000000383, -0.585087926697964 
4.090000000003807, -0.5849799176596346 
4.100000000003783, -0.5851941391462272 
4.11000000000376, -0.5858346204488035 
4.120000000003737, -0.58703144665647 
4.130000000003713, -0.5889442908181187 
4.14000000000369, -0.5917643481199902 
4.150000000003667, -0.595709466237351 
4.1600000000036434, -0.601000729423442 
4.17000000000362, -0.6078004483728283 
4.180000000003597, -0.616091898490254 
4.1900000000035735, -0.625518308288012 
4.20000000000355, -0.6352944075959803 
4.210000000003527, -0.644371136723102 
4.220000000003504, -0.651861924216435 
4.23000000000348, -0.6574038672181537 
4.240000000003457, -0.6611518362785533 
4.250000000003434, -0.6635125459476602 
4.26000000000341, -0.6649007229511203 
4.270000000003387, -0.6656314743270999 
4.280000000003364, -0.6659078749443348 
4.2900000000033405, -0.6658412597746378 
4.300000000003317, -0.6654708543668453 
4.310000000003294, -0.6647713048034828 
4.320000000003271, -0.6636443766693396 
4.330000000003247, -0.6618916994969696 
4.340000000003224, -0.6591663711631445 
4.350000000003201, -0.6549137746751189 
4.360000000003177, -0.6483571598577998 
4.370000000003154, -0.6386692744052208 
4.380000000003131, -0.6254814412787055 
4.390000000003107, -0.6095301171534507 
4.400000000003084, -0.592701863222334 
4.410000000003061, -0.5771270390751594 
4.4200000000030375, -0.5641724913689108 
4.430000000003014, -0.5541980857221348 
4.440000000002991, -0.5469096361717349 
4.450000000002968, -0.5417723255294973 
4.460000000002944, -0.5382519059261044 
4.470000000002921, -0.5359050075455656 
4.480000000002898, -0.5343926177642432 
4.490000000002874, -0.533465868084462 
4.500000000002851, -0.5329462883787884 
4.510000000002828, -0.5327081621815006 
4.520000000002804, -0.532664708348287 
4.530000000002781, -0.5327579404785331 
4.540000000002758, -0.5329516883435733 
4.5500000000027345, -0.533227260552391 
4.560000000002711, -0.5335810646077321 
4.570000000002688, -0.5340229604617943 
4.580000000002665, -0.534573349240965 
4.590000000002641, -0.5352566306634843 
4.600000000002618, -0.536089574623078 
4.610000000002595, -0.5370658618513459 
4.620000000002571, -0.53814237938491 
4.630000000002548, -0.5392369142715547 
4.640000000002525, -0.5402451010975708 
4.6500000000025015, -0.5410720554144228 
4.660000000002478, -0.5416598736855233 
4.670000000002455, -0.5419942567553895 
4.6800000000024315, -0.5420912495642758 
4.690000000002408, -0.5419774249229066 
4.700000000002385, -0.5416741854093908 
4.710000000002362, -0.5411885026303739 
4.720000000002338, -0.5405073346278918 
4.730000000002315, -0.5395916324481058 
4.740000000002292, -0.5383651028810467 
4.750000000002268, -0.5366896051319652 
4.760000000002245, -0.534310002857418 
4.770000000002222, -0.5307353764799455 
4.7800000000021985, -0.5250231849960978 
4.790000000002175, -0.5155620253998154 
4.800000000002152, -0.5003982703377068 
4.810000000002129, -0.47891751717888614 
4.820000000002105, -0.4538235481089831 
4.830000000002082, -0.430038958578643 
4.840000000002059, -0.41110460617163397 
4.850000000002035, -0.39770265692265366 
4.860000000002012, -0.3888230536850199 
4.870000000001989, -0.38312302888592603 
4.880000000001965, -0.37951314628239285 
4.890000000001942, -0.37724444656581796 
4.900000000001919, -0.3758356723742301 
4.9100000000018955, -0.3749860205685297 
4.920000000001872, -0.3745099852132678 
