t, s[1].omega / s[0].omega 
0, -0.36008398548306486 
0.009999999999999995, -0.3690183393344156 
0.019999999999999934, -0.37825958469896453 
0.029999999999999874, -0.3865539739088056 
0.04000000000000012, -0.3930381424961082 
0.050000000000000405, -0.39757399621682465 
0.06000000000000069, -0.400519306392047 
0.07000000000000098, -0.4023480365808217 
0.08000000000000126, -0.4034448328238668 
0.09000000000000155, -0.4040663125506517 
0.10000000000000184, -0.40436746425209125 
0.11000000000000212, -0.4044350017560965 
0.12000000000000241, -0.4043114268133895 
0.130000000000002, -0.40401012545271237 
0.1400000000000009, -0.40352576381780325 
0.1499999999999998, -0.4028445437224398 
0.1599999999999987, -0.4019577706518418 
0.1699999999999976, -0.40087853664575845 
0.1799999999999965, -0.3996547565608115 
0.1899999999999954, -0.39836763262492864 
0.1999999999999943, -0.39711136996550594 
0.2099999999999932, -0.3959648432688036 
0.2199999999999921, -0.39497218202552486 
0.229999999999991, -0.39413998668134975 
0.2399999999999899, -0.39344689544891026 
0.2499999999999888, -0.3928574835428574 
0.2599999999999877, -0.39233474419059716 
0.2699999999999866, -0.3918483767758201 
0.2799999999999855, -0.39137841017961544 
0.2899999999999844, -0.3909154750083983 
0.2999999999999833, -0.3904599124712908 
0.3099999999999822, -0.3900217520243418 
0.3199999999999811, -0.3896230271002756 
0.32999999999998, -0.38930356019144835 
0.3399999999999789, -0.38913124402479465 
0.3499999999999778, -0.3892170138579501 
0.35999999999997667, -0.3897301345969729 
0.36999999999997557, -0.3908932642183766 
0.37999999999997447, -0.39289474990047923 
0.38999999999997337, -0.3955922331652823 
0.39999999999997227, -0.3979464811500637 
0.40999999999997117, -0.3977277614945165 
0.41999999999997006, -0.3928171932631678 
0.42999999999996896, -0.38364992984300095 
0.43999999999996786, -0.3731924438872517 
0.44999999999996676, -0.3641868877280536 
0.45999999999996566, -0.3576216973732557 
0.46999999999996456, -0.353258348779517 
0.47999999999996346, -0.3504952378485463 
0.48999999999996235, -0.348790245540991 
0.49999999999996125, -0.3477581351673381 
0.5099999999999602, -0.3471499736385555 
0.519999999999959, -0.34681191628744534 
0.529999999999958, -0.3466516899565614 
0.5399999999999568, -0.3466163947846631 
0.5499999999999557, -0.34667924833352387 
0.5599999999999546, -0.3468325122547053 
0.5699999999999535, -0.3470845164006632 
0.5799999999999524, -0.34745913018286007 
0.5899999999999513, -0.3479959568331063 
0.5999999999999502, -0.34874901950369674 
0.6099999999999491, -0.34978095107283236 
0.619999999999948, -0.35114897095510594 
0.6299999999999469, -0.35287949912570193 
0.6399999999999458, -0.35493397208763555 
0.6499999999999447, -0.3571829319917728 
0.6599999999999436, -0.3594187076800422 
0.6699999999999425, -0.36142010814063075 
0.6799999999999414, -0.36303249395689186 
0.6899999999999403, -0.3642046096740391 
0.6999999999999392, -0.36496706703460097 
0.7099999999999381, -0.36538605954498493 
0.719999999999937, -0.3655261566146322 
0.7299999999999359, -0.36543125650826697 
0.7399999999999348, -0.36511756197359113 
0.7499999999999337, -0.3645709011008221 
0.7599999999999326, -0.36374456783142833 
0.7699999999999315, -0.3625588275875771 
0.7799999999999304, -0.360909320969273 
0.7899999999999293, -0.35869736455256085 
0.7999999999999282, -0.3558905462212604 
0.8099999999999271, -0.35259165673112103 
0.819999999999926, -0.34905365299113644 
0.8299999999999249, -0.3455979819934034 
0.8399999999999238, -0.34248837511665503 
0.8499999999999227, -0.3398576209169014 
0.8599999999999216, -0.33771715974920097 
0.8699999999999205, -0.33600738229212435 
0.8799999999999194, -0.3346443848144595 
0.8899999999999183, -0.33354802390653904 
0.8999999999999172, -0.332654271296378 
0.9099999999999161, -0.33191864334383003 
0.919999999999915, -0.33131590545641665 
0.9299999999999139, -0.3308393289165303 
0.9399999999999128, -0.33050158700166676 
0.9499999999999117, -0.3303388966979548 
0.9599999999999106, -0.33042017319869055 
0.9699999999999095, -0.3308636826181208 
0.9799999999999084, -0.3318645526747869 
0.9899999999999073, -0.33373582935048135 
0.9999999999999062, -0.33695753489651314 
1.0099999999999052, -0.3421953637657909 
1.019999999999904, -0.35016278169278825 
1.029999999999903, -0.3610792579042592 
1.039999999999902, -0.3736690068695839 
1.0499999999999008, -0.3847849542313445 
1.0599999999998997, -0.3913941371384655 
1.0699999999998986, -0.39325486728308634 
1.0799999999998975, -0.39242678208166504 
1.0899999999998964, -0.3909032231680035 
1.0999999999998953, -0.3896221401055694 
1.1099999999998942, -0.3887828417281197 
1.119999999999893, -0.38830645919341084 
1.129999999999892, -0.38806764083499756 
1.1399999999998909, -0.3879661697468558 
1.1499999999998898, -0.3879356083654057 
1.1599999999998887, -0.3879354568756399 
1.1699999999998876, -0.38794239279598114 
1.1799999999998865, -0.3879443413818143 
1.1899999999998854, -0.3879376502114098 
1.1999999999998843, -0.38792680738112567 
1.2099999999998832, -0.38792571974187845 
1.219999999999882, -0.38795891152955864 
1.229999999999881, -0.3880604213681804 
1.2399999999998799, -0.38826847741375614 
1.2499999999998788, -0.38861554517980584 
1.2599999999998777, -0.3891154099765036 
1.2699999999998766, -0.3897510975686223 
1.2799999999998755, -0.3904697807547799 
1.2899999999998744, -0.39119118881025516 
1.2999999999998733, -0.3918297153538178 
1.3099999999998722, -0.3923192220874513 
1.319999999999871, -0.3926258418115741 
1.32999999999987, -0.39274394039421817 
1.3399999999998689, -0.3926822171188012 
1.3499999999998678, -0.39244902378001173 
1.3599999999998666, -0.3920407342680937 
1.3699999999998655, -0.391431797583058 
1.3799999999998644, -0.39056261647025303 
1.3899999999998633, -0.3893206827429935 
1.3999999999998622, -0.3875115221509927 
1.4099999999998611, -0.3848238735095745 
1.41999999999986, -0.38082064326083315 
1.429999999999859, -0.3750394858829649 
1.4399999999998578, -0.3672947696745122 
1.4499999999998567, -0.35805679331096585 
1.4599999999998556, -0.3484511956754621 
1.4699999999998545, -0.3396846968799361 
1.4799999999998534, -0.33245924280359923 
1.4899999999998523, -0.326885946984749 
1.4999999999998512, -0.3227363223624914 
1.5099999999998501, -0.31968909176374105 
1.519999999999849, -0.3174553510382268 
1.529999999999848, -0.3158148931060059 
1.5399999999998468, -0.3146138198328007 
1.5499999999998457, -0.31375171078020037 
1.5599999999998446, -0.31316950140802113 
1.5699999999998435, -0.3128413655153274 
1.5799999999998424, -0.31277124551612184 
1.5899999999998413, -0.3129942331557086 
1.5999999999998402, -0.3135834203603161 
1.6099999999998391, -0.31466355266961094 
1.619999999999838, -0.3164333109644187 
1.629999999999837, -0.31919691928122684 
1.6399999999998358, -0.32339880438239094 
1.6499999999998347, -0.32963190539155685 
1.6599999999998336, -0.3385363972519323 
1.6699999999998325, -0.3504430988011217 
1.6799999999998314, -0.364729719699898 
1.6899999999998303, -0.379434806946257 
1.6999999999998292, -0.39207708730512786 
1.709999999999828, -0.4012509982918277 
1.719999999999827, -0.4071362291075705 
1.729999999999826, -0.4106806131259223 
1.7399999999998248, -0.4127841373635155 
1.7499999999998237, -0.414043050677899 
1.7599999999998226, -0.41479922607009784 
1.7699999999998215, -0.4152391537996379 
1.7799999999998204, -0.4154633498843672 
1.7899999999998193, -0.41552487262297105 
1.7999999999998182, -0.41544935235583325 
1.809999999999817, -0.4152460281515262 
1.819999999999816, -0.4149155525776756 
1.8299999999998149, -0.41445791775671353 
1.8399999999998138, -0.41388162294404174 
1.8499999999998127, -0.4132120853626361 
1.8599999999998116, -0.4124943554875431 
1.8699999999998105, -0.41178595812071084 
1.8799999999998094, -0.41114164757366484 
1.8899999999998083, -0.41059787535312964 
1.8999999999998072, -0.4101644579563624 
1.909999999999806, -0.4098256844444035 
1.919999999999805, -0.4095486713035522 
1.9299999999998039, -0.4092949339127455 
1.9399999999998028, -0.4090307075086102 
1.9499999999998017, -0.4087326416023395 
1.9599999999998006, -0.4083882691525604 
1.9699999999997995, -0.4079932551067952 
1.9799999999997984, -0.4075480780031412 
1.9899999999997973, -0.40705583845758453 
1.9999999999997962, -0.4065216336100651 
2.0099999999998173, -0.40595290067779866 
2.0199999999998384, -0.40535853776800684 
2.0299999999998595, -0.40474017249413824 
2.0399999999998806, -0.404057074821349 
2.0499999999999017, -0.40312195726472533 
2.059999999999923, -0.4013662280988258 
2.069999999999944, -0.39752259730424255 
2.079999999999965, -0.38974303415621714 
2.089999999999986, -0.3770159801371048 
2.100000000000007, -0.36100028512030125 
2.1100000000000283, -0.345271862423957 
2.1200000000000494, -0.3325084598250322 
2.1300000000000705, -0.3233401222202075 
2.1400000000000916, -0.31717165302022166 
2.1500000000001127, -0.3131404775432779 
2.160000000000134, -0.3105327705005229 
2.170000000000155, -0.3088535102571278 
2.180000000000176, -0.3077836498823022 
2.190000000000197, -0.30712464551246244 
2.2000000000002182, -0.3067564528639386 
2.2100000000002393, -0.3066104414288196 
2.2200000000002604, -0.3066534817155121 
2.2300000000002815, -0.3068797242141711 
2.2400000000003026, -0.307307740425605 
2.2500000000003237, -0.3079815262328294 
2.260000000000345, -0.30897404080528157 
2.270000000000366, -0.3103911335682019 
2.280000000000387, -0.31237116109352325 
2.290000000000408, -0.3150702765489955 
2.3000000000004293, -0.31861635382062303 
2.3100000000004504, -0.32301680158116053 
2.3200000000004715, -0.32804405931238523 
2.3300000000004926, -0.33320175527130513 
2.3400000000005137, -0.33788409755074933 
2.3500000000005348, -0.3416539592869775 
2.360000000000556, -0.3443935122994976 
2.370000000000577, -0.3462313222426946 
2.380000000000598, -0.34738426170438036 
2.390000000000619, -0.34805029248019465 
2.4000000000006403, -0.3483720692406329 
2.4100000000006614, -0.3484382097251518 
2.4200000000006825, -0.3482949824122212 
2.4300000000007036, -0.34795742223789267 
2.4400000000007247, -0.34741850191457224 
2.450000000000746, -0.3466590727461511 
2.460000000000767, -0.345662290965098 
2.470000000000788, -0.3444335824493782 
2.480000000000809, -0.34301959526363435 
2.49000000000083, -0.34151190696789807 
2.5000000000008513, -0.3400259600607093 
2.5100000000008724, -0.33866511432148055 
2.5200000000008935, -0.3374927003564586 
2.5300000000009146, -0.33652536395802163 
2.5400000000009357, -0.33574330883229503 
2.550000000000957, -0.33510647420334766 
2.560000000000978, -0.3345692329875887 
2.570000000000999, -0.33409068444613343 
2.58000000000102, -0.333639926470512 
2.5900000000010412, -0.33319706875304145 
2.6000000000010624, -0.3327517426811451 
2.6100000000010835, -0.33230103706842795 
2.6200000000011046, -0.3318481706943597 
2.6300000000011257, -0.33140229185037284 
2.6400000000011468, -0.3309786279095664 
2.650000000001168, -0.3305957204773641 
2.660000000001189, -0.3302595962952424 
2.67000000000121, -0.3299072382462099 
2.680000000001231, -0.32924947570206464 
2.6900000000012523, -0.32744742407959426 
2.7000000000012734, -0.3227850992677412 
2.7100000000012945, -0.3131932654425932 
2.7200000000013156, -0.2983914495154679 
2.7300000000013367, -0.281340579615497 
2.740000000001358, -0.2659827564675169 
2.750000000001379, -0.25430358977817213 
2.7600000000014, -0.24622442668122782 
2.770000000001421, -0.24086230174851586 
2.780000000001442, -0.23734184897861227 
2.7900000000014633, -0.23502485085425784 
2.8000000000014844, -0.23349569365889264 
2.8100000000015055, -0.23249686488683005 
2.8200000000015266, -0.23187440443338464 
2.8300000000015477, -0.2315421187582835 
2.840000000001569, -0.23146096216241915 
2.85000000000159, -0.2316292519576296 
2.860000000001611, -0.23208106054549688 
2.870000000001632, -0.23289183811866696 
2.8800000000016532, -0.2341915329980863 
2.8900000000016743, -0.23618556214176745 
2.9000000000016954, -0.2391806959658239 
2.9100000000017165, -0.24360001341056942 
2.9200000000017377, -0.24993740981836035 
2.9300000000017588, -0.2585504690609753 
2.94000000000178, -0.26921704001073177 
2.950000000001801, -0.2807168727029656 
2.960000000001822, -0.29115546792241365 
2.970000000001843, -0.2991240762185322 
2.9800000000018643, -0.3044221638552726 
2.9900000000018854, -0.30765980514949337 
3.0000000000019065, -0.30956871094702115 
3.0100000000019276, -0.3106846163642969 
3.0200000000019487, -0.311330996352868 
3.03000000000197, -0.31168832767948795 
3.040000000001991, -0.3118545151508538 
3.050000000002012, -0.3118819352525762 
3.060000000002033, -0.31179815746910194 
3.070000000002054, -0.3116182034443441 
3.0800000000020753, -0.31135338689513453 
3.0900000000020964, -0.3110190990288423 
3.1000000000021175, -0.310641350661179 
3.1100000000021386, -0.31025968875290677 
3.1200000000021597, -0.309923799389789 
3.130000000002181, -0.30968375916711705 
3.140000000002202, -0.3095774499837336 
3.150000000002223, -0.30961964717865287 
3.160000000002244, -0.3097958573957657 
3.1700000000022652, -0.31006311547809884 
3.1800000000022863, -0.3103594491163764 
3.1900000000023074, -0.3106201994466459 
3.2000000000023285, -0.3107938864402238 
3.2100000000023496, -0.31084956349563664 
3.2200000000023707, -0.31077367933356087 
3.230000000002392, -0.31056064013262896 
3.240000000002413, -0.3102019818017962 
3.250000000002434, -0.30967589465836665 
3.260000000002455, -0.3089355675312792 
3.2700000000024763, -0.3078930056955809 
3.2800000000024974, -0.3063951961463494 
3.2900000000025185, -0.3041950607604199 
3.3000000000025396, -0.30093985117805105 
3.3100000000025607, -0.2962412171982961 
3.3200000000025818, -0.2899076592439612 
3.330000000002603, -0.28226767519262663 
3.340000000002624, -0.2742225910323392 
3.350000000002645, -0.2668043373147059 
3.360000000002666, -0.2606527819740879 
3.3700000000026873, -0.2558961508257725 
3.3800000000027084, -0.252351223575083 
3.3900000000027295, -0.24974233543239394 
3.4000000000027506, -0.24781744484564747 
3.4100000000027717, -0.24638351198407524 
3.420000000002793, -0.24530579069152442 
3.430000000002814, -0.2444971233791581 
3.440000000002835, -0.2439077084875767 
3.450000000002856, -0.24351865480340912 
3.460000000002877, -0.24334035861956133 
3.4700000000028983, -0.24341659509982722 
3.4800000000029194, -0.24383606007362274 
3.4900000000029405, -0.2447544857096779 
3.5000000000029616, -0.2464315504774215 
3.5100000000029827, -0.24928403708265603 
3.520000000003004, -0.2539371833588231 
3.530000000003025, -0.26118535319922404 
3.540000000003046, -0.2716104805740414 
3.550000000003067, -0.2845333085387226 
3.5600000000030882, -0.2968841105342021 
3.5700000000031094, -0.30448690094821756 
3.5800000000031305, -0.3059530423326328 
3.5900000000031516, -0.30358653009067726 
3.6000000000031727, -0.30026849130917604 
3.6100000000031938, -0.29746838370363593 
3.620000000003215, -0.2955006863595505 
3.630000000003236, -0.2942295669084287 
3.640000000003257, -0.2934445295256275 
3.650000000003278, -0.2929765528460459 
3.6600000000032993, -0.2927121786963139 
3.6700000000033204, -0.292581580125738 
3.6800000000033415, -0.29254523738803107 
3.6900000000033626, -0.29258474932793377 
3.7000000000033837, -0.2926979151805999 
3.710000000003405, -0.29289712680139 
3.720000000003426, -0.29320994590708777 
3.730000000003447, -0.29368049551755 
3.740000000003468, -0.2943697656625868 
3.750000000003489, -0.2953520770740169 
3.7600000000035103, -0.29670363388585397 
3.7700000000035314, -0.2984780175060168 
3.7800000000035525, -0.3006667653612557 
3.7900000000035736, -0.3031582575253572 
3.8000000000035947, -0.3057313152118072 
3.810000000003616, -0.30811645901918727 
3.820000000003637, -0.3100991682074966 
3.830000000003658, -0.3115869748853328 
3.840000000003679, -0.31259900240552774 
3.8500000000037002, -0.31321106838587137 
3.8600000000037213, -0.3135058050372418 
3.8700000000037424, -0.31354640409280715 
3.8800000000037635, -0.31336832066192616 
3.8900000000037847, -0.31297898912984223 
3.9000000000038058, -0.312360134199593 
3.910000000003827, -0.311472595531595 
3.920000000003848, -0.310267807778528 
3.930000000003869, -0.30871148424249073 
3.94000000000389, -0.30681861700300284 
3.9500000000039113, -0.30468201046447 
3.9600000000039324, -0.30246487531391086 
3.9700000000039535, -0.30034912306246014 
3.9800000000039746, -0.29847306369034887 
3.9900000000039957, -0.29690049985129136 
4.000000000004016, -0.2956286974790322 
4.010000000003993, -0.2946145254619567 
4.02000000000397, -0.2937993252184865 
4.030000000003946, -0.29312552711472223 
4.040000000003923, -0.2925454366259252 
4.0500000000039, -0.2920243758642126 
4.0600000000038765, -0.2915403662118565 
4.070000000003853, -0.29108235908122926 
4.08000000000383, -0.29064861241953555 
4.090000000003807, -0.2902461376400439 
4.100000000003783, -0.2898912949525897 
4.11000000000376, -0.28961014437250193 
4.120000000003737, -0.28943321079857576 
4.130000000003713, -0.28936813912923703 
4.14000000000369, -0.2893068482170883 
4.150000000003667, -0.2887841060968039 
4.1600000000036434, -0.2865527122432504 
4.17000000000362, -0.2804161367890537 
4.180000000003597, -0.2685626874469185 
4.1900000000035735, -0.2521935492871449 
4.20000000000355, -0.2354148352707484 
4.210000000003527, -0.22165229879575504 
4.220000000003504, -0.2117959893530455 
4.23000000000348, -0.20518372064159643 
4.240000000003457, -0.2008409708441666 
4.250000000003434, -0.19798598117906807 
4.26000000000341, -0.19609468988740159 
4.270000000003387, -0.1948400709446322 
4.280000000003364, -0.19402588863599665 
4.2900000000033405, -0.19354051323027713 
4.300000000003317, -0.19332959275066247 
4.310000000003294, -0.193382512595948 
4.320000000003271, -0.1937291997042401 
4.330000000003247, -0.19444617023182595 
4.340000000003224, -0.1956728581092843 
4.350000000003201, -0.1976407638072779 
4.360000000003177, -0.2007167343832593 
4.370000000003154, -0.20544989573067357 
4.380000000003131, -0.21256866044206152 
4.390000000003107, -0.22277380051773804 
4.400000000003084, -0.23609894297300243 
4.410000000003061, -0.2510192069971142 
4.4200000000030375, -0.2645989517185491 
4.430000000003014, -0.2744873584238647 
4.440000000002991, -0.2804599412957459 
4.450000000002968, -0.28367546264662674 
4.460000000002944, -0.28534237601016893 
4.470000000002921, -0.28622377956400336 
4.480000000002898, -0.28671090588333903 
4.490000000002874, -0.2869886515330167 
4.500000000002851, -0.2871435318175117 
4.510000000002828, -0.2872174610338264 
4.520000000002804, -0.2872323926678813 
4.530000000002781, -0.28720200782631833 
4.540000000002758, -0.2871383868967717 
4.5500000000027345, -0.2870570780912117 
4.560000000002711, -0.28698146718291 
4.570000000002688, -0.2869456660415999 
4.580000000002665, -0.28699422895107635 
4.590000000002641, -0.2871773183116518 
4.600000000002618, -0.2875411597102506 
4.610000000002595, -0.288114638306765 
4.620000000002571, -0.28889394486575143 
4.630000000002548, -0.28983050125352394 
4.640000000002525, -0.290832109054202 
4.6500000000025015, -0.2917848760210417 
4.660000000002478, -0.2925882471097109 
4.670000000002455, -0.2931814885479209 
4.6800000000024315, -0.29354676768577176 
4.690000000002408, -0.2936936454309825 
4.700000000002385, -0.2936390787583739 
4.710000000002362, -0.29339180357883177 
4.720000000002338, -0.2929419415737715 
4.730000000002315, -0.29225315792763407 
4.740000000002292, -0.2912556147731444 
4.750000000002268, -0.289842229330346 
4.760000000002245, -0.2878786084130649 
4.770000000002222, -0.28524522606278335 
4.7800000000021985, -0.2819217571493102 
4.790000000002175, -0.2780745152341948 
4.800000000002152, -0.27405321369124835 
4.810000000002129, -0.2702556899868786 
4.820000000002105, -0.26696406450529436 
4.830000000002082, -0.2642813584119861 
4.840000000002059, -0.2621732639904669 
4.850000000002035, -0.2605406916711303 
4.860000000002012, -0.2592726896723993 
