t, s[1].omega / s[0].omega 
0, -0.5499977431183348 
0.009999999999999995, -0.5497862123840241 
0.019999999999999934, -0.5495954711156334 
0.029999999999999874, -0.5494069364501407 
0.04000000000000012, -0.5491980739867826 
0.050000000000000405, -0.5489501142083262 
0.06000000000000069, -0.5486526242695701 
0.07000000000000098, -0.5483041505700039 
0.08000000000000126, -0.5479106766015399 
0.09000000000000155, -0.5474843371928468 
0.10000000000000184, -0.5470441579732321 
0.11000000000000212, -0.5466198321895233 
0.12000000000000241, -0.5462593444405146 
0.130000000000002, -0.5460414406871054 
0.1400000000000009, -0.5460938775238162 
0.1499999999999998, -0.5466167837918339 
0.1599999999999987, -0.5479047047324942 
0.1699999999999976, -0.5503466063351627 
0.1799999999999965, -0.5543584842886518 
0.1899999999999954, -0.5601888958842461 
0.1999999999999943, -0.5676093410030764 
0.2099999999999932, -0.5757266318345942 
0.2199999999999921, -0.5832860728073093 
0.229999999999991, -0.5893685007406889 
0.2399999999999899, -0.5937785680960049 
0.2499999999999888, -0.5968189597128883 
0.2599999999999877, -0.5988946136396349 
0.2699999999999866, -0.6003178212961239 
0.2799999999999855, -0.6012905108021644 
0.2899999999999844, -0.6019391504377637 
0.2999999999999833, -0.6023445343169411 
0.3099999999999822, -0.6025583829717597 
0.3199999999999811, -0.6026114620476524 
0.32999999999998, -0.6025173958744022 
0.3399999999999789, -0.6022744609227699 
0.3499999999999778, -0.6018669139306263 
0.35999999999997667, -0.6012677283383077 
0.36999999999997557, -0.6004452840115524 
0.37999999999997447, -0.5993761028071394 
0.38999999999997337, -0.5980620521546053 
0.39999999999997227, -0.5965437822667432 
0.40999999999997117, -0.5948990370969602 
0.41999999999997006, -0.5932227125852576 
0.42999999999996896, -0.5915999975622588 
0.43999999999996786, -0.5900885101407238 
0.44999999999996676, -0.5887158754478863 
0.45999999999996566, -0.5874880916763761 
0.46999999999996456, -0.5864007743328242 
0.47999999999996346, -0.5854481701371237 
0.48999999999996235, -0.5846285393373428 
0.49999999999996125, -0.5839466208777531 
0.5099999999999602, -0.5834144132202526 
0.519999999999959, -0.5830512273626669 
0.529999999999958, -0.5828835583784776 
0.5399999999999568, -0.5829450530292724 
0.5499999999999557, -0.5832767102376654 
0.5599999999999546, -0.5839272940938376 
0.5699999999999535, -0.5849535817317552 
0.5799999999999524, -0.5864193184916245 
0.5899999999999513, -0.5883904686492494 
0.5999999999999502, -0.5909227117539004 
0.6099999999999491, -0.5940364113071486 
0.619999999999948, -0.5976780141879601 
0.6299999999999469, -0.601680096942349 
0.6399999999999458, -0.6057528215235799 
0.6499999999999447, -0.6095426902562564 
0.6599999999999436, -0.6127484619185617 
0.6699999999999425, -0.6152192566617589 
0.6799999999999414, -0.6169665652721424 
0.6899999999999403, -0.6181026070589758 
0.6999999999999392, -0.618766695258589 
0.7099999999999381, -0.6190792728025722 
0.719999999999937, -0.6191251790908072 
0.7299999999999359, -0.6189524043293223 
0.7399999999999348, -0.6185746361640508 
0.7499999999999337, -0.6179713421152564 
0.7599999999999326, -0.6170824834896206 
0.7699999999999315, -0.6157965842478934 
0.7799999999999304, -0.613933307384286 
0.7899999999999293, -0.6112291925364494 
0.7999999999999282, -0.6073526686055282 
0.8099999999999271, -0.6019956080088157 
0.819999999999926, -0.595069603952513 
0.8299999999999249, -0.5869153908336394 
0.8399999999999238, -0.5783035610843241 
0.8499999999999227, -0.5701345074160958 
0.8599999999999216, -0.5630730390270446 
0.8699999999999205, -0.5573977153351731 
0.8799999999999194, -0.5530766152000259 
0.8899999999999183, -0.5499170506358294 
0.8999999999999172, -0.5476815855642683 
0.9099999999999161, -0.5461487914491212 
0.919999999999915, -0.5451353502028292 
0.9299999999999139, -0.5444986913827862 
0.9399999999999128, -0.5441320648622606 
0.9499999999999117, -0.5439577524806981 
0.9599999999999106, -0.5439207024128236 
0.9699999999999095, -0.5439833453661809 
0.9799999999999084, -0.5441217634327118 
0.9899999999999073, -0.5443231282583867 
0.9999999999999062, -0.544584064843851 
1.0099999999999052, -0.5449091758347249 
1.019999999999904, -0.5453084763065086 
1.029999999999903, -0.5457923843191309 
1.039999999999902, -0.546363806282341 
1.0499999999999008, -0.5470090034464588 
1.0599999999998997, -0.5476915929858088 
1.0699999999998986, -0.548355068826795 
1.0799999999998975, -0.5489358126470657 
1.0899999999998964, -0.5493810863019559 
1.0999999999998953, -0.5496616423159264 
1.1099999999998942, -0.5497725966994732 
1.119999999999893, -0.5497250190507538 
1.129999999999892, -0.549535133004436 
1.1399999999998909, -0.5492160086612714 
1.1499999999998898, -0.5487727545260904 
1.1599999999998887, -0.548199982845551 
1.1699999999998876, -0.5474798024791523 
1.1799999999998865, -0.5465785056002178 
1.1899999999998854, -0.5454393177525013 
1.1999999999998843, -0.5439663324326417 
1.2099999999998832, -0.541991826803349 
1.219999999999882, -0.5392233782298563 
1.229999999999881, -0.5352034770086436 
1.2399999999998799, -0.5294044772519967 
1.2499999999998788, -0.5216099403992289 
1.2599999999998777, -0.5123978100883446 
1.2699999999998766, -0.5030860264946893 
1.2799999999998755, -0.4949847242732158 
1.2899999999998744, -0.48874830406010955 
1.2999999999998733, -0.4843596892532439 
1.3099999999998722, -0.48145982737440685 
1.319999999999871, -0.4796291840323971 
1.32999999999987, -0.47851643570952473 
1.3399999999998689, -0.47786607930001673 
1.3499999999998678, -0.4775052414075874 
1.3599999999998666, -0.47732157809204334 
1.3699999999998655, -0.4772438791841 
1.3799999999998644, -0.4772279379769716 
1.3899999999998633, -0.4772472498661429 
1.3999999999998622, -0.47728749539968784 
1.4099999999998611, -0.47734381377140656 
1.41999999999986, -0.47741985680652466 
1.429999999999859, -0.4775273039665298 
1.4399999999998578, -0.4776841261074562 
1.4499999999998567, -0.4779100210542482 
1.4599999999998556, -0.47821865999036717 
1.4699999999998545, -0.4786085313986691 
1.4799999999998534, -0.47905633752246324 
1.4899999999998523, -0.47951764089958804 
1.4999999999998512, -0.4799369289958221 
1.5099999999998501, -0.4802633085437142 
1.519999999999849, -0.48046326511219356 
1.529999999999848, -0.48052398114329853 
1.5399999999998468, -0.48044780848301183 
1.5499999999998457, -0.4802431869779748 
1.5599999999998446, -0.47991651927262946 
1.5699999999998435, -0.47946630789693884 
1.5799999999998424, -0.47887846101814135 
1.5899999999998413, -0.47812056047162377 
1.5999999999998402, -0.47713207528441537 
1.6099999999998391, -0.4758061643280004 
1.619999999999838, -0.4739574652713608 
1.629999999999837, -0.47127454697068255 
1.6399999999998358, -0.46728233804219366 
1.6499999999998347, -0.46140901252695976 
1.6599999999998336, -0.45330230357704837 
1.6699999999998325, -0.4433270870051884 
1.6799999999998314, -0.4327023618620454 
1.6899999999998303, -0.42289280298219944 
1.6999999999998292, -0.4148387223365896 
1.709999999999828, -0.4087520301511792 
1.719999999999827, -0.404385595033787 
1.729999999999826, -0.4013468566356261 
1.7399999999998248, -0.39927012494625014 
1.7499999999998237, -0.39787136299660597 
1.7599999999998226, -0.3969478942089565 
1.7699999999998215, -0.3963615988379179 
1.7799999999998204, -0.3960214641342701 
1.7899999999998193, -0.39587006102688505 
1.7999999999998182, -0.39587433651711895 
1.809999999999817, -0.3960199740938094 
1.819999999999816, -0.39630844392239123 
1.8299999999998149, -0.3967558839520806 
1.8399999999998138, -0.39739275927000445 
1.8499999999998127, -0.3982626715212805 
1.8599999999998116, -0.3994177170778689 
1.8699999999998105, -0.40090675482823607 
1.8799999999998094, -0.4027531735084078 
1.8899999999998083, -0.4049234623922576 
1.8999999999998072, -0.40730027549234515 
1.909999999999806, -0.40968707911922964 
1.919999999999805, -0.41186213064332844 
1.9299999999998039, -0.4136567595538804 
1.9399999999998028, -0.41500236516787237 
1.9499999999998017, -0.4159199312647285 
1.9599999999998006, -0.41647680580748714 
1.9699999999997995, -0.41674674705387904 
1.9799999999997984, -0.4167878171508342 
1.9899999999997973, -0.4166345084275044 
1.9999999999997962, -0.4162962355392869 
2.0099999999998173, -0.4157569671494404 
2.0199999999998384, -0.41497439159431604 
2.0299999999998595, -0.41388053838881617 
2.0399999999998806, -0.4123899039913531 
2.0499999999999017, -0.41042443572937737 
2.059999999999923, -0.40795988183469695 
2.069999999999944, -0.4050760561743054 
2.079999999999965, -0.40196766870049583 
2.089999999999986, -0.3988871198918197 
2.100000000000007, -0.3960529771326563 
2.1100000000000283, -0.39359042830006763 
2.1200000000000494, -0.3915299454610983 
2.1300000000000705, -0.3898403382597563 
2.1400000000000916, -0.3884645231040786 
2.1500000000001127, -0.38734358885966813 
2.160000000000134, -0.3864288363919156 
2.170000000000155, -0.3856861520297628 
2.180000000000176, -0.38509684386553056 
2.190000000000197, -0.3846577051293151 
2.2000000000002182, -0.3843819575309823 
2.2100000000002393, -0.3843021234379844 
2.2200000000002604, -0.3844756963367974 
2.2300000000002815, -0.3849945225577661 
2.2400000000003026, -0.38599868883402577 
2.2500000000003237, -0.3876945207161719 
2.260000000000345, -0.39037183555212435 
2.270000000000366, -0.3944034359432503 
2.280000000000387, -0.4001853397500633 
2.290000000000408, -0.40795128440954853 
2.3000000000004293, -0.4174413388264723 
2.3100000000004504, -0.42763750088040736 
2.3200000000004715, -0.43702465339339314 
2.3300000000004926, -0.44441922808122847 
2.3400000000005137, -0.4495488308285463 
2.3500000000005348, -0.4528386948368891 
2.360000000000556, -0.4548853299077636 
2.370000000000577, -0.45615800100217213 
2.380000000000598, -0.4569533863252169 
2.390000000000619, -0.4574433293923975 
2.4000000000006403, -0.45772490871715227 
2.4100000000006614, -0.45785241709830143 
2.4200000000006825, -0.4578548411838682 
2.4300000000007036, -0.4577451358115735 
2.4400000000007247, -0.45752575017321817 
2.450000000000746, -0.45719328734154485 
2.460000000000767, -0.4567441650580653 
2.470000000000788, -0.456181845760568 
2.480000000000809, -0.4555239374128911 
2.49000000000083, -0.4548050894267813 
2.5000000000008513, -0.454071931001196 
2.5100000000008724, -0.45337090935908453 
2.5200000000008935, -0.4527351969747211 
2.5300000000009146, -0.45217736758397403 
2.5400000000009357, -0.4516902524972416 
2.550000000000957, -0.4512538660512629 
2.560000000000978, -0.45084433830377585 
2.570000000000999, -0.45044119308955716 
2.58000000000102, -0.4500311424562547 
2.5900000000010412, -0.44960875761379027 
2.6000000000010624, -0.449175719853727 
2.6100000000010835, -0.4487404566008239 
2.6200000000011046, -0.44831943204523006 
2.6300000000011257, -0.44794091955114357 
2.6400000000011468, -0.44765194286553867 
2.650000000001168, -0.44752884743507293 
2.660000000001189, -0.44769052343634763 
2.67000000000121, -0.44830807865546296 
2.680000000001231, -0.44959116109040176 
2.6900000000012523, -0.45170721616319787 
2.7000000000012734, -0.4545817724926611 
2.7100000000012945, -0.4576343406301252 
2.7200000000013156, -0.45979383929137524 
2.7300000000013367, -0.4601636730701687 
2.740000000001358, -0.45881556297800213 
2.750000000001379, -0.4566531530512309 
2.7600000000014, -0.45457916444865837 
2.770000000001421, -0.45302266383584844 
2.780000000001442, -0.4520199319612953 
2.7900000000014633, -0.45144336033315363 
2.8000000000014844, -0.4511456013515381 
2.8100000000015055, -0.45101108456349015 
2.8200000000015266, -0.4509618129818773 
2.8300000000015477, -0.45094887834839714 
2.840000000001569, -0.4509426805756199 
2.85000000000159, -0.4509256058755584 
2.860000000001611, -0.4508876379470306 
2.870000000001632, -0.450824546207451 
2.8800000000016532, -0.45073809612916194 
2.8900000000016743, -0.4506373636647153 
2.9000000000016954, -0.4505395715988444 
2.9100000000017165, -0.45046844705219247 
2.9200000000017377, -0.45044882431614963 
2.9300000000017588, -0.4504982592077978 
2.94000000000178, -0.45061863752708514 
2.950000000001801, -0.45079174908862807 
2.960000000001822, -0.4509818909607466 
2.970000000001843, -0.4511454924515322 
2.9800000000018643, -0.4512434695450014 
2.9900000000018854, -0.45124994518583456 
3.0000000000019065, -0.4511537091321025 
3.0100000000019276, -0.4509537532224611 
3.0200000000019487, -0.45065270187553397 
3.03000000000197, -0.4502509495463375 
3.040000000001991, -0.44974209021589023 
3.050000000002012, -0.4491085660271657 
3.060000000002033, -0.44831538400882165 
3.070000000002054, -0.44729839174764263 
3.0800000000020753, -0.4459413050591065 
3.0900000000020964, -0.4440338068495753 
3.1000000000021175, -0.44121071741994633 
3.1100000000021386, -0.4369153548790695 
3.1200000000021597, -0.4305267619642252 
3.130000000002181, -0.421806257247973 
3.140000000002202, -0.41142834816889007 
3.150000000002223, -0.4008753356181489 
3.160000000002244, -0.3915796000406989 
3.1700000000022652, -0.384240020120589 
3.1800000000022863, -0.37884719273739237 
3.1900000000023074, -0.3750475203826228 
3.2000000000023285, -0.3724301073276915 
3.2100000000023496, -0.3706505901232017 
3.2200000000023707, -0.3694559917687271 
3.230000000002392, -0.3686721774993136 
3.240000000002413, -0.3681839704423372 
3.250000000002434, -0.3679181879835443 
3.260000000002455, -0.36783164038044736 
3.2700000000024763, -0.36790357625989867 
3.2800000000024974, -0.3681315886851967 
3.2900000000025185, -0.3685300635689255 
3.3000000000025396, -0.3691302423534566 
3.3100000000025607, -0.3699805858185582 
3.3200000000025818, -0.37114515610306725 
3.330000000002603, -0.37269609441773865 
3.340000000002624, -0.3746945490912561 
3.350000000002645, -0.37715543393402456 
3.360000000002666, -0.3800015504480093 
3.3700000000026873, -0.38303516854159897 
3.3800000000027084, -0.3859697480835571 
3.3900000000027295, -0.3885290911281568 
3.4000000000027506, -0.39054901445616363 
3.4100000000027717, -0.3920057451412521 
3.420000000002793, -0.39297066654369517 
3.430000000002814, -0.39354690589710584 
3.440000000002835, -0.39382746701623517 
3.450000000002856, -0.39387885271223166 
3.460000000002877, -0.39373896839768696 
3.4700000000028983, -0.3934196491647752 
3.4800000000029194, -0.3929094978907931 
3.4900000000029405, -0.3921769027798011 
3.5000000000029616, -0.39117615850828275 
3.5100000000029827, -0.38986163356092884 
3.520000000003004, -0.3882132638528319 
3.530000000003025, -0.3862669720875444 
3.540000000003046, -0.3841292282608043 
3.550000000003067, -0.38195523037097323 
3.5600000000030882, -0.3798978854824101 
3.5700000000031094, -0.3780619994127338 
3.5800000000031305, -0.37648957784379544 
3.5900000000031516, -0.37517282137633357 
3.6000000000031727, -0.37407684328188334 
3.6100000000031938, -0.37315898591855656 
3.620000000003215, -0.37238075677846616 
3.630000000003236, -0.37171349453745484 
3.640000000003257, -0.37114028170002705 
3.650000000003278, -0.37065645703815325 
3.6600000000032993, -0.37027051404628847 
3.6700000000033204, -0.37000668728089153 
3.6800000000033415, -0.3699103290495308 
3.6900000000033626, -0.37005724816888924 
3.7000000000033837, -0.3705682000338632 
3.710000000003405, -0.37162868950434774 
3.720000000003426, -0.3735094887898807 
3.730000000003447, -0.3765687731732604 
3.740000000003468, -0.38118482256838415 
3.750000000003489, -0.3875322236391145 
3.7600000000035103, -0.39517853392226143 
3.7700000000035314, -0.4028231901998396 
3.7800000000035525, -0.4088232255370389 
3.7900000000035736, -0.4123544482588148 
3.8000000000035947, -0.4138348708680457 
3.810000000003616, -0.4142029723730777 
3.820000000003637, -0.4141766105424175 
3.830000000003658, -0.41409426970790114 
3.840000000003679, -0.4140558111597448 
3.8500000000037002, -0.4140638151272206 
3.8600000000037213, -0.4140957336427797 
3.8700000000037424, -0.41412963246569373 
3.8800000000037635, -0.4141498958026305 
3.8900000000037847, -0.4141465819580227 
3.9000000000038058, -0.4141138217473297 
3.910000000003827, -0.4140490674501812 
3.920000000003848, -0.41395368112245795 
3.930000000003869, -0.41383468845974286 
3.94000000000389, -0.41370677872467354 
3.9500000000039113, -0.41359282448321844 
3.9600000000039324, -0.41352105381896703 
3.9700000000039535, -0.4135182538466082 
3.9800000000039746, -0.4136006050102127 
3.9900000000039957, -0.4137655489362615 
4.000000000004016, -0.41398857104281434 
4.010000000003993, -0.4142276097526062 
4.02000000000397, -0.41443443834243565 
4.030000000003946, -0.4145678471618705 
4.040000000003923, -0.4146018530614829 
4.0500000000039, -0.41452583281133065 
4.0600000000038765, -0.41433875451669006 
4.070000000003853, -0.41404165135762205 
4.08000000000383, -0.4136308648307329 
4.090000000003807, -0.4130920765252067 
4.100000000003783, -0.4123933787884516 
4.11000000000376, -0.41147443858711547 
4.120000000003737, -0.41022763742161306 
4.130000000003713, -0.4084668402109412 
4.14000000000369, -0.4058858977448924 
4.150000000003667, -0.4020371749966755 
4.1600000000036434, -0.3964212139916594 
4.17000000000362, -0.3887987322408874 
4.180000000003597, -0.3796074504446476 
4.1900000000035735, -0.36998954813186213 
4.20000000000355, -0.36120040786004315 
4.210000000003527, -0.35398501763433965 
4.220000000003504, -0.3484727867248244 
4.23000000000348, -0.3444326260336025 
4.240000000003457, -0.34153106930669785 
4.250000000003434, -0.3394655457043297 
4.26000000000341, -0.3380038851879698 
4.270000000003387, -0.33698208598353074 
4.280000000003364, -0.33629040439071056 
4.2900000000033405, -0.33585972380834317 
4.300000000003317, -0.33565157318370353 
4.310000000003294, -0.33565210301851106 
4.320000000003271, -0.33586957014432783 
4.330000000003247, -0.3363348696336742 
4.340000000003224, -0.337104687705376 
4.350000000003201, -0.3382664710528979 
4.360000000003177, -0.3399429754844451 
4.370000000003154, -0.34229059815858776 
4.380000000003131, -0.3454789873393823 
4.390000000003107, -0.3496320446538832 
4.400000000003084, -0.35471753622529756 
4.410000000003061, -0.3604245082604568 
4.4200000000030375, -0.36615557220157713 
4.430000000003014, -0.3712418214011451 
4.440000000002991, -0.37525291641389286 
4.450000000002968, -0.37812381601153594 
4.460000000002944, -0.38003855451016594 
4.470000000002921, -0.38125095959388633 
4.480000000002898, -0.38197876449658774 
4.490000000002874, -0.3823753313937321 
4.500000000002851, -0.3825373885345477 
4.510000000002828, -0.3825203691661719 
4.520000000002804, -0.38235117491556336 
4.530000000002781, -0.3820372481893875 
4.540000000002758, -0.38157388383700913 
4.5500000000027345, -0.3809523440443549 
4.560000000002711, -0.38017049598823505 
4.570000000002688, -0.37924478668988704 
4.580000000002665, -0.3782179801837615 
4.590000000002641, -0.37715548765496215 
4.600000000002618, -0.3761290498429244 
4.610000000002595, -0.37519629090650175 
4.620000000002571, -0.3743875321785862 
4.630000000002548, -0.3737045318389814 
4.640000000002525, -0.3731280446575181 
4.6500000000025015, -0.37262858143632516 
4.660000000002478, -0.3721760273156611 
4.670000000002455, -0.37174584294892576 
4.6800000000024315, -0.371321478330004 
4.690000000002408, -0.37089409243279403 
4.700000000002385, -0.3704612477401095 
4.710000000002362, -0.37002595293596957 
4.720000000002338, -0.36959677353209375 
4.730000000002315, -0.36918907968253195 
4.740000000002292, -0.3688266187965944 
4.750000000002268, -0.3685404481451109 
4.760000000002245, -0.3683566456217512 
4.770000000002222, -0.3682523001043702 
4.7800000000021985, -0.3680452817449721 
4.790000000002175, -0.3672083924845698 
4.800000000002152, -0.3647690855773057 
4.810000000002129, -0.3597275815838733 
4.820000000002105, -0.3520737257674069 
4.830000000002082, -0.34322456322501693 
4.840000000002059, -0.3350042332846602 
4.850000000002035, -0.32846199836801665 
4.860000000002012, -0.323732119173251 
4.870000000001989, -0.32048904619029994 
