t, s[1].omega / s[0].omega 
0, -0.42000778866590566 
0.009999999999999995, -0.4208570164093878 
0.019999999999999934, -0.4218016293839383 
0.029999999999999874, -0.422752136502476 
0.04000000000000012, -0.42360851703396235 
0.050000000000000405, -0.4242906920519192 
0.06000000000000069, -0.4247570677655773 
0.07000000000000098, -0.4250022581275563 
0.08000000000000126, -0.4250411368452166 
0.09000000000000155, -0.42489119737481246 
0.10000000000000184, -0.4245592511093572 
0.11000000000000212, -0.42403167826305904 
0.12000000000000241, -0.42326422704383476 
0.130000000000002, -0.4221665282288365 
0.1400000000000009, -0.42057673502181786 
0.1499999999999998, -0.41822542744296964 
0.1599999999999987, -0.41470480850100744 
0.1699999999999976, -0.4095040184069184 
0.1799999999999965, -0.40222235314336513 
0.1899999999999954, -0.3929799617208193 
0.1999999999999943, -0.3826844329834266 
0.2099999999999932, -0.37268657478235256 
0.2199999999999921, -0.3640561126406211 
0.229999999999991, -0.35720664817177195 
0.2399999999999899, -0.35203746377238926 
0.2499999999999888, -0.3482311773242672 
0.2599999999999877, -0.345452716297578 
0.2699999999999866, -0.34342794885604716 
0.2799999999999855, -0.34195665744255926 
0.2899999999999844, -0.3409021078007056 
0.2999999999999833, -0.3401767583437884 
0.3099999999999822, -0.3397307876989389 
0.3199999999999811, -0.33954496847515225 
0.32999999999998, -0.3396279105146043 
0.3399999999999789, -0.3400175990575159 
0.3499999999999778, -0.34078750420196835 
0.35999999999997667, -0.34205785064920075 
0.36999999999997557, -0.3440122724225044 
0.37999999999997447, -0.3469174595525601 
0.38999999999997337, -0.35113476461698734 
0.39999999999997227, -0.35709166515641955 
0.40999999999997117, -0.36514726459611796 
0.41999999999997006, -0.3752848068851497 
0.42999999999996896, -0.38673047755977 
0.43999999999996786, -0.3979472586000868 
0.44999999999996676, -0.40736541688448946 
0.45999999999996566, -0.4142537728396124 
0.46999999999996456, -0.4188163962793471 
0.47999999999996346, -0.4216723613486601 
0.48999999999996235, -0.42341194392540604 
0.49999999999996125, -0.42444981889851074 
0.5099999999999602, -0.4250411581759752 
0.519999999999959, -0.42533316118236114 
0.529999999999958, -0.42540615892102707 
0.5399999999999568, -0.42529902381846973 
0.5499999999999557, -0.42502397246121487 
0.5599999999999546, -0.42457646686838996 
0.5699999999999535, -0.42394491167789805 
0.5799999999999524, -0.4231232503183162 
0.5899999999999513, -0.4221259337415126 
0.5999999999999502, -0.42099889349380765 
0.6099999999999491, -0.41981704595945313 
0.619999999999948, -0.4186654431167522 
0.6299999999999469, -0.41761403907023525 
0.6399999999999458, -0.4167007927030325 
0.6499999999999447, -0.4159295705210672 
0.6599999999999436, -0.415279128490513 
0.6699999999999425, -0.41471614022128234 
0.6799999999999414, -0.41420690349298284 
0.6899999999999403, -0.4137249483366706 
0.6999999999999392, -0.41325415342539185 
0.7099999999999381, -0.4127888645379981 
0.719999999999937, -0.41233330440191845 
0.7299999999999359, -0.41190231606596406 
0.7399999999999348, -0.41152496821188167 
0.7499999999999337, -0.41125240751919295 
0.7599999999999326, -0.41117156379776815 
0.7699999999999315, -0.4114260089807675 
0.7799999999999304, -0.4122415972193324 
0.7899999999999293, -0.41393970681240305 
0.7999999999999282, -0.41687945641137364 
0.8099999999999271, -0.42119810012136744 
0.819999999999926, -0.42623644181116377 
0.8299999999999249, -0.43003964155970015 
0.8399999999999238, -0.4301962891136338 
0.8499999999999227, -0.4261379617102202 
0.8599999999999216, -0.4198500688726636 
0.8699999999999205, -0.4137940492953745 
0.8799999999999194, -0.4091955917201096 
0.8899999999999183, -0.4061428241875594 
0.8999999999999172, -0.40427170259218875 
0.9099999999999161, -0.4031849504223343 
0.919999999999915, -0.40258304425066516 
0.9299999999999139, -0.40226894503765054 
0.9399999999999128, -0.40212093695513607 
0.9499999999999117, -0.4020663492644709 
0.9599999999999106, -0.4020630828190474 
0.9699999999999095, -0.4020883124183571 
0.9799999999999084, -0.40213248551120084 
0.9899999999999073, -0.4021969838003071 
0.9999999999999062, -0.40229397389702354 
1.0099999999999052, -0.40244668155930696 
1.019999999999904, -0.402687887326425 
1.029999999999903, -0.40305456304017273 
1.039999999999902, -0.40357770203717713 
1.0499999999999008, -0.40426838575841845 
1.0599999999998997, -0.4051039614133526 
1.0699999999998986, -0.4060217829082123 
1.0799999999998975, -0.4069288920495914 
1.0899999999998964, -0.4077281275220666 
1.0999999999998953, -0.40834710338688557 
1.1099999999998942, -0.40875226094329287 
1.119999999999893, -0.4089428738201402 
1.129999999999892, -0.4089341947264041 
1.1399999999998909, -0.4087407402432537 
1.1499999999998898, -0.40836396502889727 
1.1599999999998887, -0.4077825707120314 
1.1699999999998876, -0.40694124549569555 
1.1799999999998865, -0.4057332622830091 
1.1899999999998854, -0.403973684687484 
1.1999999999998843, -0.4013672153682425 
1.2099999999998832, -0.3974990588659031 
1.219999999999882, -0.3919243406517613 
1.229999999999881, -0.3844425175819014 
1.2399999999998799, -0.3754576093375429 
1.2499999999998788, -0.36601319182742204 
1.2599999999998777, -0.35728358039438535 
1.2699999999998766, -0.34999997274764627 
1.2799999999998755, -0.3443234768160513 
1.2899999999998744, -0.3400632110578342 
1.2999999999998733, -0.3369168500783408 
1.3099999999998722, -0.33460178509886185 
1.319999999999871, -0.33289784856310717 
1.32999999999987, -0.331648704483899 
1.3399999999998689, -0.33075069687669223 
1.3499999999998678, -0.33014122433423093 
1.3599999999998666, -0.32979048521765386 
1.3699999999998655, -0.32969744050704086 
1.3799999999998644, -0.3298901610220652 
1.3899999999998633, -0.3304309488819262 
1.3999999999998622, -0.3314271357015998 
1.4099999999998611, -0.333048781077176 
1.41999999999986, -0.3355535428284778 
1.429999999999859, -0.3393137335314966 
1.4399999999998578, -0.34482386822465266 
1.4499999999998567, -0.3526286690634722 
1.4599999999998556, -0.36306365537613255 
1.4699999999998545, -0.3757600892373664 
1.4799999999998534, -0.3892505039474954 
1.4899999999998523, -0.4014157394168857 
1.4999999999998512, -0.41074382464201775 
1.5099999999998501, -0.4170416017703974 
1.519999999999849, -0.4209816129439646 
1.529999999999848, -0.42337017860628406 
1.5399999999998468, -0.4248073071143839 
1.5499999999998457, -0.42566385596051504 
1.5599999999998446, -0.42615224080743247 
1.5699999999998435, -0.4263901742362017 
1.5799999999998424, -0.42644028140655105 
1.5899999999998413, -0.4263320786205713 
1.5999999999998402, -0.42607442185272637 
1.6099999999998391, -0.425664307940091 
1.619999999999838, -0.42509600929709956 
1.629999999999837, -0.42437237239668263 
1.6399999999998358, -0.42351639111577033 
1.6499999999998347, -0.4225768189311932 
1.6599999999998336, -0.4216214037836359 
1.6699999999998325, -0.42071873510918917 
1.6799999999998314, -0.4199186165861632 
1.6899999999998303, -0.4192413304166055 
1.6999999999998292, -0.4186786862360449 
1.709999999999828, -0.41820320661514937 
1.719999999999827, -0.4177800848910433 
1.729999999999826, -0.41737747076413634 
1.7399999999998248, -0.416972470433958 
1.7499999999998237, -0.4165526705546239 
1.7599999999998226, -0.4161150130269509 
1.7699999999998215, -0.41566443513424084 
1.7799999999998204, -0.41521413718225153 
1.7899999999998193, -0.41478865356326355 
1.7999999999998182, -0.41443061209705345 
1.809999999999817, -0.4142117989106439 
1.819999999999816, -0.4142472867814117 
1.8299999999998149, -0.4147035587547581 
1.8399999999998138, -0.41576797810784855 
1.8499999999998127, -0.4174973369134708 
1.8599999999998116, -0.4194309604864925 
1.8699999999998105, -0.4200862768046062 
1.8799999999998094, -0.4172209074911559 
1.8899999999998083, -0.40975554523726504 
1.8999999999998072, -0.39941530564445304 
1.909999999999806, -0.3892693532274788 
1.919999999999805, -0.38125399392367193 
1.9299999999998039, -0.37569077899926345 
1.9399999999998028, -0.3720989043259629 
1.9499999999998017, -0.36986981109476075 
1.9599999999998006, -0.3685202612366534 
1.9699999999997995, -0.3677225227504525 
1.9799999999997984, -0.3672690543282971 
1.9899999999997973, -0.3670328911910724 
1.9999999999997962, -0.3669384932668941 
2.0099999999998173, -0.36694315471434946 
2.0199999999998384, -0.3670261940681945 
2.0299999999998595, -0.3671834268070945 
2.0399999999998806, -0.3674250557791765 
2.0499999999999017, -0.36777534152605695 
2.059999999999923, -0.3682721661138376 
2.069999999999944, -0.3689641271938281 
2.079999999999965, -0.3699024468931506 
2.089999999999986, -0.3711252004723973 
2.100000000000007, -0.3726335336181768 
2.1100000000000283, -0.37436645278761127 
2.1200000000000494, -0.37619188168249657 
2.1300000000000705, -0.37793362312256507 
2.1400000000000916, -0.37942968748458483 
2.1500000000001127, -0.38058425974130144 
2.160000000000134, -0.38137881277662083 
2.170000000000155, -0.3818463863902431 
2.180000000000176, -0.382036719689698 
2.190000000000197, -0.38199124955413566 
2.2000000000002182, -0.381730092886115 
2.2100000000002393, -0.3812453687084708 
2.2200000000002604, -0.38049544433569515 
2.2300000000002815, -0.37939796841561557 
2.2400000000003026, -0.3778248949855628 
2.2500000000003237, -0.37561183653140684 
2.260000000000345, -0.37260451320165744 
2.270000000000366, -0.36875721572340464 
2.280000000000387, -0.3642418073208534 
2.290000000000408, -0.3594559037606559 
2.3000000000004293, -0.35487168570835614 
2.3100000000004504, -0.35083958964126666 
2.3200000000004715, -0.3475036330560533 
2.3300000000004926, -0.34484310608632207 
2.3400000000005137, -0.3427560656742762 
2.3500000000005348, -0.3411228731087129 
2.360000000000556, -0.33983826778285203 
2.370000000000577, -0.338822295328512 
2.380000000000598, -0.3380212636916289 
2.390000000000619, -0.337405603776195 
2.4000000000006403, -0.33696819687374097 
2.4100000000006614, -0.3367250580596502 
2.4200000000006825, -0.3367197386628956 
2.4300000000007036, -0.337033053957958 
2.4400000000007247, -0.3378005240951538 
2.450000000000746, -0.33924083850784215 
2.460000000000767, -0.3416982678351711 
2.470000000000788, -0.3456952609896441 
2.480000000000809, -0.3519645172603266 
2.49000000000083, -0.3613568667278008 
2.5000000000008513, -0.37440991053293354 
2.5100000000008724, -0.3904522499126821 
2.5200000000008935, -0.4069418618534614 
2.5300000000009146, -0.4205731989360057 
2.5400000000009357, -0.42967895884242874 
2.550000000000957, -0.43488583284449767 
2.560000000000978, -0.43768445713885 
2.570000000000999, -0.43923620616432696 
2.58000000000102, -0.4401697812544868 
2.5900000000010412, -0.4407743907688449 
2.6000000000010624, -0.4411775436276427 
2.6100000000010835, -0.4414378216661012 
2.6200000000011046, -0.4415841356381998 
2.6300000000011257, -0.44163091319023734 
2.6400000000011468, -0.4415840974276235 
2.650000000001168, -0.4414443908228528 
2.660000000001189, -0.4412106283994386 
2.67000000000121, -0.4408845924966115 
2.680000000001231, -0.44047708163644667 
2.6900000000012523, -0.44001293175661677 
2.7000000000012734, -0.43953110891358615 
2.7100000000012945, -0.4390773588692226 
2.7200000000013156, -0.4386914737355512 
2.7300000000013367, -0.4383951070447953 
2.740000000001358, -0.438185660531917 
2.750000000001379, -0.43803838150028807 
2.7600000000014, -0.4379153903615952 
2.770000000001421, -0.4377776759691329 
2.780000000001442, -0.43759482689558127 
2.7900000000014633, -0.4373489548905768 
2.8000000000014844, -0.43703307882131703 
2.8100000000015055, -0.436646910486056 
2.8200000000015266, -0.4361929328859344 
2.8300000000015477, -0.43567415196580983 
2.840000000001569, -0.43509354350955015 
2.85000000000159, -0.4344542422938642 
2.860000000001611, -0.4337578023037049 
2.870000000001632, -0.43299281804925505 
2.8800000000016532, -0.4320931845648099 
2.8900000000016743, -0.43082140446312484 
2.9000000000016954, -0.4285262143551468 
2.9100000000017165, -0.4238765138532373 
2.9200000000017377, -0.4151589794026239 
2.9300000000017588, -0.401813697978621 
2.94000000000178, -0.38588961798072324 
2.950000000001801, -0.37082509652315043 
2.960000000001822, -0.3588761144101347 
2.970000000001843, -0.35040372682358706 
2.9800000000018643, -0.34475241523946354 
2.9900000000018854, -0.34108983413385574 
3.0000000000019065, -0.3387456352740309 
3.0100000000019276, -0.3372580549843014 
3.0200000000019487, -0.336329479348516 
3.03000000000197, -0.3357741527137742 
3.040000000001991, -0.3354790573539673 
3.050000000002012, -0.3353786048063846 
3.060000000002033, -0.33543957386957457 
3.070000000002054, -0.3356530425973029 
3.0800000000020753, -0.336031061468045 
3.0900000000020964, -0.3366064665122087 
3.1000000000021175, -0.3374342685840552 
3.1100000000021386, -0.3385923224209636 
3.1200000000021597, -0.3401772188873716 
3.130000000002181, -0.3422884260174208 
3.140000000002202, -0.34499139882754776 
3.150000000002223, -0.34825640141448744 
3.160000000002244, -0.3518967335896936 
3.1700000000022652, -0.35556877177536994 
3.1800000000022863, -0.3588820717157163 
3.1900000000023074, -0.3615605298750929 
3.2000000000023285, -0.3635233878032783 
3.2100000000023496, -0.36484293566237164 
3.2200000000023707, -0.3656526533377318 
3.230000000002392, -0.3660796487065243 
3.240000000002413, -0.36621671854333665 
3.250000000002434, -0.36611820096937664 
3.260000000002455, -0.36580388076428866 
3.2700000000024763, -0.36526367871603693 
3.2800000000024974, -0.36446253244904486 
3.2900000000025185, -0.3633493477908322 
3.3000000000025396, -0.3618764028135793 
3.3100000000025607, -0.36003240133090425 
3.3200000000025818, -0.35787819155145006 
3.330000000002603, -0.35555656804399316 
3.340000000002624, -0.3532547639293423 
3.350000000002645, -0.3511389899190629 
3.360000000002666, -0.3493072217786827 
3.3700000000026873, -0.34778347758485567 
3.3800000000027084, -0.34654017641269846 
3.3900000000027295, -0.34552566296979664 
3.4000000000027506, -0.34468471511755105 
3.4100000000027717, -0.3439701830366211 
3.420000000002793, -0.34334792662767644 
3.430000000002814, -0.34279785629628823 
3.440000000002835, -0.3423136177436942 
3.450000000002856, -0.34190298458411983 
3.460000000002877, -0.3415905869719528 
3.4700000000028983, -0.34142447906928275 
3.4800000000029194, -0.3414882859667179 
3.4900000000029405, -0.34192073749045104 
3.5000000000029616, -0.3429421763433349 
3.5100000000029827, -0.34487649406368004 
3.520000000003004, -0.3481204362174346 
3.530000000003025, -0.3529298963474462 
3.540000000003046, -0.3588321035189165 
3.550000000003067, -0.3638510528223543 
3.5600000000030882, -0.36493055160743615 
3.5700000000031094, -0.36063445404801775 
3.5800000000031305, -0.3529362902122994 
3.5900000000031516, -0.34504984818200957 
3.6000000000031727, -0.33881331269355625 
3.6100000000031938, -0.33450653414412673 
3.620000000003215, -0.33173198116160785 
3.630000000003236, -0.3300069375940449 
3.640000000003257, -0.328957852497937 
3.650000000003278, -0.3283355660648243 
3.6600000000032993, -0.3279843672263408 
3.6700000000033204, -0.3278106522040126 
3.6800000000033415, -0.3277608294836363 
3.6900000000033626, -0.3278078144432131 
3.7000000000033837, -0.32794375861292685 
3.710000000003405, -0.32817700949219897 
3.720000000003426, -0.3285317040796083 
3.730000000003447, -0.3290483738438292 
3.740000000003468, -0.3297834660417649 
3.750000000003489, -0.33080486221090133 
3.7600000000035103, -0.33217941629497044 
3.7700000000035314, -0.3339482247697748 
3.7800000000035525, -0.33608970281278305 
3.7900000000035736, -0.33848521465692466 
3.8000000000035947, -0.34092068387598873 
3.810000000003616, -0.34314855963442625 
3.820000000003637, -0.34498030869107726 
3.830000000003658, -0.3463404852821608 
3.840000000003679, -0.34725222603238726 
3.8500000000037002, -0.34778667861763507 
3.8600000000037213, -0.3480186795412263 
3.8700000000037424, -0.3480033719542139 
3.8800000000037635, -0.3477681517722472 
3.8900000000037847, -0.34731101687927224 
3.9000000000038058, -0.3466004622827789 
3.910000000003827, -0.3455771953388537 
3.920000000003848, -0.34416314836497197 
3.930000000003869, -0.34228720645479105 
3.94000000000389, -0.3399325016437924 
3.9500000000039113, -0.33718738460449893 
3.9600000000039324, -0.33425458502448885 
3.9700000000039535, -0.33138899687113554 
3.9800000000039746, -0.32880206851416555 
3.9900000000039957, -0.3266038957051128 
4.000000000004016, -0.3248073613717704 
4.010000000003993, -0.32336543312577126 
4.02000000000397, -0.322208239616916 
4.030000000003946, -0.32126687322285535 
4.040000000003923, -0.32048491188674855 
4.0500000000039, -0.3198222602160242 
4.0600000000038765, -0.31925528202027376 
4.070000000003853, -0.31877606086535354 
4.08000000000383, -0.31839279978104146 
4.090000000003807, -0.31813291884304584 
4.100000000003783, -0.31805039325109496 
4.11000000000376, -0.3182392152023326 
4.120000000003737, -0.3188548888636347 
4.130000000003713, -0.32014303012097034 
4.14000000000369, -0.32246040072275073 
4.150000000003667, -0.3262293608096144 
4.1600000000036434, -0.3316706225428282 
4.17000000000362, -0.338112108600695 
4.180000000003597, -0.34319961346726624 
4.1900000000035735, -0.34369259752940384 
4.20000000000355, -0.3385813652794262 
4.210000000003527, -0.33040867923589584 
4.220000000003504, -0.32246327306882405 
4.23000000000348, -0.31635461324979836 
4.240000000003457, -0.312187672881523 
4.250000000003434, -0.30950687750178635 
4.26000000000341, -0.3078300487391279 
4.270000000003387, -0.30679938966285925 
4.280000000003364, -0.30618064069973994 
4.2900000000033405, -0.3058289575649941 
4.300000000003317, -0.3056583544441468 
4.310000000003294, -0.3056210925681705 
4.320000000003271, -0.3056955117308878 
4.330000000003247, -0.3058798625670905 
4.340000000003224, -0.30619021322211737 
4.350000000003201, -0.30666090122677925 
4.360000000003177, -0.3073459000691641 
4.370000000003154, -0.3083187737210236 
4.380000000003131, -0.30966744422873277 
4.390000000003107, -0.3114777573617448 
4.400000000003084, -0.31379869104862684 
4.410000000003061, -0.31658926054658076 
4.4200000000030375, -0.3196719875575603 
4.430000000003014, -0.322746040413905 
4.440000000002991, -0.3254890118901976 
4.450000000002968, -0.3276855977369028 
4.460000000002944, -0.3292809442135326 
4.470000000002921, -0.330338682316791 
4.480000000002898, -0.3309668656195424 
4.490000000002874, -0.3312658060159457 
4.500000000002851, -0.3313066052081441 
4.510000000002828, -0.33112763658658373 
4.520000000002804, -0.33073727784992857 
4.530000000002781, -0.3301180098769457 
4.540000000002758, -0.3292326027518765 
4.5500000000027345, -0.3280368513394797 
4.560000000002711, -0.32650376670700165 
4.570000000002688, -0.32465668428071115 
4.580000000002665, -0.32259271383698274 
4.590000000002641, -0.32047030237767443 
4.600000000002618, -0.31845815864918586 
4.610000000002595, -0.3166795428888282 
4.620000000002571, -0.3151877400700117 
4.630000000002548, -0.3139758373242158 
4.640000000002525, -0.3130012898526313 
4.6500000000025015, -0.31220863665410004 
4.660000000002478, -0.311544627794024 
4.670000000002455, -0.31096614721913624 
4.6800000000024315, -0.31044289895104527 
4.690000000002408, -0.30995702013622367 
4.700000000002385, -0.30950167549480473 
4.710000000002362, -0.30908026390826726 
4.720000000002338, -0.3087072664483299 
4.730000000002315, -0.3084111345776767 
4.740000000002292, -0.3082385010438658 
4.750000000002268, -0.30825549567036203 
4.760000000002245, -0.30853092494149903 
4.770000000002222, -0.3090571325024655 
4.7800000000021985, -0.3095136963539123 
4.790000000002175, -0.3087954086274839 
4.800000000002152, -0.30467130299571166 
4.810000000002129, -0.2948930398012767 
4.820000000002105, -0.2799988981969044 
4.830000000002082, -0.263844675878016 
4.840000000002059, -0.2501534543465717 
4.850000000002035, -0.24018740644589992 
4.860000000002012, -0.23347053352463557 
