t, s[1].omega / s[0].omega 
0, -1.1800054625353207 
0.009999999999999995, -1.1804123551489372 
0.019999999999999934, -1.180545960388192 
0.029999999999999874, -1.1804217000235009 
0.04000000000000012, -1.1800689597381955 
0.050000000000000405, -1.179529404004096 
0.06000000000000069, -1.1788569040078134 
0.07000000000000098, -1.1781190772614936 
0.08000000000000126, -1.1773961087744658 
0.09000000000000155, -1.1767712703227853 
0.10000000000000184, -1.176313568643177 
0.11000000000000212, -1.176060541636855 
0.12000000000000241, -1.1760085731177579 
0.130000000000002, -1.1761131262642626 
0.1400000000000009, -1.1762998507177738 
0.1499999999999998, -1.1764834982961685 
0.1599999999999987, -1.176584780102912 
0.1699999999999976, -1.176537558505602 
0.1799999999999965, -1.1762883667765651 
0.1899999999999954, -1.1757949308639917 
0.1999999999999943, -1.1750273987757351 
0.2099999999999932, -1.173971221292857 
0.2199999999999921, -1.1726291418430215 
0.229999999999991, -1.171022012910266 
0.2399999999999899, -1.169190764550906 
0.2499999999999888, -1.1672016178622415 
0.2599999999999877, -1.1651535257319836 
0.2699999999999866, -1.163182131634471 
0.2799999999999855, -1.1614490468845267 
0.2899999999999844, -1.160104013560418 
0.2999999999999833, -1.1592246134212807 
0.3099999999999822, -1.1587729498992068 
0.3199999999999811, -1.1586131278123764 
0.32999999999998, -1.158576988892103 
0.3399999999999789, -1.15851972147695 
0.3499999999999778, -1.1583320240571642 
0.35999999999997667, -1.1579203271456981 
0.36999999999997557, -1.157178380565726 
0.37999999999997447, -1.15596471631026 
0.38999999999997337, -1.1540952799906428 
0.39999999999997227, -1.1513616214618605 
0.40999999999997117, -1.1475819257650324 
0.41999999999997006, -1.142677450703289 
0.42999999999996896, -1.1367503183113263 
0.43999999999996786, -1.1301368024506593 
0.44999999999996676, -1.1234137920196923 
0.45999999999996566, -1.1173198366364696 
0.46999999999996456, -1.1125466665189883 
0.47999999999996346, -1.109451953480861 
0.48999999999996235, -1.1079020767882157 
0.49999999999996125, -1.1074096583084116 
0.5099999999999602, -1.1074359470891122 
0.519999999999959, -1.1075948315712412 
0.529999999999958, -1.10767657228664 
0.5399999999999568, -1.1075793266529979 
0.5499999999999557, -1.1072345302279296 
0.5599999999999546, -1.1065508076358648 
0.5699999999999535, -1.105367717411219 
0.5799999999999524, -1.1034072021667807 
0.5899999999999513, -1.1002244579674911 
0.5999999999999502, -1.0951924668324948 
0.6099999999999491, -1.0876046111394144 
0.619999999999948, -1.0769984225032465 
0.6299999999999469, -1.0636727676402389 
0.6399999999999458, -1.049058705241587 
0.6499999999999447, -1.0354344978732635 
0.6599999999999436, -1.0249075827782614 
0.6699999999999425, -1.0183774857557255 
0.6799999999999414, -1.0153377553955463 
0.6899999999999403, -1.0145410222965494 
0.6999999999999392, -1.0147958182385355 
0.7099999999999381, -1.015338484044412 
0.719999999999937, -1.015805084892423 
0.7299999999999359, -1.0160660103028512 
0.7399999999999348, -1.016087089275214 
0.7499999999999337, -1.0158488576622298 
0.7599999999999326, -1.015302566319401 
0.7699999999999315, -1.0143376434507994 
0.7799999999999304, -1.012743936314147 
0.7899999999999293, -1.0101630338077616 
0.7999999999999282, -1.0060437502984707 
0.8099999999999271, -0.9996603316438103 
0.819999999999926, -0.9903064002660387 
0.8299999999999249, -0.9777478374474382 
0.8399999999999238, -0.9627606216286461 
0.8499999999999227, -0.9472360178698868 
0.8599999999999216, -0.9334900070618686 
0.8699999999999205, -0.9231883719517363 
0.8799999999999194, -0.916733608588069 
0.8899999999999183, -0.9134593509386916 
0.8999999999999172, -0.912262819245926 
0.9099999999999161, -0.912146415480532 
0.919999999999915, -0.9124415596375302 
0.9299999999999139, -0.9127881146280249 
0.9399999999999128, -0.913025038324699 
0.9499999999999117, -0.9130892830983901 
0.9599999999999106, -0.9129495400369526 
0.9699999999999095, -0.9125675393489038 
0.9799999999999084, -0.9118733385133557 
0.9899999999999073, -0.9107456799107924 
0.9999999999999062, -0.9089970303683474 
1.0099999999999052, -0.9063749914384875 
1.019999999999904, -0.9026042228739541 
1.029999999999903, -0.8974886119567781 
1.039999999999902, -0.8910486279135845 
1.0499999999999008, -0.8836056740371653 
1.0599999999998997, -0.8757321764565786 
1.0699999999998986, -0.868089717413023 
1.0799999999998975, -0.8612575294890765 
1.0899999999998964, -0.8556253233464224 
1.0999999999998953, -0.8513575143999426 
1.1099999999998942, -0.8484091470946227 
1.119999999999893, -0.8465785934021339 
1.129999999999892, -0.8455828899750003 
1.1399999999998909, -0.8451332121110697 
1.1499999999998898, -0.8449872056475268 
1.1599999999998887, -0.844968509723965 
1.1699999999998876, -0.8449602562523643 
1.1799999999998865, -0.8448863938610807 
1.1899999999998854, -0.8446921774387794 
1.1999999999998843, -0.8443298638144944 
1.2099999999998832, -0.8437523015748895 
1.219999999999882, -0.8429158066981239 
1.229999999999881, -0.841791729429317 
1.2399999999998799, -0.8403812823491806 
1.2499999999998788, -0.8387233757038892 
1.2599999999998777, -0.8368877695000201 
1.2699999999998766, -0.8349569172434765 
1.2799999999998755, -0.8330083818143608 
1.2899999999998744, -0.8311067384752322 
1.2999999999998733, -0.8293048172833111 
1.3099999999998722, -0.8276486552296134 
1.319999999999871, -0.8261808444365586 
1.32999999999987, -0.8249398381554094 
1.3399999999998689, -0.8239554794111532 
1.3499999999998678, -0.8232428173927525 
1.3599999999998666, -0.8227971443839266 
1.3699999999998655, -0.8225928952654653 
1.3799999999998644, -0.822587455163427 
1.3899999999998633, -0.8227286436784904 
1.3999999999998622, -0.822963078173338 
1.4099999999998611, -0.8232428012701838 
1.41999999999986, -0.8235290911499866 
1.429999999999859, -0.8237938073863553 
1.4399999999998578, -0.8240188980607084 
1.4499999999998567, -0.8241940996358907 
1.4599999999998556, -0.8243127434129768 
1.4699999999998545, -0.8243668436081288 
1.4799999999998534, -0.8243442427164058 
1.4899999999998523, -0.824230226589391 
1.4999999999998512, -0.824013066575921 
1.5099999999998501, -0.8236900102380071 
1.519999999999849, -0.8232704829255315 
1.529999999999848, -0.8227763204368636 
1.5399999999998468, -0.8222413007960947 
1.5499999999998457, -0.8217119417193992 
1.5599999999998446, -0.8212493569214331 
1.5699999999998435, -0.8209298219018345 
1.5799999999998424, -0.8208409795692265 
1.5899999999998413, -0.8210721047124642 
1.5999999999998402, -0.8217002110023544 
1.6099999999998391, -0.8227768463801628 
1.619999999999838, -0.824320412955894 
1.629999999999837, -0.8263153046106408 
1.6399999999998358, -0.8287147534036972 
1.6499999999998347, -0.831442311622471 
1.6599999999998336, -0.8343889280763523 
1.6699999999998325, -0.8374083637854742 
1.6799999999998314, -0.8403208660324317 
1.6899999999998303, -0.8429368590438383 
1.6999999999998292, -0.8451003524839761 
1.709999999999828, -0.8467302764971473 
1.719999999999827, -0.8478317629118852 
1.729999999999826, -0.8484720812079836 
1.7399999999998248, -0.8487422490916836 
1.7499999999998237, -0.848727432768214 
1.7599999999998226, -0.8484944404383421 
1.7699999999998215, -0.8480934984827379 
1.7799999999998204, -0.8475702317982533 
1.7899999999998193, -0.8469874233079576 
1.7999999999998182, -0.8464592899425138 
1.809999999999817, -0.8461996350598602 
1.819999999999816, -0.8465750813818286 
1.8299999999998149, -0.8481339368718114 
1.8399999999998138, -0.851559645777327 
1.8499999999998127, -0.8575006642995786 
1.8599999999998116, -0.8662811840058418 
1.8699999999998105, -0.8775949381028824 
1.8799999999998094, -0.8903787401539166 
1.8899999999998083, -0.9030551023780591 
1.8999999999998072, -0.9141159746338688 
1.909999999999806, -0.9226897529129608 
1.919999999999805, -0.9286943401784494 
1.9299999999998039, -0.9325687952791236 
1.9399999999998028, -0.9349023996381243 
1.9499999999998017, -0.9362040910459252 
1.9599999999998006, -0.9368329651028567 
1.9699999999997995, -0.9370127208667871 
1.9799999999997984, -0.9368675477366123 
1.9899999999997973, -0.9364534424459464 
1.9999999999997962, -0.9357813381687577 
2.0099999999998173, -0.9348391601825711 
2.0199999999998384, -0.9336280932691399 
2.0299999999998595, -0.9322381378395486 
2.0399999999998806, -0.9309914397939723 
2.0499999999999017, -0.9306464285287357 
2.059999999999923, -0.9325316894026219 
2.069999999999944, -0.9382977417268371 
2.079999999999965, -0.9490252113035009 
2.089999999999986, -0.9640792495680597 
2.100000000000007, -0.980892635222365 
2.1100000000000283, -0.9963123911349092 
2.1200000000000494, -1.008325386553122 
2.1300000000000705, -1.0165862286592788 
2.1400000000000916, -1.0217834051797685 
2.1500000000001127, -1.0248491031111087 
2.160000000000134, -1.0265495969522382 
2.170000000000155, -1.0273992008167763 
2.180000000000176, -1.0277057897964428 
2.190000000000197, -1.027635850667894 
2.2000000000002182, -1.0272635170310676 
2.2100000000002393, -1.0266025155807674 
2.2200000000002604, -1.02563291502923 
2.2300000000002815, -1.0243449466795378 
2.2400000000003026, -1.0228371390907218 
2.2500000000003237, -1.021510679687745 
2.260000000000345, -1.0213350591805088 
2.270000000000366, -1.0239436034216731 
2.280000000000387, -1.031095365596324 
2.290000000000408, -1.0433937207395625 
2.3000000000004293, -1.0592620569659998 
2.3100000000004504, -1.0755328215693503 
2.3200000000004715, -1.0893308422699028 
2.3300000000004926, -1.0993979923852903 
2.3400000000005137, -1.1059634919085923 
2.3500000000005348, -1.1099087503555394 
2.360000000000556, -1.1121220546445816 
2.370000000000577, -1.1132557373801464 
2.380000000000598, -1.1137204342956588 
2.390000000000619, -1.1137510627939713 
2.4000000000006403, -1.113471931407693 
2.4100000000006614, -1.1129480487249321 
2.4200000000006825, -1.1122349653378634 
2.4300000000007036, -1.111449001396163 
2.4400000000007247, -1.1108719387791486 
2.450000000000746, -1.1110515285333296 
2.460000000000767, -1.1127584508423902 
2.470000000000788, -1.1166574021940348 
2.480000000000809, -1.1228366331369124 
2.49000000000083, -1.1306318915561437 
2.5000000000008513, -1.1389313058860953 
2.5100000000008724, -1.1466603259021793 
2.5200000000008935, -1.1531014372857178 
2.5300000000009146, -1.1579713667695366 
2.5400000000009357, -1.161336401640543 
2.550000000000957, -1.1634602162435557 
2.560000000000978, -1.1646593615918315 
2.570000000000999, -1.165211690961532 
2.58000000000102, -1.1653235173195455 
2.5900000000010412, -1.165136335186326 
2.6000000000010624, -1.164753075326602 
2.6100000000010835, -1.1642732450417637 
2.6200000000011046, -1.163829154424352 
2.6300000000011257, -1.1636041382161322 
2.6400000000011468, -1.1638018110303525 
2.650000000001168, -1.1645616647602295 
2.660000000001189, -1.165881788786114 
2.67000000000121, -1.1676214792992083 
2.680000000001231, -1.1695744904144265 
2.6900000000012523, -1.1715438133076 
2.7000000000012734, -1.1733774312460326 
2.7100000000012945, -1.174971507679718 
2.7200000000013156, -1.1762612186325814 
2.7300000000013367, -1.1772122369645235 
2.740000000001358, -1.1778164686677652 
2.750000000001379, -1.1780896198432227 
2.7600000000014, -1.178066969813578 
2.770000000001421, -1.1777970711062729 
2.780000000001442, -1.177336965713908 
2.7900000000014633, -1.1767522662173293 
2.8000000000014844, -1.1761205379704294 
2.8100000000015055, -1.1755305381899661 
2.8200000000015266, -1.175069665958298 
2.8300000000015477, -1.1748019592457635 
2.840000000001569, -1.174750138490476 
2.85000000000159, -1.1748920133219654 
2.860000000001611, -1.1751694913987902 
2.870000000001632, -1.1755042227093668 
2.8800000000016532, -1.1758148477339587 
2.8900000000016743, -1.1760299617799148 
2.9000000000016954, -1.1760933176204655 
2.9100000000017165, -1.175963515105803 
2.9200000000017377, -1.1756125424992143 
2.9300000000017588, -1.1750251089208257 
2.94000000000178, -1.1741982941518647 
2.950000000001801, -1.1731412166260076 
2.960000000001822, -1.1718757538543663 
2.970000000001843, -1.1704395117550739 
2.9800000000018643, -1.1688907991883668 
2.9900000000018854, -1.16731324656677 
3.0000000000019065, -1.1658155792770495 
3.0100000000019276, -1.1645200310665627 
3.0200000000019487, -1.1635332160315095 
3.03000000000197, -1.162904136541491 
3.040000000001991, -1.162595687237144 
3.050000000002012, -1.1624982883372716 
3.060000000002033, -1.1624767413390065 
3.070000000002054, -1.1624100722125872 
3.0800000000020753, -1.1622004476892243 
3.0900000000020964, -1.1617589945609526 
3.1000000000021175, -1.1609867216052172 
3.1100000000021386, -1.1597638120308815 
3.1200000000021597, -1.1579553075751385 
3.130000000002181, -1.1554364003143336 
3.140000000002202, -1.1521318785834187 
3.150000000002223, -1.1480561366768367 
3.160000000002244, -1.1433427727003598 
3.1700000000022652, -1.1382625467484748 
3.1800000000022863, -1.1332246577196279 
3.1900000000023074, -1.128731142656711 
3.2000000000023285, -1.1252441298706866 
3.2100000000023496, -1.1229934305242548 
3.2200000000023707, -1.1218673451197525 
3.230000000002392, -1.1215057078662212 
3.240000000002413, -1.1215104764223884 
3.250000000002434, -1.121590317670146 
3.260000000002455, -1.1215777099952742 
3.2700000000024763, -1.1213776043249322 
3.2800000000024974, -1.1209081370364289 
3.2900000000025185, -1.1200514637901278 
3.3000000000025396, -1.118609788436024 
3.3100000000025607, -1.1162629986324157 
3.3200000000025818, -1.1125433864478484 
3.330000000002603, -1.106876130056929 
3.340000000002624, -1.098758481729405 
3.350000000002645, -1.0881029979350232 
3.360000000002666, -1.0756049163210553 
3.3700000000026873, -1.0628169745780973 
3.3800000000027084, -1.0516759440039478 
3.3900000000027295, -1.0436368313792115 
3.4000000000027506, -1.0390240615391864 
3.4100000000027717, -1.0371163978711342 
3.420000000002793, -1.0367932890846339 
3.430000000002814, -1.037124162611287 
3.440000000002835, -1.0375651537316974 
3.450000000002856, -1.037876059056797 
3.460000000002877, -1.0379744273803138 
3.4700000000028983, -1.0378291415814895 
3.4800000000029194, -1.0373994080659252 
3.4900000000029405, -1.0365958928293897 
3.5000000000029616, -1.0352430687721967 
3.5100000000029827, -1.0330315510707775 
3.520000000003004, -1.029466045448682 
3.530000000003025, -1.0238511377227704 
3.540000000003046, -1.0154161997268223 
3.550000000003067, -1.003698856948024 
3.5600000000030882, -0.9891275541431688 
3.5700000000031094, -0.973355188152824 
3.5800000000031305, -0.9587980731753462 
3.5900000000031516, -0.9475077903030822 
3.6000000000031727, -0.9402637293306437 
3.6100000000031938, -0.9365509667869724 
3.620000000003215, -0.935209593169431 
3.630000000003236, -0.9351107180615795 
3.640000000003257, -0.9354798655151031 
3.650000000003278, -0.9359018399742218 
3.6600000000032993, -0.936197320229932 
3.6700000000033204, -0.9363026439561507 
3.6800000000033415, -0.9361915571905094 
3.6900000000033626, -0.935830917049908 
3.7000000000033837, -0.9351530258185623 
3.710000000003405, -0.9340321259323936 
3.720000000003426, -0.9322612902128966 
3.730000000003447, -0.9295389854200173 
3.740000000003468, -0.9254935176800357 
3.750000000003489, -0.9197854035921752 
3.7600000000035103, -0.9122946346380882 
3.7700000000035314, -0.9033041526197352 
3.7800000000035525, -0.8935254854090544 
3.7900000000035736, -0.8839066907046076 
3.8000000000035947, -0.875338477139173 
3.810000000003616, -0.8684231327683765 
3.820000000003637, -0.8633822221232921 
3.830000000003658, -0.860092278445452 
3.840000000003679, -0.8582036499466014 
3.8500000000037002, -0.8572861516247465 
3.8600000000037213, -0.8569468905033443 
3.8700000000037424, -0.8568898551923061 
3.8800000000037635, -0.8569212732959299 
3.8900000000037847, -0.8569247912426086 
3.9000000000038058, -0.8568294750783808 
3.910000000003827, -0.8565829352302619 
3.920000000003848, -0.8561332463826645 
3.930000000003869, -0.8554203811201561 
3.94000000000389, -0.8543786300890146 
3.9500000000039113, -0.8529516584087261 
3.9600000000039324, -0.8511169401261357 
3.9700000000039535, -0.8489068469482165 
3.9800000000039746, -0.8464102270554124 
3.9900000000039957, -0.8437508192465939 
4.000000000004016, -0.8410570528335958 
4.010000000003993, -0.8384411983201803 
4.02000000000397, -0.8359935794631435 
4.030000000003946, -0.8337857892449666 
4.040000000003923, -0.8318744444055873 
4.0500000000039, -0.830300787033196 
4.0600000000038765, -0.8290861320088485 
4.070000000003853, -0.828226379304599 
4.08000000000383, -0.8276898591148883 
4.090000000003807, -0.827421316596103 
4.100000000003783, -0.8273514766552594 
4.11000000000376, -0.8274085244685825 
4.120000000003737, -0.8275272857198871 
4.130000000003713, -0.8276540372995234 
4.14000000000369, -0.827747682704229 
4.150000000003667, -0.8277794038061025 
4.1600000000036434, -0.8277322652366965 
4.17000000000362, -0.8276004698461703 
4.180000000003597, -0.827386798179494 
4.1900000000035735, -0.8270977292579618 
4.20000000000355, -0.8267382506572026 
4.210000000003527, -0.826309620277898 
4.220000000003504, -0.8258115323649085 
4.23000000000348, -0.8252469786584189 
4.240000000003457, -0.8246267898524533 
4.250000000003434, -0.8239722391868917 
4.26000000000341, -0.8233160547401415 
4.270000000003387, -0.82270257590311 
4.280000000003364, -0.8221866966877693 
4.2900000000033405, -0.8218302541638274 
4.300000000003317, -0.8216949726329444 
4.310000000003294, -0.8218330049737965 
4.320000000003271, -0.8222781354668868 
4.330000000003247, -0.8230410091252642 
4.340000000003224, -0.8241098171554022 
4.350000000003201, -0.8254550418267398 
4.360000000003177, -0.8270349690713521 
4.370000000003154, -0.8287985438432205 
4.380000000003131, -0.8306836815083651 
4.390000000003107, -0.8326121750392167 
4.400000000003084, -0.8344863810425153 
4.410000000003061, -0.8361954765737046 
4.4200000000030375, -0.837635417141217 
4.430000000003014, -0.8387353734637418 
4.440000000002991, -0.8394742023171775 
4.450000000002968, -0.8398763052524802 
4.460000000002944, -0.8399924416095272 
4.470000000002921, -0.8398797503229453 
4.480000000002898, -0.8395908574479926 
4.490000000002874, -0.8391741964673693 
4.500000000002851, -0.8386842508479658 
4.510000000002828, -0.8382007052348565 
4.520000000002804, -0.8378554250303019 
4.530000000002781, -0.8378623628316871 
4.540000000002758, -0.83853708212811 
4.5500000000027345, -0.8402840970332303 
4.560000000002711, -0.8435318589755321 
4.570000000002688, -0.8486141194952099 
4.580000000002665, -0.8556248563197093 
4.590000000002641, -0.8642958199659605 
4.600000000002618, -0.8739572546269736 
4.610000000002595, -0.8836433464750202 
4.620000000002571, -0.8923598052890324 
4.630000000002548, -0.8994092744185727 
4.640000000002525, -0.9045725623636786 
4.6500000000025015, -0.9080393237459752 
4.660000000002478, -0.9101923448202227 
4.670000000002455, -0.9114178649804872 
4.6800000000024315, -0.9120155319239505 
4.690000000002408, -0.9121846945436112 
4.700000000002385, -0.9120425584187133 
4.710000000002362, -0.9116475871220449 
4.720000000002338, -0.9110205892740101 
4.730000000002315, -0.9101676220499166 
4.740000000002292, -0.9091171195587437 
4.750000000002268, -0.9079910992510962 
4.760000000002245, -0.9071298657973509 
4.770000000002222, -0.9072569460924086 
4.7800000000021985, -0.9095741514313407 
4.790000000002175, -0.915546235492951 
4.800000000002152, -0.9261715577119707 
4.810000000002129, -0.9410024176215643 
4.820000000002105, -0.957822440261274 
4.830000000002082, -0.973652272940868 
4.840000000002059, -0.9863396431895859 
4.850000000002035, -0.9952898975987401 
4.860000000002012, -1.0010395024356995 
4.870000000001989, -1.0044920593268787 
4.880000000001965, -1.0064465848268083 
4.890000000001942, -1.0074614846389516 
4.900000000001919, -1.0078807732044872 
4.9100000000018955, -1.0078967280884223 
4.920000000001872, -1.0076015201680324 
4.930000000001849, -1.0070210405410818 
