t, s[1].omega / s[0].omega 
0, -0.8199905484309513 
0.009999999999999995, -0.8190119969732172 
0.019999999999999934, -0.8179865993361608 
0.029999999999999874, -0.8169381404368119 
0.04000000000000012, -0.8158866709228869 
0.050000000000000405, -0.8148535871553589 
0.06000000000000069, -0.8138657927407763 
0.07000000000000098, -0.8129573310624242 
0.08000000000000126, -0.8121680950259046 
0.09000000000000155, -0.8115397553577969 
0.10000000000000184, -0.8111096069699864 
0.11000000000000212, -0.810903897410285 
0.12000000000000241, -0.8109328069311147 
0.130000000000002, -0.811188900059298 
0.1400000000000009, -0.8116495521406387 
0.1499999999999998, -0.8122822813323625 
0.1599999999999987, -0.8130509063250855 
0.1699999999999976, -0.8139203488107059 
0.1799999999999965, -0.814858481765663 
0.1899999999999954, -0.8158343411033411 
0.1999999999999943, -0.816813344240453 
0.2099999999999932, -0.8177521569707308 
0.2199999999999921, -0.8185977182365576 
0.229999999999991, -0.8192941610545015 
0.2399999999999899, -0.8197961989112285 
0.2499999999999888, -0.8200813596122518 
0.2599999999999877, -0.8201533445852605 
0.2699999999999866, -0.8200360013330315 
0.2799999999999855, -0.8197642368895737 
0.2899999999999844, -0.8193786968340568 
0.2999999999999833, -0.8189274219541529 
0.3099999999999822, -0.818474414544319 
0.3199999999999811, -0.8181130430826643 
0.32999999999998, -0.8179800087292272 
0.3399999999999789, -0.8182625889314658 
0.3499999999999778, -0.8191901755181208 
0.35999999999997667, -0.8210044072419237 
0.36999999999997557, -0.8239110439485838 
0.37999999999997447, -0.8280251635934366 
0.38999999999997337, -0.8333220086064108 
0.39999999999997227, -0.8396009840799614 
0.40999999999997117, -0.84647205300341 
0.41999999999997006, -0.8533877175774943 
0.42999999999996896, -0.8597487270460265 
0.43999999999996786, -0.86507002359043 
0.44999999999996676, -0.8691198544906739 
0.45999999999996566, -0.8719377465130492 
0.46999999999996456, -0.8737354482821802 
0.47999999999996346, -0.8747706242430511 
0.48999999999996235, -0.8752651458523785 
0.49999999999996125, -0.8753772861391733 
0.5099999999999602, -0.8752051954210442 
0.519999999999959, -0.8748012130254509 
0.529999999999958, -0.874188754725455 
0.5399999999999568, -0.8733836792399325 
0.5499999999999557, -0.8724296698302991 
0.5599999999999546, -0.8714630104967144 
0.5699999999999535, -0.8708204181240868 
0.5799999999999524, -0.8711765909725848 
0.5899999999999513, -0.8736236674354168 
0.5999999999999502, -0.8795023627027474 
0.6099999999999491, -0.8898019242475718 
0.619999999999948, -0.9042800385749864 
0.6299999999999469, -0.9210255137166554 
0.6399999999999458, -0.9371926027299041 
0.6499999999999447, -0.9504935767452979 
0.6599999999999436, -0.9601006354678804 
0.6699999999999425, -0.9663991097167841 
0.6799999999999414, -0.970253452972158 
0.6899999999999403, -0.9724844984293612 
0.6999999999999392, -0.9736878681404748 
0.7099999999999381, -0.9742403001889095 
0.719999999999937, -0.9743580132417554 
0.7299999999999359, -0.9741491285829659 
0.7399999999999348, -0.9736475125285396 
0.7499999999999337, -0.9728319924751736 
0.7599999999999326, -0.9716414032839676 
0.7699999999999315, -0.9700045533599443 
0.7799999999999304, -0.9679203260850079 
0.7899999999999293, -0.9656369619220225 
0.7999999999999282, -0.9639397121230614 
0.8099999999999271, -0.964367554042197 
0.819999999999926, -0.9688844265099062 
0.8299999999999249, -0.9786541397107943 
0.8399999999999238, -0.9926730625932996 
0.8499999999999227, -1.0079308948077246 
0.8599999999999216, -1.0213207629897014 
0.8699999999999205, -1.0312938480889038 
0.8799999999999194, -1.0379017217636624 
0.8899999999999183, -1.0419420198671534 
0.8999999999999172, -1.0442644811545068 
0.9099999999999161, -1.0455038395526945 
0.919999999999915, -1.0460631785456869 
0.9299999999999139, -1.0461723396276228 
0.9399999999999128, -1.0459448466502845 
0.9499999999999117, -1.0454161070958379 
0.9599999999999106, -1.0445683788189677 
0.9699999999999095, -1.0433589796075864 
0.9799999999999084, -1.0417831986982884 
0.9899999999999073, -1.0400232260408113 
0.9999999999999062, -1.038721665629155 
1.0099999999999052, -1.0392689292627764 
1.019999999999904, -1.0436644758271214 
1.029999999999903, -1.0534418691671488 
1.039999999999902, -1.0681133532269584 
1.0499999999999008, -1.0848445330681629 
1.0599999999998997, -1.1001514507613332 
1.0699999999998986, -1.1119109390429238 
1.0799999999998975, -1.119837922453265 
1.0899999999998964, -1.1247045345223743 
1.0999999999998953, -1.1274872535661253 
1.1099999999998942, -1.1289610301016482 
1.119999999999893, -1.1296318215313346 
1.129999999999892, -1.1297957130018097 
1.1399999999998909, -1.1296125239270915 
1.1499999999998898, -1.1291643088665606 
1.1599999999998887, -1.128506007031227 
1.1699999999998876, -1.127729370756313 
1.1799999999998865, -1.12705971124793 
1.1899999999998854, -1.1269653893002531 
1.1999999999998843, -1.1281628907734527 
1.2099999999998832, -1.1313535826386745 
1.219999999999882, -1.1367588394046173 
1.229999999999881, -1.143867598169609 
1.2399999999998799, -1.151667326693431 
1.2499999999998788, -1.1591131770555534 
1.2599999999998777, -1.16546346134276 
1.2699999999998766, -1.170377008433319 
1.2799999999998755, -1.173852158803951 
1.2899999999998744, -1.176097926327424 
1.2999999999998733, -1.1774009000328118 
1.3099999999998722, -1.1780304116280007 
1.319999999999871, -1.178195911919769 
1.32999999999987, -1.1780452603510834 
1.3399999999998689, -1.1776859360694447 
1.3499999999998678, -1.1772170940552078 
1.3599999999998666, -1.1767633882750197 
1.3699999999998655, -1.1764924831456471 
1.3799999999998644, -1.1765884176411054 
1.3899999999998633, -1.1771770679354652 
1.3999999999998622, -1.1782583631788932 
1.4099999999998611, -1.1797095322287336 
1.41999999999986, -1.1813501015836423 
1.429999999999859, -1.18300748696162 
1.4399999999998578, -1.1845483704165716 
1.4499999999998567, -1.1858817429367117 
1.4599999999998556, -1.186950634429695 
1.4699999999998545, -1.1877236275746095 
1.4799999999998534, -1.1881901044091012 
1.4899999999998523, -1.1883583250569898 
1.4999999999998512, -1.1882534688153867 
1.5099999999998501, -1.1879143274179547 
1.519999999999849, -1.1873904873861614 
1.529999999999848, -1.1867425257365865 
1.5399999999998468, -1.186044131217883 
1.5499999999998457, -1.1853800731454018 
1.5599999999998446, -1.1848340962765318 
1.5699999999998435, -1.184469401780211 
1.5799999999998424, -1.184312337507539 
1.5899999999998413, -1.184346505675295 
1.5999999999998402, -1.1845174145958923 
1.6099999999998391, -1.1847463633823372 
1.619999999999838, -1.1849491379345793 
1.629999999999837, -1.185050434602374 
1.6399999999998358, -1.184988851583919 
1.6499999999998347, -1.1847158509152744 
1.6599999999998336, -1.1841946920662445 
1.6699999999998325, -1.1834016566323236 
1.6799999999998314, -1.1823280533164313 
1.6899999999998303, -1.1809813271152547 
1.6999999999998292, -1.1793860559164262 
1.709999999999828, -1.1775871478743363 
1.719999999999827, -1.1756562598523954 
1.729999999999826, -1.173699087237967 
1.7399999999998248, -1.1718565598825355 
1.7499999999998237, -1.1702879021405173 
1.7599999999998226, -1.1691254465806613 
1.7699999999998215, -1.1684146011047634 
1.7799999999998204, -1.168085203276347 
1.7899999999998193, -1.1679868882024758 
1.7999999999998182, -1.1679570689527745 
1.809999999999817, -1.167863842232625 
1.819999999999816, -1.1676055468911002 
1.8299999999998149, -1.1670859365298343 
1.8399999999998138, -1.1661863430966983 
1.8499999999998127, -1.1647469570640856 
1.8599999999998116, -1.1625668809165706 
1.8699999999998105, -1.1594336878542986 
1.8799999999998094, -1.1551864246623875 
1.8899999999998083, -1.1497988066081022 
1.8999999999998072, -1.1434564510787868 
1.909999999999806, -1.1366029075465154 
1.919999999999805, -1.1299227690410516 
1.9299999999998039, -1.1242062181790449 
1.9399999999998028, -1.1200701843562202 
1.9499999999998017, -1.1176719563815232 
1.9599999999998006, -1.1166713683474627 
1.9699999999997995, -1.1164940527791065 
1.9799999999997984, -1.116636747298142 
1.9899999999997973, -1.1167909141027494 
1.9999999999997962, -1.1168055634235938 
2.0099999999998173, -1.1166036709158642 
2.0199999999998384, -1.1161128649433416 
2.0299999999998595, -1.1152138526784947 
2.0399999999998806, -1.1136916710175178 
2.0499999999999017, -1.1111802259146102 
2.059999999999923, -1.1071130793394452 
2.069999999999944, -1.1007407301498087 
2.079999999999965, -1.0913346518384839 
2.089999999999986, -1.0786760618045108 
2.100000000000007, -1.063665137438246 
2.1100000000000283, -1.0484755374657977 
2.1200000000000494, -1.0357389207806582 
2.1300000000000705, -1.0271633079874465 
2.1400000000000916, -1.0227739843198616 
2.1500000000001127, -1.0213635247757407 
2.160000000000134, -1.021490686754953 
2.170000000000155, -1.022126941504918 
2.180000000000176, -1.0227476645318114 
2.190000000000197, -1.0231581528570393 
2.2000000000002182, -1.0233127079193078 
2.2100000000002393, -1.0232042872681555 
2.2200000000002604, -1.0228083784581847 
2.2300000000002815, -1.0220494006053973 
2.2400000000003026, -1.020766805422264 
2.2500000000003237, -1.0186683175911468 
2.260000000000345, -1.015271634458775 
2.270000000000366, -1.0098685072913787 
2.280000000000387, -1.00160940932155 
2.290000000000408, -0.9898597403267398 
2.3000000000004293, -0.9748467484224757 
2.3100000000004504, -0.9581690375644325 
2.3200000000004715, -0.9424474324581885 
2.3300000000004926, -0.9300675264543197 
2.3400000000005137, -0.9220390556736641 
2.3500000000005348, -0.9178856705823177 
2.360000000000556, -0.9163644629406491 
2.370000000000577, -0.9162385590051951 
2.380000000000598, -0.9166512236052716 
2.390000000000619, -0.9171399896987745 
2.4000000000006403, -0.9175048196932968 
2.4100000000006614, -0.9176772820722847 
2.4200000000006825, -0.9176352076369676 
2.4300000000007036, -0.9173553679472976 
2.4400000000007247, -0.9167858367549515 
2.450000000000746, -0.9158242875478673 
2.460000000000767, -0.9142965125434518 
2.470000000000788, -0.9119404465288818 
2.480000000000809, -0.9084175234284162 
2.49000000000083, -0.9033881024279516 
2.5000000000008513, -0.8966704050521181 
2.5100000000008724, -0.8884238890172143 
2.5200000000008935, -0.8792172009641032 
2.5300000000009146, -0.8698922964218584 
2.5400000000009357, -0.8613031463870933 
2.550000000000957, -0.8540878548325223 
2.560000000000978, -0.84856092028626 
2.570000000000999, -0.844719326240401 
2.58000000000102, -0.8423233438023179 
2.5900000000010412, -0.8410117781493336 
2.6000000000010624, -0.8404119381179228 
2.6100000000010835, -0.8402128528057397 
2.6200000000011046, -0.8401917633818019 
2.6300000000011257, -0.8402054134660414 
2.6400000000011468, -0.840165540909342 
2.650000000001168, -0.8400133901202478 
2.660000000001189, -0.8397002617394632 
2.67000000000121, -0.8391763655437499 
2.680000000001231, -0.8383891793596485 
2.6900000000012523, -0.8372923486801165 
2.7000000000012734, -0.8358631119582081 
2.7100000000012945, -0.8341194465383415 
2.7200000000013156, -0.832124117127235 
2.7300000000013367, -0.8299702375651827 
2.740000000001358, -0.827757478955186 
2.750000000001379, -0.8255738039334201 
2.7600000000014, -0.823489704746622 
2.770000000001421, -0.8215615053882301 
2.780000000001442, -0.8198365971870458 
2.7900000000014633, -0.8183556354257335 
2.8000000000014844, -0.8171503486827506 
2.8100000000015055, -0.816238371910129 
2.8200000000015266, -0.8156180168690366 
2.8300000000015477, -0.8152660760543851 
2.840000000001569, -0.8151404719734728 
2.85000000000159, -0.8151872247656693 
2.860000000001611, -0.8153491546545405 
2.870000000001632, -0.8155733470159511 
2.8800000000016532, -0.8158157667185406 
2.8900000000016743, -0.8160431853710801 
2.9000000000016954, -0.8162333512079307 
2.9100000000017165, -0.8163737932578954 
2.9200000000017377, -0.8164588487484853 
2.9300000000017588, -0.816484900443258 
2.94000000000178, -0.8164455993355512 
2.950000000001801, -0.816330113376632 
2.960000000001822, -0.8161260749095716 
2.970000000001843, -0.8158255484608741 
2.9800000000018643, -0.8154303058105465 
2.9900000000018854, -0.8149541024974136 
3.0000000000019065, -0.8144227279232374 
3.0100000000019276, -0.8138740682622594 
3.0200000000019487, -0.8133593299751724 
3.03000000000197, -0.8129443785312634 
3.040000000001991, -0.8127085852802212 
3.050000000002012, -0.8127387495386044 
3.060000000002033, -0.8131179066587932 
3.070000000002054, -0.81391206962977 
3.0800000000020753, -0.8151597175588767 
3.0900000000020964, -0.8168673013643909 
3.1000000000021175, -0.8190100862182861 
3.1100000000021386, -0.821534239853514 
3.1200000000021597, -0.8243556790042896 
3.130000000002181, -0.8273546633286484 
3.140000000002202, -0.8303718673548559 
3.150000000002223, -0.833218050077071 
3.160000000002244, -0.8357068754649667 
3.1700000000022652, -0.8377025729052958 
3.1800000000022863, -0.8391541703069543 
3.1900000000023074, -0.8400930373849222 
3.2000000000023285, -0.8405998588183816 
3.2100000000023496, -0.8407666921614865 
3.2200000000023707, -0.8406729299114893 
3.230000000002392, -0.8403782081667629 
3.240000000002413, -0.8399277910633629 
3.250000000002434, -0.8393672936058895 
3.260000000002455, -0.8387678505433295 
3.2700000000024763, -0.8382654386199772 
3.2800000000024974, -0.8381151542002094 
3.2900000000025185, -0.8387482080286063 
3.3000000000025396, -0.8407949326913888 
3.3100000000025607, -0.8450133681891241 
3.3200000000025818, -0.8520702484024453 
3.330000000002603, -0.8621907149336696 
3.340000000002624, -0.8748228710383013 
3.350000000002645, -0.8885802085879506 
3.360000000002666, -0.901660764366784 
3.3700000000026873, -0.9125803327674756 
3.3800000000027084, -0.9206980009197586 
3.3900000000027295, -0.9261851670963879 
3.4000000000027506, -0.9296274960712096 
3.4100000000027717, -0.9316513562090398 
3.420000000002793, -0.9327465663890286 
3.430000000002814, -0.9332390899998189 
3.440000000002835, -0.9333231532859753 
3.450000000002856, -0.9331002140816846 
3.460000000002877, -0.932608106535439 
3.4700000000028983, -0.9318411828006228 
3.4800000000029194, -0.9307704748669533 
3.4900000000029405, -0.929381030327024 
3.5000000000029616, -0.9277546828191306 
3.5100000000029827, -0.9262298566174572 
3.520000000003004, -0.9256260152591681 
3.530000000003025, -0.9273719045292876 
3.540000000003046, -0.9331771351979331 
3.550000000003067, -0.944002611601453 
3.5600000000030882, -0.9589014041384347 
3.5700000000031094, -0.975064447513746 
3.5800000000031305, -0.9894371797131779 
3.5900000000031516, -1.0003410904463228 
3.6000000000031727, -1.0076978041218232 
3.6100000000031938, -1.0122720126904947 
3.620000000003215, -1.0149497491500363 
3.630000000003236, -1.0164204786287157 
3.640000000003257, -1.0171344943611154 
3.650000000003278, -1.0173559845287619 
3.6600000000032993, -1.0172225539435018 
3.6700000000033204, -1.016786627076314 
3.6800000000033415, -1.0160401941881445 
3.6900000000033626, -1.0149341675326693 
3.7000000000033837, -1.0134139365364923 
3.710000000003405, -1.0115111172212559 
3.720000000003426, -1.0095461861983035 
3.730000000003447, -1.0084440118613494 
3.740000000003468, -1.0099330532989925 
3.750000000003489, -1.0160754105398115 
3.7600000000035103, -1.0278304104341247 
3.7700000000035314, -1.0436936742073901 
3.7800000000035525, -1.060209587111483 
3.7900000000035736, -1.0741871380593495 
3.8000000000035947, -1.0842802418708744 
3.810000000003616, -1.0907857803969851 
3.820000000003637, -1.094659604002387 
3.830000000003658, -1.096821584027262 
3.840000000003679, -1.0979264621735543 
3.8500000000037002, -1.0983769255415061 
3.8600000000037213, -1.0983977295246237 
3.8700000000037424, -1.0981011105198268 
3.8800000000037635, -1.0975340691785282 
3.8900000000037847, -1.0967215163764912 
3.9000000000038058, -1.0957315759857038 
3.910000000003827, -1.0947947884755922 
3.920000000003848, -1.0944761568810724 
3.930000000003869, -1.0957728237895301 
3.94000000000389, -1.099857464038946 
3.9500000000039113, -1.1073622903776497 
3.9600000000039324, -1.1177220939329922 
3.9700000000039535, -1.1292988946696418 
3.9800000000039746, -1.1402229499367633 
3.9900000000039957, -1.1491986356364274 
4.000000000004016, -1.1557760640901336 
4.010000000003993, -1.16015564144253 
4.02000000000397, -1.1628336759498292 
4.030000000003946, -1.1643252290120931 
4.040000000003923, -1.1650346802997036 
4.0500000000039, -1.1652351324790395 
4.0600000000038765, -1.1650969214021334 
4.070000000003853, -1.1647296400928133 
4.08000000000383, -1.1642279450860484 
4.090000000003807, -1.1637216111755864 
4.100000000003783, -1.1634185499544312 
4.11000000000376, -1.1636000577273533 
4.120000000003737, -1.1645254256423656 
4.130000000003713, -1.166286532568388 
4.14000000000369, -1.1687431729460456 
4.150000000003667, -1.1716003719011308 
4.1600000000036434, -1.1745405098002322 
4.17000000000362, -1.1773078257080936 
4.180000000003597, -1.1797288557040528 
4.1900000000035735, -1.181702083693088 
4.20000000000355, -1.1831842390586107 
4.210000000003527, -1.1841804816653716 
4.220000000003504, -1.1847341895677825 
4.23000000000348, -1.184912715855916 
4.240000000003457, -1.1847922799266497 
4.250000000003434, -1.1844488789755947 
4.26000000000341, -1.1839591354581223 
4.270000000003387, -1.183408211141213 
4.280000000003364, -1.1828948189831845 
4.2900000000033405, -1.1825209954845883 
4.300000000003317, -1.182364944667839 
4.310000000003294, -1.182454588140768 
4.320000000003271, -1.1827621760051596 
4.330000000003247, -1.1832198251977724 
4.340000000003224, -1.1837416371630851 
4.350000000003201, -1.1842424869733144 
4.360000000003177, -1.1846501465577786 
4.370000000003154, -1.184910001579887 
4.380000000003131, -1.1849843457346705 
4.390000000003107, -1.1848497107381193 
4.400000000003084, -1.1844944477698314 
4.410000000003061, -1.1839171849328947 
4.4200000000030375, -1.1831264682894473 
4.430000000003014, -1.182142048334808 
4.440000000002991, -1.1809979463728304 
4.450000000002968, -1.1797465140629302 
4.460000000002944, -1.1784612930142888 
4.470000000002921, -1.1772352058027842 
4.480000000002898, -1.1761702453163756 
4.490000000002874, -1.1753555105142137 
4.500000000002851, -1.1748357464154624 
4.510000000002828, -1.174586695428736 
4.520000000002804, -1.174520289531865 
4.530000000002781, -1.1745193670905192 
4.540000000002758, -1.174472656016482 
4.5500000000027345, -1.1742865603610295 
4.560000000002711, -1.1738764427700654 
4.570000000002688, -1.173152844110739 
4.580000000002665, -1.1720153908205448 
4.590000000002641, -1.170360756088775 
4.600000000002618, -1.1681041639444927 
4.610000000002595, -1.1652067165781221 
4.620000000002571, -1.1616988330607687 
4.630000000002548, -1.1576971017643671 
4.640000000002525, -1.153418660284799 
4.6500000000025015, -1.1491888184789687 
4.660000000002478, -1.1454132039817764 
4.670000000002455, -1.1424750072031011 
4.6800000000024315, -1.1405731851120928 
4.690000000002408, -1.1396208434264155 
4.700000000002385, -1.1393145394676902 
4.710000000002362, -1.1393116331733677 
4.720000000002338, -1.1393565675299284 
4.730000000002315, -1.139297065706066 
4.740000000002292, -1.1390386808240718 
4.750000000002268, -1.1384901858900371 
4.760000000002245, -1.1375159859798776 
4.770000000002222, -1.1358924978034792 
4.7800000000021985, -1.13326954757183 
4.790000000002175, -1.129159767653618 
4.800000000002152, -1.1230105389850558 
4.810000000002129, -1.1144214925698874 
4.820000000002105, -1.1034962236964019 
4.830000000002082, -1.0911488951670019 
4.840000000002059, -1.0790567704285206 
4.850000000002035, -1.0690729976668258 
4.860000000002012, -1.0623564979154145 
4.870000000001989, -1.0588789257693751 
4.880000000001965, -1.0577149949704512 
4.890000000001942, -1.0577534296767008 
4.900000000001919, -1.0581894707095418 
4.9100000000018955, -1.0586048729789337 
4.920000000001872, -1.05883631390977 
4.930000000001849, -1.0588327678140548 
