t, s[1].omega / s[0].omega 
0, -1.0499982105786778 
0.009999999999999995, -1.0497214076931427 
0.019999999999999934, -1.0492494839126683 
0.029999999999999874, -1.048605076634343 
0.04000000000000012, -1.0478743594931994 
0.050000000000000405, -1.047204671907166 
0.06000000000000069, -1.0467452666247674 
0.07000000000000098, -1.0465755178174492 
0.08000000000000126, -1.0466568157408938 
0.09000000000000155, -1.0468328308989998 
0.10000000000000184, -1.0469206744681772 
0.11000000000000212, -1.046797182185727 
0.12000000000000241, -1.046421613643548 
0.130000000000002, -1.045817350575614 
0.1400000000000009, -1.0450231591017836 
0.1499999999999998, -1.0440749597724146 
0.1599999999999987, -1.04304122377562 
0.1699999999999976, -1.042050081238456 
0.1799999999999965, -1.0412664743331967 
0.1899999999999954, -1.0408255239581168 
0.1999999999999943, -1.0407247524121792 
0.2099999999999932, -1.0407837500569712 
0.2199999999999921, -1.0407707733980687 
0.229999999999991, -1.0405130080118057 
0.2399999999999899, -1.039919517684867 
0.2499999999999888, -1.0389972874391522 
0.2599999999999877, -1.037822400424486 
0.2699999999999866, -1.036474050679035 
0.2799999999999855, -1.0350316532309836 
0.2899999999999844, -1.0336220463697687 
0.2999999999999833, -1.032439756034424 
0.3099999999999822, -1.0316878958738487 
0.3199999999999811, -1.0314082076187225 
0.32999999999998, -1.0313915023180193 
0.3399999999999789, -1.0313482349616876 
0.3499999999999778, -1.0310558321513223 
0.35999999999997667, -1.0303609836684826 
0.36999999999997557, -1.02920795290685 
0.37999999999997447, -1.027674181993969 
0.38999999999997337, -1.0258961928933572 
0.39999999999997227, -1.0239959013240678 
0.40999999999997117, -1.022113745859613 
0.41999999999997006, -1.020470167942411 
0.42999999999996896, -1.0193362442209128 
0.43999999999996786, -1.0188261435153654 
0.44999999999996676, -1.018729407682453 
0.45999999999996566, -1.0186968289952392 
0.46999999999996456, -1.0184571605800274 
0.47999999999996346, -1.0178106145130401 
0.48999999999996235, -1.0166221768680015 
0.49999999999996125, -1.0149107415139984 
0.5099999999999602, -1.0128411718299921 
0.519999999999959, -1.010593962566744 
0.529999999999958, -1.008331162281579 
0.5399999999999568, -1.0062714411520948 
0.5499999999999557, -1.0047174602340405 
0.5599999999999546, -1.0038838637053613 
0.5699999999999535, -1.0036420870063816 
0.5799999999999524, -1.0036168017844322 
0.5899999999999513, -1.003480841240203 
0.5999999999999502, -1.0030077137379507 
0.6099999999999491, -1.0020172938504868 
0.619999999999948, -1.0004434754328477 
0.6299999999999469, -0.998411186592716 
0.6399999999999458, -0.9961311103423363 
0.6499999999999447, -0.9937828389266874 
0.6599999999999436, -0.9915503820768728 
0.6699999999999425, -0.9896946771200901 
0.6799999999999414, -0.9884922687335242 
0.6899999999999403, -0.9879901137223482 
0.6999999999999392, -0.987902911667001 
0.7099999999999381, -0.987864110089785 
0.719999999999937, -0.9876123246262749 
0.7299999999999359, -0.9869593955287288 
0.7399999999999348, -0.9857886980346817 
0.7499999999999337, -0.9841430690329945 
0.7599999999999326, -0.9822006543277016 
0.7699999999999315, -0.9801371381463252 
0.7799999999999304, -0.9780933552759755 
0.7899999999999293, -0.9762429631609573 
0.7999999999999282, -0.9748194327473586 
0.8099999999999271, -0.9740045749994389 
0.819999999999926, -0.9737346061710467 
0.8299999999999249, -0.9737171377519793 
0.8399999999999238, -0.9736552491137059 
0.8499999999999227, -0.9733444803158425 
0.8599999999999216, -0.9726542154297522 
0.8699999999999205, -0.9715610408147463 
0.8799999999999194, -0.9701702559594969 
0.8899999999999183, -0.9686231843071351 
0.8999999999999172, -0.9670243200763002 
0.9099999999999161, -0.9654755422422246 
0.919999999999915, -0.9641243594455745 
0.9299999999999139, -0.963147478066917 
0.9399999999999128, -0.9626479714049776 
0.9499999999999117, -0.9625365952446516 
0.9599999999999106, -0.9625751298179777 
0.9699999999999095, -0.9625344199904876 
0.9799999999999084, -0.9622640624778191 
0.9899999999999073, -0.9617010268672423 
0.9999999999999062, -0.9608813865727945 
1.0099999999999052, -0.9598944756949496 
1.019999999999904, -0.9588102179279816 
1.029999999999903, -0.9576827117077886 
1.039999999999902, -0.9565991154713536 
1.0499999999999008, -0.9556908817948926 
1.0599999999998997, -0.9550893821565267 
1.0699999999998986, -0.9548494071311471 
1.0799999999998975, -0.9548878604144571 
1.0899999999998964, -0.9550221935480417 
1.0999999999998953, -0.9550795814727786 
1.1099999999998942, -0.9549597392503592 
1.119999999999893, -0.954645471238566 
1.129999999999892, -0.9541748768956297 
1.1399999999998909, -0.9535825616787044 
1.1499999999998898, -0.9528833951355592 
1.1599999999998887, -0.9521167105881861 
1.1699999999998876, -0.9513813053955822 
1.1799999999998865, -0.95081491643593 
1.1899999999998854, -0.9505281513943904 
1.1999999999998843, -0.950544313458839 
1.2099999999998832, -0.9507818796905306 
1.219999999999882, -0.9510956330706681 
1.229999999999881, -0.9513557394740487 
1.2399999999998799, -0.9514970838469432 
1.2499999999998788, -0.9515112446985038 
1.2599999999998777, -0.9513974786193005 
1.2699999999998766, -0.9511329383125156 
1.2799999999998755, -0.9507085275635055 
1.2899999999998744, -0.9501796667481139 
1.2999999999998733, -0.9496780377886632 
1.3099999999998722, -0.9493735175368995 
1.319999999999871, -0.9493845209620398 
1.32999999999987, -0.9497116005235914 
1.3399999999998689, -0.9502565344831448 
1.3499999999998678, -0.9508859537112714 
1.3599999999998666, -0.9514938480972175 
1.3699999999998655, -0.9520246623089439 
1.3799999999998644, -0.9524396345798994 
1.3899999999998633, -0.9526740705882627 
1.3999999999998622, -0.952663720476549 
1.4099999999998611, -0.9524143251419634 
1.41999999999986, -0.9520232166955781 
1.429999999999859, -0.9516706740836108 
1.4399999999998578, -0.9515870872608703 
1.4499999999998567, -0.9519326868026795 
1.4599999999998556, -0.9526917914951544 
1.4699999999998545, -0.9537236659489813 
1.4799999999998534, -0.9548738410231682 
1.4899999999998523, -0.9560302744427853 
1.4999999999998512, -0.9571074137982076 
1.5099999999998501, -0.9579905943158998 
1.519999999999849, -0.9585412276899051 
1.529999999999848, -0.9586999411851067 
1.5399999999998468, -0.9585369578816795 
1.5499999999998457, -0.9582085674146644 
1.5599999999998446, -0.9579547711428503 
1.5699999999998435, -0.9580985264471854 
1.5799999999998424, -0.9588771012726797 
1.5899999999998413, -0.9602558361512383 
1.5999999999998402, -0.9620143047348474 
1.6099999999998391, -0.9639344198809099 
1.619999999999838, -0.9658520282851082 
1.629999999999837, -0.9675909917324331 
1.6399999999998358, -0.9689201414238029 
1.6499999999998347, -0.9696725521504568 
1.6599999999998336, -0.9698835135912264 
1.6699999999998325, -0.9697243434913316 
1.6799999999998314, -0.9694089617324826 
1.6899999999998303, -0.9692508422389776 
1.6999999999998292, -0.9696969038180954 
1.709999999999828, -0.9710613043322639 
1.719999999999827, -0.9732424026194598 
1.729999999999826, -0.9758916654749803 
1.7399999999998248, -0.9786911843770963 
1.7499999999998237, -0.9813748463449606 
1.7599999999998226, -0.9836275828235355 
1.7699999999998215, -0.9851459468425142 
1.7799999999998204, -0.9858708587520169 
1.7899999999998193, -0.9859981777989878 
1.7999999999998182, -0.9857767361746602 
1.809999999999817, -0.9854671452872085 
1.819999999999816, -0.9854864819827043 
1.8299999999998149, -0.9863937002955416 
1.8399999999998138, -0.9884478676530802 
1.8499999999998127, -0.9913613473810354 
1.8599999999998116, -0.9946576972062169 
1.8699999999998105, -0.9979522141628547 
1.8799999999998094, -1.0008905746769408 
1.8899999999998083, -1.0030914286997685 
1.8999999999998072, -1.004352695915059 
1.909999999999806, -1.0048126992488307 
1.919999999999805, -1.0047601369743036 
1.9299999999998039, -1.0044588227546687 
1.9399999999998028, -1.00423601623114 
1.9499999999998017, -1.0046238046010918 
1.9599999999998006, -1.0061029413868467 
1.9699999999997995, -1.008610381071476 
1.9799999999997984, -1.0116693729618282 
1.9899999999997973, -1.0148346709237852 
1.9999999999997962, -1.017775462589583 
2.0099999999998173, -1.0201599195892193 
2.0199999999998384, -1.0217117761649082 
2.0299999999998595, -1.022423429431511 
2.0399999999998806, -1.022527391688969 
2.0499999999999017, -1.0222891860586643 
2.059999999999923, -1.0219866061907985 
2.069999999999944, -1.022041909965156 
2.079999999999965, -1.022919012292948 
2.089999999999986, -1.0246906882878237 
2.100000000000007, -1.0269988001737858 
2.1100000000000283, -1.029449245429647 
2.1200000000000494, -1.0317788985907015 
2.1300000000000705, -1.033771500851309 
2.1400000000000916, -1.0352032114729366 
2.1500000000001127, -1.0359601484956675 
2.160000000000134, -1.0361380308190713 
2.170000000000155, -1.035943878679344 
2.180000000000176, -1.035617372191347 
2.190000000000197, -1.0354888528598132 
2.2000000000002182, -1.0359210836025687 
2.2100000000002393, -1.0370079965142 
2.2200000000002604, -1.0385129547863388 
2.2300000000002815, -1.0401429706623446 
2.2400000000003026, -1.0417023678461774 
2.2500000000003237, -1.0430632433042464 
2.260000000000345, -1.044097477197979 
2.270000000000366, -1.0446886735851806 
2.280000000000387, -1.044825293990418 
2.290000000000408, -1.0446198556413493 
2.3000000000004293, -1.0442589908797286 
2.3100000000004504, -1.044001723910096 
2.3200000000004715, -1.0441173027811048 
2.3300000000004926, -1.0446874346641932 
2.3400000000005137, -1.0455674310853738 
2.3500000000005348, -1.0465518237435114 
2.360000000000556, -1.0474839628573183 
2.370000000000577, -1.048271922925652 
2.380000000000598, -1.0488534022860552 
2.390000000000619, -1.0491608953608276 
2.4000000000006403, -1.049151846766267 
2.4100000000006614, -1.0488643480274278 
2.4200000000006825, -1.0484248691211797 
2.4300000000007036, -1.048032688143854 
2.4400000000007247, -1.047892556403281 
2.450000000000746, -1.0480832626822747 
2.460000000000767, -1.0485289502860313 
2.470000000000788, -1.0490794202644322 
2.480000000000809, -1.049585526891815 
2.49000000000083, -1.0499513000039058 
2.5000000000008513, -1.0501380668414788 
2.5100000000008724, -1.0501258593035852 
2.5200000000008935, -1.0498919228662054 
2.5300000000009146, -1.0494435472738328 
2.5400000000009357, -1.0488584679611175 
2.550000000000957, -1.0482872697730532 
2.560000000000978, -1.0478981038576243 
2.570000000000999, -1.0477853908834744 
2.58000000000102, -1.0479287931619425 
2.5900000000010412, -1.048204740636646 
2.6000000000010624, -1.0484466868457263 
2.6100000000010835, -1.0485289532963358 
2.6200000000011046, -1.0484010410290352 
2.6300000000011257, -1.048067830665993 
2.6400000000011468, -1.0475450410474927 
2.650000000001168, -1.0468480181642055 
2.660000000001189, -1.0460289963708742 
2.67000000000121, -1.0452046484873516 
2.680000000001231, -1.0445298811752846 
2.6900000000012523, -1.0441330191299727 
2.7000000000012734, -1.0440446407694735 
2.7100000000012945, -1.0441474369644437 
2.7200000000013156, -1.0442392908812161 
2.7300000000013367, -1.04415012030713 
2.740000000001358, -1.043789343431489 
2.750000000001379, -1.0431522146844792 
2.7600000000014, -1.04228861137242 
2.770000000001421, -1.0412505499230271 
2.780000000001442, -1.0400938556292385 
2.7900000000014633, -1.038919978981377 
2.8000000000014844, -1.0378889095447308 
2.8100000000015055, -1.0371786655322115 
2.8200000000015266, -1.0368753257725714 
2.8300000000015477, -1.0368585609280292 
2.840000000001569, -1.0368777730467937 
2.85000000000159, -1.03671250627446 
2.860000000001611, -1.0362170391583019 
2.870000000001632, -1.0353363035387981 
2.8800000000016532, -1.0341234913083084 
2.8900000000016743, -1.032680815548592 
2.9000000000016954, -1.0311001045892858 
2.9100000000017165, -1.0294892709225691 
2.9200000000017377, -1.0280230295337383 
2.9300000000017588, -1.0269356558181948 
2.94000000000178, -1.0263829731615242 
2.950000000001801, -1.0262542837931052 
2.960000000001822, -1.0262463863610576 
2.970000000001843, -1.0260855634469643 
2.9800000000018643, -1.0255759301677492 
2.9900000000018854, -1.0245896672024855 
3.0000000000019065, -1.023129702289224 
3.0100000000019276, -1.0213274703582487 
3.0200000000019487, -1.0193342305077913 
3.03000000000197, -1.0172857952151575 
3.040000000001991, -1.015366659412817 
3.050000000002012, -1.013848850601458 
3.060000000002033, -1.0129706475545115 
3.070000000002054, -1.0126823522660504 
3.0800000000020753, -1.0126529673134264 
3.0900000000020964, -1.0125503530062874 
3.1000000000021175, -1.0121413521873905 
3.1100000000021386, -1.0112446773088843 
3.1200000000021597, -1.0097798499993076 
3.130000000002181, -1.0078467854027853 
3.140000000002202, -1.0056408736383715 
3.150000000002223, -1.0033357773724558 
3.160000000002244, -1.0011091531661855 
3.1700000000022652, -0.9992186963961817 
3.1800000000022863, -0.9979576440797641 
3.1900000000023074, -0.9974089735762918 
3.2000000000023285, -0.9973049080150708 
3.2100000000023496, -0.9972685861667507 
3.2200000000023707, -0.9970257074612803 
3.230000000002392, -0.9963763085835563 
3.240000000002413, -0.9951822564878794 
3.250000000002434, -0.9934640757780981 
3.260000000002455, -0.9913999712771341 
3.2700000000024763, -0.9891831550848786 
3.2800000000024974, -0.9869720193247232 
3.2900000000025185, -0.9849595159928943 
3.3000000000025396, -0.9834086118871296 
3.3100000000025607, -0.9825253321207201 
3.3200000000025818, -0.9822337584201464 
3.330000000002603, -0.9822070195899066 
3.340000000002624, -0.9821261892346005 
3.350000000002645, -0.9817733968395267 
3.360000000002666, -0.980996029188276 
3.3700000000026873, -0.9797469215839799 
3.3800000000027084, -0.9781335845563061 
3.3900000000027295, -0.9763264265607736 
3.4000000000027506, -0.9744599272421203 
3.4100000000027717, -0.9726586599015291 
3.420000000002793, -0.9710967288793378 
3.430000000002814, -0.96998303571367 
3.440000000002835, -0.9694263748009969 
3.450000000002856, -0.9692956802898537 
3.460000000002877, -0.969306408687199 
3.4700000000028983, -0.969208522990436 
3.4800000000029194, -0.9688369932912421 
3.4900000000029405, -0.9681101843782574 
3.5000000000029616, -0.9670615101247924 
3.5100000000029827, -0.9658058014055091 
3.520000000003004, -0.9644463299410488 
3.530000000003025, -0.9630597907857101 
3.540000000003046, -0.9617472652798966 
3.550000000003067, -0.9606555241321217 
3.5600000000030882, -0.9599334032325066 
3.5700000000031094, -0.9596309628038681 
3.5800000000031305, -0.9596250970140254 
3.5900000000031516, -0.9596938334767593 
3.6000000000031727, -0.9596464646794187 
3.6100000000031938, -0.9593723246050987 
3.620000000003215, -0.9588508832205449 
3.630000000003236, -0.9581370325876299 
3.640000000003257, -0.9572959425001873 
3.650000000003278, -0.956367296323832 
3.6600000000032993, -0.9554020167132069 
3.6700000000033204, -0.9545007236846365 
3.6800000000033415, -0.9537977888844776 
3.6900000000033626, -0.9534015064898161 
3.7000000000033837, -0.9533278880582192 
3.710000000003405, -0.9534712885654357 
3.720000000003426, -0.9536612480215081 
3.730000000003447, -0.9537564292601907 
3.740000000003468, -0.9536905126420073 
3.750000000003489, -0.9534668691863893 
3.7600000000035103, -0.9531115822764826 
3.7700000000035314, -0.9526303031635928 
3.7800000000035525, -0.9520290671634193 
3.7900000000035736, -0.9513648072774287 
3.8000000000035947, -0.9507603088998804 
3.810000000003616, -0.9503617543337887 
3.820000000003637, -0.9502608879372803 
3.830000000003658, -0.9504472394591996 
3.840000000003679, -0.9508180056806029 
3.8500000000037002, -0.9512342163080676 
3.8600000000037213, -0.9515899519650232 
3.8700000000037424, -0.9518404168194238 
3.8800000000037635, -0.9519726806297459 
3.8900000000037847, -0.9519576296841367 
3.9000000000038058, -0.95175538907071 
3.910000000003827, -0.9513728921261324 
3.920000000003848, -0.9508983097679558 
3.930000000003869, -0.9504955639750068 
3.94000000000389, -0.9503509441969755 
3.9500000000039113, -0.9505661760343028 
3.9600000000039324, -0.9511045793449958 
3.9700000000039535, -0.9518421710432652 
3.9800000000039746, -0.9526455231222535 
3.9900000000039957, -0.9534217859825339 
4.000000000004016, -0.9541146533162247 
4.010000000003993, -0.9546555742639758 
4.02000000000397, -0.9549493440058119 
4.030000000003946, -0.9549437807369184 
4.040000000003923, -0.9546869297013786 
4.0500000000039, -0.9543166114379363 
4.0600000000038765, -0.9540534020640538 
4.070000000003853, -0.9541564793280775 
4.08000000000383, -0.9547677187620462 
4.090000000003807, -0.9558192205036231 
4.100000000003783, -0.9571333949883928 
4.11000000000376, -0.9585476598120469 
4.120000000003737, -0.9599459917494448 
4.130000000003713, -0.9612112261839548 
4.14000000000369, -0.9621792304927892 
4.150000000003667, -0.9627100329391548 
4.1600000000036434, -0.9628057141737513 
4.17000000000362, -0.9625938662856004 
4.180000000003597, -0.9622687723929008 
4.1900000000035735, -0.962123095702841 
4.20000000000355, -0.9625238686115749 
4.210000000003527, -0.963671793867873 
4.220000000003504, -0.965443383980565 
4.23000000000348, -0.9675646804831043 
4.240000000003457, -0.9698018102932263 
4.250000000003434, -0.9719621652271306 
4.26000000000341, -0.9738074139383686 
4.270000000003387, -0.9750796545181211 
4.280000000003364, -0.9756901729682058 
4.2900000000033405, -0.9757724814273558 
4.300000000003317, -0.975538057591 
4.310000000003294, -0.9752337517336885 
4.320000000003271, -0.9752488568534263 
4.330000000003247, -0.9760714132091788 
4.340000000003224, -0.9779067625173327 
4.350000000003201, -0.9805033563090011 
4.360000000003177, -0.9834604177693518 
4.370000000003154, -0.9864533272670941 
4.380000000003131, -0.9891755833251834 
4.390000000003107, -0.9912722112639565 
4.400000000003084, -0.9925149836188495 
4.410000000003061, -0.9929892321321472 
4.4200000000030375, -0.9929533687813749 
4.430000000003014, -0.9926600424613863 
4.440000000002991, -0.9924190528901052 
4.450000000002968, -0.9927413773426241 
4.460000000002944, -0.9941348155248292 
4.470000000002921, -0.9966100246913021 
4.480000000002898, -0.9997264242604782 
4.490000000002874, -1.0030273744194989 
4.500000000002851, -1.0061606546781385 
4.510000000002828, -1.0087658086658482 
4.520000000002804, -1.0105188062806938 
4.530000000002781, -1.0113728327617562 
4.540000000002758, -1.0115606565519564 
4.5500000000027345, -1.0113615449136832 
4.560000000002711, -1.0110452291288767 
4.570000000002688, -1.0110221571613702 
4.580000000002665, -1.0118340480245605 
4.590000000002641, -1.0137049554381683 
4.600000000002618, -1.0163174141261766 
4.610000000002595, -1.0192036452464104 
4.620000000002571, -1.022021880856799 
4.630000000002548, -1.0244934389528972 
4.640000000002525, -1.0263294648090995 
4.6500000000025015, -1.0273688005345119 
4.660000000002478, -1.0277138813982898 
4.670000000002455, -1.0276053201530913 
4.6800000000024315, -1.027292075872675 
4.690000000002408, -1.0271003850457627 
4.700000000002385, -1.0274740665388933 
4.710000000002362, -1.0286701588335723 
4.720000000002338, -1.0305011907566566 
4.730000000002315, -1.032594116068073 
4.740000000002292, -1.0346695177704777 
4.750000000002268, -1.0365424961935346 
4.760000000002245, -1.038031952386679 
4.770000000002222, -1.0389721660950304 
4.7800000000021985, -1.039337815172251 
4.790000000002175, -1.039264155373885 
4.800000000002152, -1.0389538053564056 
4.810000000002129, -1.0386715813377754 
4.820000000002105, -1.038755917152463 
4.830000000002082, -1.039415650231879 
4.840000000002059, -1.0405447182629717 
4.850000000002035, -1.041883119052056 
4.860000000002012, -1.0432191238158066 
4.870000000001989, -1.0444239841658993 
4.880000000001965, -1.0454016856196147 
4.890000000001942, -1.0460477209345107 
4.900000000001919, -1.046293390535461 
4.9100000000018955, -1.046175933368581 
4.920000000001872, -1.0458294048552434 
4.930000000001849, -1.0454620601656321 
