t, s[1].omega / s[0].omega 
0, -1.009997553609765 
0.009999999999999995, -1.0096844845040454 
0.019999999999999934, -1.0094801472995132 
0.029999999999999874, -1.0092272536459124 
0.04000000000000012, -1.0089189812904098 
0.050000000000000405, -1.0087275503244015 
0.06000000000000069, -1.0083970483146492 
0.07000000000000098, -1.008165945023901 
0.08000000000000126, -1.0079016936637033 
0.09000000000000155, -1.0075662428760526 
0.10000000000000184, -1.007363781189406 
0.11000000000000212, -1.0070179028714312 
0.12000000000000241, -1.0067602742809056 
0.130000000000002, -1.0064901259025345 
0.1400000000000009, -1.0061291919985424 
0.1499999999999998, -1.0059181387658767 
0.1599999999999987, -1.0055609470844682 
0.1699999999999976, -1.0052762449625103 
0.1799999999999965, -1.0050061871294693 
0.1899999999999954, -1.0046229130075581 
0.1999999999999943, -1.0044036159595613 
0.2099999999999932, -1.0040412407364354 
0.2199999999999921, -1.0037291259036285 
0.229999999999991, -1.0034648752625221 
0.2399999999999899, -1.003064476154368 
0.2499999999999888, -1.0028353925696485 
0.2599999999999877, -1.0024755796358231 
0.2699999999999866, -1.0021369699126106 
0.2799999999999855, -1.0018829778565668 
0.2899999999999844, -1.0014729266136833 
0.2999999999999833, -1.001231304192511 
0.3099999999999822, -1.0008824851775675 
0.3199999999999811, -1.0005204982546354 
0.32999999999998, -1.0002790015676328 
0.3399999999999789, -0.9998686329422147 
0.3499999999999778, -0.9996115761009973 
0.35999999999997667, -0.9992816871106827 
0.36999999999997557, -0.9989022031820091 
0.37999999999997447, -0.9986726840431986 
0.38999999999997337, -0.9982722638693106 
0.39999999999997227, -0.9979979012723008 
0.40999999999997117, -0.997693264146563 
0.41999999999997006, -0.9973047929223244 
0.42999999999996896, -0.9970842049275599 
0.43999999999996786, -0.9967037261858996 
0.44999999999996676, -0.9964121607376124 
0.45999999999996566, -0.9961366734190987 
0.46999999999996456, -0.9957494065581585 
0.47999999999996346, -0.9955332472725114 
0.48999999999996235, -0.9951813271234893 
0.49999999999996125, -0.9948751591307495 
0.5099999999999602, -0.9946299190208187 
0.519999999999959, -0.9942543143230523 
0.529999999999958, -0.9940381192882367 
0.5399999999999568, -0.9937213136569159 
0.5499999999999557, -0.993405629377919 
0.5599999999999546, -0.9931890721546217 
0.5699999999999535, -0.9928346866147179 
0.5799999999999524, -0.992615202047043 
0.5899999999999513, -0.9923378665912026 
0.5999999999999502, -0.9920196197320644 
0.6099999999999491, -0.9918282731099198 
0.619999999999948, -0.9915033624922683 
0.6299999999999469, -0.9912789567962614 
0.6399999999999458, -0.9910435757635764 
0.6499999999999447, -0.990730514039003 
0.6599999999999436, -0.9905602507227237 
0.6699999999999425, -0.990272054127333 
0.6799999999999414, -0.9900425623352797 
0.6899999999999403, -0.9898503730292424 
0.6999999999999392, -0.9895502169109456 
0.7099999999999381, -0.98939732807581 
0.719999999999937, -0.9891526706531861 
0.7299999999999359, -0.98891905797248 
0.7399999999999348, -0.9887708777454006 
0.7499999999999337, -0.9884916467956689 
0.7599999999999326, -0.9883528666118729 
0.7699999999999315, -0.988158963578922 
0.7799999999999304, -0.987922926628094 
0.7899999999999293, -0.9878201320054826 
0.7999999999999282, -0.9875716195570791 
0.8099999999999271, -0.9874431221442457 
0.819999999999926, -0.9873087464723598 
0.8299999999999249, -0.9870725917952591 
0.8399999999999238, -0.9870177460790015 
0.8499999999999227, -0.9868131245560212 
0.8599999999999216, -0.9866895302395299 
0.8699999999999205, -0.986626669319472 
0.8799999999999194, -0.986394674299651 
0.8899999999999183, -0.9863905007982998 
0.8999999999999172, -0.9862476054957535 
0.9099999999999161, -0.9861216141203614 
0.919999999999915, -0.9861474620245895 
0.9299999999999139, -0.9859296390323742 
0.9399999999999128, -0.9859754181840958 
0.9499999999999117, -0.9859188527238782 
0.9599999999999106, -0.9857813177524544 
0.9699999999999095, -0.9859195896883627 
0.9799999999999084, -0.9857362015173904 
0.9899999999999073, -0.9858231602048799 
0.9999999999999062, -0.9858885054288298 
1.0099999999999052, -0.9857303924097184 
1.019999999999904, -0.9860088581703642 
1.029999999999903, -0.9858928357099616 
1.039999999999902, -0.9860013818153943 
1.0499999999999008, -0.9862409454484419 
1.0599999999998997, -0.9860607585355312 
1.0699999999998986, -0.9865002667463089 
1.0799999999998975, -0.9864989570933993 
1.0899999999998964, -0.9865976560086864 
1.0999999999998953, -0.987083685394175 
1.1099999999998942, -0.9868988399683388 
1.119999999999893, -0.9874941828634286 
1.129999999999892, -0.9876739867267527 
1.1399999999998909, -0.9877216122357436 
1.1499999999998898, -0.9885359626757967 
1.1599999999998887, -0.9883864780365887 
1.1699999999998876, -0.9890907337127383 
1.1799999999998865, -0.9895400068880197 
1.1899999999998854, -0.9895005997910088 
1.1999999999998843, -0.9906942911497455 
1.2099999999998832, -0.99063472102399 
1.219999999999882, -0.991357970200369 
1.229999999999881, -0.9921717031779962 
1.2399999999998799, -0.9920421627714153 
1.2499999999998788, -0.9935696250487723 
1.2599999999998777, -0.9936597245055492 
1.2699999999998766, -0.9942880399607102 
1.2799999999998755, -0.9955159960123716 
1.2899999999998744, -0.9953336521762903 
1.2999999999998733, -0.9970208743701627 
1.3099999999998722, -0.9973113893994582 
1.319999999999871, -0.9977531211841528 
1.32999999999987, -0.9993270927417512 
1.3399999999998689, -0.9991422111939771 
1.3499999999998678, -1.0007459991264505 
1.3599999999998666, -1.0012480731295723 
1.3699999999998655, -1.0014784864050204 
1.3799999999998644, -1.0031950411765553 
1.3899999999998633, -1.0030442115265115 
1.3999999999998622, -1.00436562709197 
1.4099999999998611, -1.0050235362897835 
1.41999999999986, -1.0050794758388708 
1.429999999999859, -1.006689018240473 
1.4399999999998578, -1.0065883239759057 
1.4499999999998567, -1.007545849730539 
1.4599999999998556, -1.008252902999698 
1.4699999999998545, -1.0081915108037443 
1.4799999999998534, -1.0095172535250512 
1.4899999999998523, -1.0094640687887657 
1.4999999999998512, -1.0100814816562418 
1.5099999999998501, -1.010732995612965 
1.519999999999849, -1.0106017205732618 
1.529999999999848, -1.0115849851677772 
1.5399999999998468, -1.0115629959957704 
1.5499999999998457, -1.0119126203426683 
1.5599999999998446, -1.0124450934918177 
1.5699999999998435, -1.0122746240141296 
1.5799999999998424, -1.012943445219371 
1.5899999999998413, -1.0129310514504581 
1.5999999999998402, -1.013088166080915 
1.6099999999998391, -1.0134819455239468 
1.619999999999838, -1.0132896496724848 
1.629999999999837, -1.0137075080347282 
1.6399999999998358, -1.0136858386948004 
1.6499999999998347, -1.01370985131522 
1.6599999999998336, -1.0139727427781389 
1.6699999999998325, -1.0137673742727216 
1.6799999999998314, -1.0139989256508644 
1.6899999999998303, -1.0139555647831033 
1.6999999999998292, -1.0138879412470145 
1.709999999999828, -1.0140392620243888 
1.719999999999827, -1.0138243816889636 
1.729999999999826, -1.013921848831291 
1.7399999999998248, -1.0138505750726827 
1.7499999999998237, -1.013718572554101 
1.7599999999998226, -1.0137797624506493 
1.7699999999998215, -1.0135559375029155 
1.7799999999998204, -1.0135572889070739 
1.7899999999998193, -1.0134562241535159 
1.7999999999998182, -1.0132771759034633 
1.809999999999817, -1.013267689674818 
1.819999999999816, -1.0130339110335251 
1.8299999999998149, -1.0129652960724482 
1.8399999999998138, -1.012835163895973 
1.8499999999998127, -1.0126198036709992 
1.8599999999998116, -1.0125558578115663 
1.8699999999998105, -1.0123104802223124 
1.8799999999998094, -1.0121892917245536 
1.8899999999998083, -1.012032320957571 
1.8999999999998072, -1.0117870828831301 
1.909999999999806, -1.0116816233129249 
1.919999999999805, -1.011423018469928 
1.9299999999998039, -1.0112604162738599 
1.9399999999998028, -1.0110798112859314 
1.9499999999998017, -1.0108084010321585 
1.9599999999998006, -1.0106714463056108 
1.9699999999997995, -1.0103985057580767 
1.9799999999997984, -1.0102012699296394 
1.9899999999997973, -1.0100010029046673 
1.9999999999997962, -1.0097055367519876 
2.0099999999998173, -1.009544518390135 
2.0199999999998384, -1.0092570952556654 
2.0299999999998595, -1.0090289878214092 
2.0399999999998806, -1.0088136837590584 
2.0499999999999017, -1.0084956079975815 
2.059999999999923, -1.0083155901059913 
2.069999999999944, -1.0080148965034936 
2.079999999999965, -1.0077577444986607 
2.089999999999986, -1.0075324882942804 
2.100000000000007, -1.0071933961553545 
2.1100000000000283, -1.0069972183347806 
2.1200000000000494, -1.006686110412834 
2.1300000000000705, -1.0064007742938594 
2.1400000000000916, -1.0061707324218212 
2.1500000000001127, -1.0058131008337796 
2.160000000000134, -1.0056015817722657 
2.170000000000155, -1.0052846082540121 
2.180000000000176, -1.0049719288746153 
2.190000000000197, -1.0047417532793652 
2.2000000000002182, -1.0043695327750077 
2.2100000000002393, -1.0041418814833603 
2.2200000000002604, -1.0038249890901059 
2.2300000000002815, -1.003486718678876 
2.2400000000003026, -1.0032598063826084 
2.2500000000003237, -1.0028787340432173 
2.260000000000345, -1.002633237941681 
2.270000000000366, -1.002323121154447 
2.280000000000387, -1.0019627351682405 
2.290000000000408, -1.00174054994591 
2.3000000000004293, -1.0013580506319346 
2.3100000000004504, -1.0010929873516388 
2.3200000000004715, -1.0007961872692892 
2.3300000000004926, -1.0004193705470255 
2.3400000000005137, -1.0002011323101276 
2.3500000000005348, -0.999825755662915 
2.360000000000556, -0.9995403751621726 
2.370000000000577, -0.9992623070117188 
2.380000000000598, -0.9988768905182347 
2.390000000000619, -0.9986598912137163 
2.4000000000006403, -0.9983003895542055 
2.4100000000006614, -0.9979957724657411 
2.4200000000006825, -0.9977398767086797 
2.4300000000007036, -0.9973551643892388 
2.4400000000007247, -0.9971357061887508 
2.450000000000746, -0.9968000151965385 
2.460000000000767, -0.9964796117646386 
2.470000000000788, -0.9962468213107204 
2.480000000000809, -0.9958725517839027 
2.49000000000083, -0.9956471480154476 
2.5000000000008513, -0.9953415781020156 
2.5100000000008724, -0.9950112331961127 
2.5200000000008935, -0.9947999630255024 
2.5300000000009146, -0.994445350157245 
2.5400000000009357, -0.9942116911255195 
2.550000000000957, -0.9939405252833862 
2.560000000000978, -0.9936078664951693 
2.570000000000999, -0.9934146732043176 
2.58000000000102, -0.9930878518196338 
2.5900000000010412, -0.9928452765215331 
2.6000000000010624, -0.9926107838213327 
2.6100000000010835, -0.9922841691642237 
2.6200000000011046, -0.9921049067211513 
2.6300000000011257, -0.9918128195768947 
2.6400000000011468, -0.9915623725471885 
2.650000000001168, -0.9913651446168305 
2.660000000001189, -0.9910528344605507 
2.67000000000121, -0.9908836578371006 
2.680000000001231, -0.9906322812222722 
2.6900000000012523, -0.9903764871969691 
2.7000000000012734, -0.9902160545546967 
2.7100000000012945, -0.9899262697868928 
2.7200000000013156, -0.9897638440858783 
2.7300000000013367, -0.9895587081658854 
2.740000000001358, -0.9893011221720446 
2.750000000001379, -0.989176800215112 
2.7600000000014, -0.9889185821438374 
2.770000000001421, -0.9887596071705012 
2.780000000001442, -0.9886066173865463 
2.7900000000014633, -0.988351564413573 
2.8000000000014844, -0.9882630684039354 
2.8100000000015055, -0.9880472602248609 
2.8200000000015266, -0.9878880099394187 
2.8300000000015477, -0.9877945466110337 
2.840000000001569, -0.9875480436724235 
2.85000000000159, -0.987494885161994 
2.860000000001611, -0.9873350371592845 
2.870000000001632, -0.9871712185829683 
2.8800000000016532, -0.9871473863113417 
2.8900000000016743, -0.9869197431162972 
2.9000000000016954, -0.9868989453001491 
2.9100000000017165, -0.9868128405219379 
2.9200000000017377, -0.9866397376401721 
2.9300000000017588, -0.9866991079381311 
2.94000000000178, -0.9865079049624204 
2.950000000001801, -0.986511326893687 
2.960000000001822, -0.98652379015294 
2.970000000001843, -0.9863378822358722 
2.9800000000018643, -0.986495788624753 
2.9900000000018854, -0.9863675696809018 
3.0000000000019065, -0.9863805930189504 
3.0100000000019276, -0.9865272567020291 
3.0200000000019487, -0.9863315824224667 
3.03000000000197, -0.9865983338956208 
3.040000000001991, -0.986570265736424 
3.050000000002012, -0.9865715571464032 
3.060000000002033, -0.9869014427889342 
3.070000000002054, -0.9867135754164755 
3.0800000000020753, -0.9870833065106024 
3.0900000000020964, -0.9872074219037026 
3.1000000000021175, -0.9871704478578786 
3.1100000000021386, -0.9877413648849629 
3.1200000000021597, -0.9875970512595097 
3.130000000002181, -0.9880389140272899 
3.140000000002202, -0.9883871281345082 
3.150000000002223, -0.9882895919252861 
3.160000000002244, -0.9891461081299331 
3.1700000000022652, -0.9890961093992215 
3.1800000000022863, -0.9895525635714744 
3.1900000000023074, -0.9902131662950271 
3.2000000000023285, -0.9900557982603728 
3.2100000000023496, -0.9911877978203043 
3.2200000000023707, -0.9912941461197138 
3.230000000002392, -0.9916878857381177 
3.240000000002413, -0.9927374107146777 
3.250000000002434, -0.9925526547286573 
3.260000000002455, -0.993862595063659 
3.2700000000024763, -0.9941906538308175 
3.2800000000024974, -0.9944497372663564 
3.2900000000025185, -0.995892104569268 
3.3000000000025396, -0.9957272846794994 
3.3100000000025607, -0.9970460614123478 
3.3200000000025818, -0.9976378316763973 
3.330000000002603, -0.9977334666921129 
3.340000000002624, -0.9994433077845721 
3.350000000002645, -0.9993387274302417 
3.360000000002666, -1.0004908637960426 
3.3700000000026873, -1.0013238036777683 
3.3800000000027084, -1.0012814299500892 
3.3900000000027295, -1.0030265930242024 
3.4000000000027506, -1.0030049944604342 
3.4100000000027717, -1.0038804203170661 
3.420000000002793, -1.0048520487532906 
3.430000000002814, -1.004722371597734 
3.440000000002835, -1.0062717133673713 
3.450000000002856, -1.0063327335494958 
3.460000000002877, -1.0069126597690183 
3.4700000000028983, -1.0078818296538374 
3.4800000000029194, -1.0077092777342838 
3.4900000000029405, -1.008929480395547 
3.5000000000029616, -1.0090492321038744 
3.5100000000029827, -1.0093776677288036 
3.520000000003004, -1.0102287212315701 
3.530000000003025, -1.010040975959327 
3.540000000003046, -1.010911597151949 
3.550000000003067, -1.0110532196958162 
3.5600000000030882, -1.0111938133327634 
3.5700000000031094, -1.0118688494084502 
3.5800000000031305, -1.0116794887008749 
3.5900000000031516, -1.01224909276289 
3.6000000000031727, -1.012378317005148 
3.6100000000031938, -1.012387856247943 
3.620000000003215, -1.0128792057714402 
3.630000000003236, -1.0126926936243823 
3.640000000003257, -1.01303053541552 
3.650000000003278, -1.0131248919095412 
3.6600000000032993, -1.013045306831851 
3.6700000000033204, -1.013373223690803 
3.6800000000033415, -1.0131888042694726 
3.6900000000033626, -1.0133577779804903 
3.7000000000033837, -1.0134070027832887 
3.710000000003405, -1.0132665513925296 
3.720000000003426, -1.0134608742106375 
3.730000000003447, -1.0132752760538468 
3.740000000003468, -1.0133235005830865 
3.750000000003489, -1.013325767786198 
3.7600000000035103, -1.0131426014958933 
3.7700000000035314, -1.0132326602059556 
3.7800000000035525, -1.0130418923127917 
3.7900000000035736, -1.0130032811903418 
3.8000000000035947, -1.0129613627015792 
3.810000000003616, -1.012746769871531 
3.820000000003637, -1.012757346086541 
3.830000000003658, -1.012557752709578 
3.840000000003679, -1.0124551855860888 
3.8500000000037002, -1.012373940239523 
3.8600000000037213, -1.0121347023198382 
3.8700000000037424, -1.0120851890870786 
3.8800000000037635, -1.011873963809311 
3.8900000000037847, -1.011722430987806 
3.9000000000038058, -1.0116075080324405 
3.910000000003827, -1.0113475123060922 
3.920000000003848, -1.0112523802236895 
3.930000000003869, -1.011027785397926 
3.94000000000389, -1.0108368313506293 
3.9500000000039113, -1.0106941025619014 
3.9600000000039324, -1.0104154772625014 
3.9700000000039535, -1.0102850728945871 
3.9800000000039746, -1.0100465622341586 
3.9900000000039957, -1.0098220650914798 
4.000000000004016, -1.0096573758067566 
4.010000000003993, -1.0093613615183596 
4.02000000000397, -1.0092026490436907 
4.030000000003946, -1.0089509815654516 
4.040000000003923, -1.0086964745830995 
4.0500000000039, -1.0085154529921463 
4.0600000000038765, -1.008203141206482 
4.070000000003853, -1.0080203170144486 
4.08000000000383, -1.0077576427674846 
4.090000000003807, -1.0074753703843158 
4.100000000003783, -1.007283153964849 
4.11000000000376, -1.0069561445564623 
4.120000000003737, -1.0067511987670554 
4.130000000003713, -1.0064810326351445 
4.14000000000369, -1.0061728696849699 
4.150000000003667, -1.0059737039539511 
4.1600000000036434, -1.005634661182194 
4.17000000000362, -1.0054079895452466 
4.180000000003597, -1.0051349849866325 
4.1900000000035735, -1.0048032665168185 
4.20000000000355, -1.0046000313798407 
4.210000000003527, -1.0042530556780949 
4.220000000003504, -1.0040041850082928 
4.23000000000348, -1.0037336646254558 
4.240000000003457, -1.0033818841074005 
4.250000000003434, -1.003175707273164 
4.26000000000341, -1.0028264069897812 
4.270000000003387, -1.002554829682286 
4.280000000003364, -1.0022920960777137 
4.2900000000033405, -1.0019253541682402 
4.300000000003317, -1.001715529074528 
4.310000000003294, -1.0013707070881832 
4.320000000003271, -1.0010767547487895 
4.330000000003247, -1.0008262712793083 
4.340000000003224, -1.000451343320067 
4.350000000003201, -1.0002357068109404 
4.360000000003177, -0.9999026874408067 
4.370000000003154, -0.9995883159058239 
4.380000000003131, -0.9993529116447234 
4.390000000003107, -0.9989778889337209 
4.400000000003084, -0.9987536201447869 
4.410000000003061, -0.9984393841469775 
4.4200000000030375, -0.9981086866354917 
4.430000000003014, -0.9978890070249329 
4.440000000002991, -0.997522621514122 
4.450000000002968, -0.9972872144827292 
4.460000000002944, -0.9969975852704249 
4.470000000002921, -0.996656824113223 
4.480000000002898, -0.9964512806300185 
4.490000000002874, -0.9961021349622435 
4.500000000002851, -0.9958542408133498 
4.510000000002828, -0.9955933154670635 
4.520000000002804, -0.9952503669303163 
4.530000000002781, -0.9950557226928347 
4.540000000002758, -0.9947316405112815 
4.5500000000027345, -0.9944716003007078 
4.560000000002711, -0.9942415002463162 
4.570000000002688, -0.9939049222306058 
4.580000000002665, -0.9937173099642498 
4.590000000002641, -0.993424940903163 
4.600000000002618, -0.9931549685649615 
4.610000000002595, -0.9929559190212995 
4.620000000002571, -0.9926341786606925 
4.630000000002548, -0.9924500072197058 
4.640000000002525, -0.9921947504914348 
4.6500000000025015, -0.9919187419867531 
4.660000000002478, -0.9917495114273623 
4.670000000002455, -0.991450819936307 
4.6800000000024315, -0.9912671314128335 
4.690000000002408, -0.9910533857196342 
4.700000000002385, -0.9907764029644698 
4.710000000002362, -0.9906350576164409 
4.720000000002338, -0.9903677401786328 
4.730000000002315, -0.9901821202733486 
4.740000000002292, -0.9900138086730191 
4.750000000002268, -0.989741680730644 
4.760000000002245, -0.989626223674766 
4.770000000002222, -0.9893992462557776 
4.7800000000021985, -0.9892096852834906 
4.790000000002175, -0.9890909850056397 
4.800000000002152, -0.988830821361723 
4.810000000002129, -0.9887389558887887 
4.820000000002105, -0.9885625472833823 
4.830000000002082, -0.9883673713536834 
4.840000000002059, -0.9883035535097777 
4.850000000002035, -0.988065414133613 
4.860000000002012, -0.9879932171607225 
4.870000000001989, -0.9878799491182201 
4.880000000001965, -0.9876779059932951 
4.890000000001942, -0.9876758398175318 
4.900000000001919, -0.9874745954772184 
4.9100000000018955, -0.9874150756292425 
4.920000000001872, -0.9873816736357603 
4.930000000001849, -0.9871731582345277 
