t, s[1].omega / s[0].omega 
0, -1.5599874052861546 
0.009999999999999995, -1.558452670143838 
0.019999999999999934, -1.556373359287879 
0.029999999999999874, -1.5537501041763964 
0.04000000000000012, -1.55058340465096 
0.050000000000000405, -1.546873666154933 
0.06000000000000069, -1.5426212472645557 
0.07000000000000098, -1.5378265176676853 
0.08000000000000126, -1.5324899267261627 
0.09000000000000155, -1.5266120827294962 
0.10000000000000184, -1.5201938428919557 
0.11000000000000212, -1.5132364140682972 
0.12000000000000241, -1.5057414640746216 
0.130000000000002, -1.4977112434128121 
0.1400000000000009, -1.4891487171230633 
0.1499999999999998, -1.4800577064416536 
0.1599999999999987, -1.4704430399278132 
0.1699999999999976, -1.4603107137437161 
0.1799999999999965, -1.449668060811582 
0.1899999999999954, -1.4385239286028342 
0.1999999999999943, -1.426888865289887 
0.2099999999999932, -1.41477531384946 
0.2199999999999921, -1.4021978133745123 
0.229999999999991, -1.3891732062554738 
0.2399999999999899, -1.3757208489670523 
0.2499999999999888, -1.3618628229080216 
0.2599999999999877, -1.3476241400945272 
0.2699999999999866, -1.3330329365661748 
0.2799999999999855, -1.318120644257844 
0.2899999999999844, -1.3029221300142615 
0.2999999999999833, -1.2874757886305042 
0.3099999999999822, -1.271823575576071 
0.3199999999999811, -1.2560109646920419 
0.32999999999998, -1.2400868168935488 
0.3399999999999789, -1.2241031479387308 
0.3499999999999778, -1.2081147867008695 
0.35999999999997667, -1.1921789200195896 
0.36999999999997557, -1.17635452587248 
0.37999999999997447, -1.1607017029179703 
0.38999999999997337, -1.145280910917506 
0.39999999999997227, -1.1301521425907095 
0.40999999999997117, -1.1153740525336737 
0.41999999999997006, -1.1010030724499769 
0.42999999999996896, -1.087092543751271 
0.43999999999996786, -1.0736918984019634 
0.44999999999996676, -1.060845916732095 
0.45999999999996566, -1.0485940870379544 
0.46999999999996456, -1.0369700865048126 
0.47999999999996346, -1.0260013968014603 
0.48999999999996235, -1.0157090611379065 
0.49999999999996125, -1.0061075831543116 
0.5099999999999602, -0.9972049621594262 
0.519999999999959, -0.9890028542922076 
0.529999999999958, -0.981496845347667 
0.5399999999999568, -0.9746768183696883 
0.5499999999999557, -0.9685273976421103 
0.5599999999999546, -0.963028450292162 
0.5699999999999535, -0.9581556271884544 
0.5799999999999524, -0.9538809259720596 
0.5899999999999513, -0.9501732607031439 
0.5999999999999502, -0.9469990245512588 
0.6099999999999491, -0.9443226340457281 
0.619999999999948, -0.9421070455071552 
0.6299999999999469, -0.9403142363089713 
0.6399999999999458, -0.9389056455069532 
0.6499999999999447, -0.9378425700884078 
0.6599999999999436, -0.937086514614937 
0.6699999999999425, -0.9365994933613669 
0.6799999999999414, -0.9363442851957356 
0.6899999999999403, -0.9362846424134453 
0.6999999999999392, -0.9363854555473987 
0.7099999999999381, -0.9366128768398031 
0.719999999999937, -0.9369344055944155 
0.7299999999999359, -0.9373189390431886 
0.7399999999999348, -0.9377367926702919 
0.7499999999999337, -0.9381596941501906 
0.7599999999999326, -0.9385607551850853 
0.7699999999999315, -0.938914425580258 
0.7799999999999304, -0.9391964338830626 
0.7899999999999293, -0.939383718841054 
0.7999999999999282, -0.9394543558149591 
0.8099999999999271, -0.9393874821193972 
0.819999999999926, -0.9391632250633426 
0.8299999999999249, -0.9387626362262138 
0.8399999999999238, -0.9381676352346836 
0.8499999999999227, -0.9373609659979296 
0.8599999999999216, -0.936326168010949 
0.8699999999999205, -0.9350475649404236 
0.8799999999999194, -0.9335102722581047 
0.8899999999999183, -0.9317002251749052 
0.8999999999999172, -0.9296042275480823 
0.9099999999999161, -0.9272100217798097 
0.919999999999915, -0.9245063789980542 
0.9299999999999139, -0.9214832080160973 
0.9399999999999128, -0.9181316807190941 
0.9499999999999117, -0.9144443706475905 
0.9599999999999106, -0.9104154006715683 
0.9699999999999095, -0.9060405948165486 
0.9799999999999084, -0.9013176285660282 
0.9899999999999073, -0.8962461713782073 
0.9999999999999062, -0.8908280147774879 
1.0099999999999052, -0.8850671792672248 
1.019999999999904, -0.8789699935050457 
1.029999999999903, -0.8725451397158774 
1.039999999999902, -0.8658036601997025 
1.0499999999999008, -0.8587589210050278 
1.0599999999998997, -0.8514265303418387 
1.0699999999998986, -0.8438242110293972 
1.0799999999998975, -0.8359716281220838 
1.0899999999998964, -0.8278901747216049 
1.0999999999998953, -0.8196027207505595 
1.1099999999998942, -0.8111333310180402 
1.119999999999893, -0.8025069601542362 
1.129999999999892, -0.7937491328525713 
1.1399999999998909, -0.7848856182894953 
1.1499999999998898, -0.775942107581803 
1.1599999999998887, -0.7669439027106728 
1.1699999999998876, -0.7579156245413429 
1.1799999999998865, -0.7488809464713011 
1.1899999999998854, -0.7398623589363265 
1.1999999999998843, -0.7308809685865573 
1.2099999999998832, -0.7219563345047841 
1.219999999999882, -0.7131063424569899 
1.229999999999881, -0.7043471169062402 
1.2399999999998799, -0.695692969432648 
1.2499999999998788, -0.6871563813127813 
1.2599999999998777, -0.6787480173326266 
1.2699999999998766, -0.6704767674349812 
1.2799999999998755, -0.6623498125193493 
1.2899999999998744, -0.6543727105964843 
1.2999999999998733, -0.6465494995227272 
1.3099999999998722, -0.6388828126719204 
1.319999999999871, -0.631374004116776 
1.32999999999987, -0.6240232801617536 
1.3399999999998689, -0.6168298343742287 
1.3499999999998678, -0.6097919835827094 
1.3599999999998666, -0.6029073026369719 
1.3699999999998655, -0.5961727560458071 
1.3799999999998644, -0.5895848249174431 
1.3899999999998633, -0.5831396279217159 
1.3999999999998622, -0.5768330352696788 
1.4099999999998611, -0.5706607749645319 
1.41999999999986, -0.5646185308171842 
1.429999999999859, -0.5587020319401951 
1.4399999999998578, -0.5529071336353049 
1.4499999999998567, -0.5472298897719209 
1.4599999999998556, -0.5416666169166087 
1.4699999999998545, -0.5362139506165385 
1.4799999999998534, -0.530868894362733 
1.4899999999998523, -0.52562886186194 
1.4999999999998512, -0.5204917133292454 
1.5099999999998501, -0.5154557865778978 
1.519999999999849, -0.510519923729318 
1.529999999999848, -0.5056834943963916 
1.5399999999998468, -0.5009464162088365 
1.5499999999998457, -0.4963091735528294 
1.5599999999998446, -0.49177283539063116 
1.5699999999998435, -0.4873390730121892 
1.5799999999998424, -0.4830101785522566 
1.5899999999998413, -0.4787890850859578 
1.5999999999998402, -0.4746793890954044 
1.6099999999998391, -0.47068537608219085 
1.619999999999838, -0.46681205008736965 
1.629999999999837, -0.4630651678736462 
1.6399999999998358, -0.45945127852553813 
1.6499999999998347, -0.45597776923338357 
1.6599999999998336, -0.45265291804735897 
1.6699999999998325, -0.44948595441880057 
1.6799999999998314, -0.4464871283886147 
1.6899999999998303, -0.44366778933659134 
1.6999999999998292, -0.4410404752709226 
1.709999999999828, -0.43861901371371204 
1.719999999999827, -0.4364186353248244 
1.729999999999826, -0.43445610150160585 
1.7399999999998248, -0.4327498472935218 
1.7499999999998237, -0.4313201410753163 
1.7599999999998226, -0.43018926252519424 
1.7699999999998215, -0.42938170054914543 
1.7799999999998204, -0.4289243728697113 
1.7899999999998193, -0.42884686904468544 
1.7999999999998182, -0.42918171868136695 
1.809999999999817, -0.4299646865420167 
1.819999999999816, -0.4312350960652808 
1.8299999999998149, -0.4330361825156545 
1.8399999999998138, -0.43541547646460094 
1.8499999999998127, -0.43842521753229163 
1.8599999999998116, -0.442122797186797 
1.8699999999998105, -0.4465712277909711 
1.8799999999998094, -0.4518396328580779 
1.8899999999998083, -0.45800375044054176 
1.8999999999998072, -0.46514643750558504 
1.909999999999806, -0.4733581577762945 
1.919999999999805, -0.48273742852373136 
1.9299999999998039, -0.4933911928402786 
1.9399999999998028, -0.5054350726549766 
1.9499999999998017, -0.5189934438584436 
1.9599999999998006, -0.5341992582041575 
1.9699999999997995, -0.5511935172212794 
1.9799999999997984, -0.5701242817532319 
1.9899999999997973, -0.5911450782216202 
1.9999999999997962, -0.614412541739448 
2.0099999999998173, -0.6400831207909741 
2.0199999999998384, -0.6683086644586995 
2.0299999999998595, -0.699230729624204 
2.0399999999998806, -0.7329734930691931 
2.0499999999999017, -0.7696352443226366 
2.059999999999923, -0.8092785811097947 
2.069999999999944, -0.851919637309634 
2.079999999999965, -0.8975169396329494 
2.089999999999986, -0.9459607919736184 
2.100000000000007, -0.9970643792913133 
2.1100000000000283, -1.0505579936373535 
2.1200000000000494, -1.1060878233535296 
2.1300000000000705, -1.1632205262206248 
2.1400000000000916, -1.2214542798924541 
2.1500000000001127, -1.280236194197595 
2.160000000000134, -1.3389850015551357 
2.170000000000155, -1.3971170190748692 
2.180000000000176, -1.454072734217284 
2.190000000000197, -1.509341190438769 
2.2000000000002182, -1.5624797025547041 
2.2100000000002393, -1.613127224813869 
2.2200000000002604, -1.6610107197191286 
2.2300000000002815, -1.7059448819651342 
2.2400000000003026, -1.7478263511326158 
2.2500000000003237, -1.786623987811428 
2.260000000000345, -1.8223668861776363 
2.270000000000366, -1.855131626104607 
2.280000000000387, -1.885029939091648 
2.290000000000408, -1.9121975801613298 
2.3000000000004293, -1.9367848407305266 
2.3100000000004504, -1.9589488496761842 
2.3200000000004715, -1.978847606383313 
2.3300000000004926, -1.9966355655432544 
2.3400000000005137, -2.012460533586186 
2.3500000000005348, -2.0264616225552783 
2.360000000000556, -2.0387680220298874 
2.370000000000577, -2.0494983799079747 
2.380000000000598, -2.058760618902736 
2.390000000000619, -2.066652051425449 
2.4000000000006403, -2.0732596877594327 
2.4100000000006614, -2.0786606596183983 
2.4200000000006825, -2.0829227030617212 
2.4300000000007036, -2.0861046617086414 
2.4400000000007247, -2.08825698395384 
2.450000000000746, -2.0894221972133846 
2.460000000000767, -2.089635348850728 
2.470000000000788, -2.088924407975978 
2.480000000000809, -2.0873106253017726 
2.49000000000083, -2.0848088501160893 
2.5000000000008513, -2.081427804591077 
2.5100000000008724, -2.077170316482202 
2.5200000000008935, -2.072033512224997 
2.5300000000009146, -2.0660089740340095 
2.5400000000009357, -2.0590828674840593 
2.550000000000957, -2.0512360509370686 
2.560000000000978, -2.0424441858342295 
2.570000000000999, -2.0326778779817913 
2.58000000000102, -2.021902894916352 
2.5900000000010412, -2.0100805230997665 
2.6000000000010624, -1.997168150086339 
2.6100000000010835, -1.9831201788245498 
2.6200000000011046, -1.9678894004597098 
2.6300000000011257, -1.9514289635263327 
2.6400000000011468, -1.9336950750883637 
2.650000000001168, -1.9146505461182006 
2.660000000001189, -1.894269241975811 
2.67000000000121, -1.8725414131804727 
2.680000000001231, -1.8494797588143879 
2.6900000000012523, -1.8251259177832289 
2.7000000000012734, -1.7995569038016421 
2.7100000000012945, -1.7728908223024045 
2.7200000000013156, -1.745291068068998 
2.7300000000013367, -1.7169681469919296 
2.740000000001358, -1.6881783393907575 
2.750000000001379, -1.6592186559575808 
2.7600000000014, -1.6304179285249543 
2.770000000001421, -1.6021243807233942 
2.780000000001442, -1.5746905500795945 
2.7900000000014633, -1.5484568715484726 
2.8000000000014844, -1.5237354797313112 
2.8100000000015055, -1.5007957822354778 
2.8200000000015266, -1.4798531019355514 
2.8300000000015477, -1.4610612448215772 
2.840000000001569, -1.4445093246111125 
2.85000000000159, -1.4302226724256557 
2.860000000001611, -1.4181672622927641 
2.870000000001632, -1.4082568336868064 
2.8800000000016532, -1.40036179352926 
2.8900000000016743, -1.3943190062300315 
2.9000000000016954, -1.3899416922606085 
2.9100000000017165, -1.3870288137789373 
2.9200000000017377, -1.3853734977871035 
2.9300000000017588, -1.3847702111867035 
2.94000000000178, -1.3850205452833833 
2.950000000001801, -1.3859375841589148 
2.960000000001822, -1.3873489207056238 
2.970000000001843, -1.3890984473284178 
2.9800000000018643, -1.3910470879764338 
2.9900000000018854, -1.3930726575445138 
3.0000000000019065, -1.3950690374189494 
3.0100000000019276, -1.3969448458328113 
3.0200000000019487, -1.398621762516743 
3.03000000000197, -1.4000326424129297 
3.040000000001991, -1.4011195260486384 
3.050000000002012, -1.4018316270287134 
3.060000000002033, -1.4021233518194616 
3.070000000002054, -1.4019523847142772 
3.0800000000020753, -1.4012778521676321 
3.0900000000020964, -1.4000585656729496 
3.1000000000021175, -1.3982513308366098 
3.1100000000021386, -1.3958093018752638 
3.1200000000021597, -1.3926803549790372 
3.130000000002181, -1.388805450407331 
3.140000000002202, -1.3841169514820322 
3.150000000002223, -1.3785368686319455 
3.160000000002244, -1.371974998335469 
3.1700000000022652, -1.364326930457411 
3.1800000000022863, -1.3554719036168255 
3.1900000000023074, -1.3452704977327978 
3.2000000000023285, -1.3335621670617483 
3.2100000000023496, -1.320162637642032 
3.2200000000023707, -1.3048612224592462 
3.230000000002392, -1.287418148859999 
3.240000000002413, -1.2675620494957218 
3.250000000002434, -1.24498784473819 
3.260000000002455, -1.2193553458217503 
3.2700000000024763, -1.1902890384133504 
3.2800000000024974, -1.1573796687703748 
3.2900000000025185, -1.120188447918575 
3.3000000000025396, -1.0782549037862974 
3.3100000000025607, -1.0311096220469296 
3.3200000000025818, -0.9782932729715712 
3.330000000002603, -0.9193833342435684 
3.340000000002624, -0.8540296464108914 
3.350000000002645, -0.781999180051094 
3.360000000002666, -0.7032289216373655 
3.3700000000026873, -0.6178834196312908 
3.3800000000027084, -0.5264103158153998 
3.3900000000027295, -0.4295836303482643 
3.4000000000027506, -0.32852186862003585 
3.4100000000027717, -0.2246679917834149 
3.420000000002793, -0.11972273989513167 
3.430000000002814, -0.015532245011559745 
3.440000000002835, 0.08394589426219752 
3.450000000002856, 0.17877216728376366 
3.460000000002877, 0.26793607474514214 
3.4700000000028983, 0.3504141761723641 
3.4800000000029194, 0.4255792427219037 
3.4900000000029405, 0.49318097616279183 
3.5000000000029616, 0.5532896672155786 
3.5100000000029827, 0.6062204502953724 
3.520000000003004, 0.6524542706651377 
3.530000000003025, 0.6925668926085209 
3.540000000003046, 0.7271718331696668 
3.550000000003067, 0.7568786846903671 
3.5600000000030882, 0.7822654881296611 
3.5700000000031094, 0.8038624984991196 
3.5800000000031305, 0.8221443978675784 
3.5900000000031516, 0.837528302274427 
3.6000000000031727, 0.8503754350914882 
3.6100000000031938, 0.8609948948257723 
3.620000000003215, 0.8696484298417325 
3.630000000003236, 0.8765555126771805 
3.640000000003257, 0.8818982845472089 
3.650000000003278, 0.8858261331167944 
3.6600000000032993, 0.8884597939956337 
3.6700000000033204, 0.8898949471839638 
3.6800000000033415, 0.890205328748561 
3.6900000000033626, 0.8894454064237233 
3.7000000000033837, 0.8876526834634653 
3.710000000003405, 0.8848497032398965 
3.720000000003426, 0.881045831226308 
3.730000000003447, 0.8762388931770834 
3.740000000003468, 0.8704167495428948 
3.750000000003489, 0.8635588866497734 
3.7600000000035103, 0.8556381044488912 
3.7700000000035314, 0.84662237761816 
3.7800000000035525, 0.8364769598202889 
3.7900000000035736, 0.8251667879032913 
3.8000000000035947, 0.8126592214544338 
3.810000000003616, 0.7989271212495314 
3.820000000003637, 0.7839522264373604 
3.830000000003658, 0.76772873506314 
3.840000000003679, 0.7502669286567157 
3.8500000000037002, 0.7315966154009235 
3.8600000000037213, 0.7117701079013449 
3.8700000000037424, 0.6908644139292658 
3.8800000000037635, 0.6689823159128157 
3.8900000000037847, 0.6462520593115132 
3.9000000000038058, 0.6228254667264379 
3.910000000003827, 0.5988744387719266 
3.920000000003848, 0.5745859774045851 
3.930000000003869, 0.5501560452129299 
3.94000000000389, 0.5257827227977265 
3.9500000000039113, 0.5016592165557442 
3.9600000000039324, 0.4779672827545447 
3.9700000000039535, 0.45487156884669444 
3.9800000000039746, 0.4325152441908113 
3.9900000000039957, 0.4110171264121468 
4.000000000004016, 0.3904703376502989 
4.010000000003993, 0.37094237459206475 
4.02000000000397, 0.35247636615601313 
4.030000000003946, 0.33509323054383405 
4.040000000003923, 0.31879442667167907 
4.0500000000039, 0.3035650144947796 
4.0600000000038765, 0.2893767821331549 
4.070000000003853, 0.2761912528259609 
4.08000000000383, 0.26396244161969 
4.090000000003807, 0.2526392834448756 
4.100000000003783, 0.24216769701938837 
4.11000000000376, 0.23249228147838957 
4.120000000003737, 0.22355766513762002 
4.130000000003713, 0.21530953970895292 
4.14000000000369, 0.20769542038584463 
4.150000000003667, 0.20066517431046899 
4.1600000000036434, 0.19417135863446422 
4.17000000000362, 0.18816940600219523 
4.180000000003597, 0.18261769081192467 
4.1900000000035735, 0.17747750474954765 
4.20000000000355, 0.17271296530546967 
4.210000000003527, 0.16829087655723418 
4.220000000003504, 0.16418055757424702 
4.23000000000348, 0.1603536504304319 
4.240000000003457, 0.15678391699113603 
4.250000000003434, 0.15344703133274615 
4.26000000000341, 0.15032037280017846 
4.270000000003387, 0.1473828232449715 
4.280000000003364, 0.14461457085185475 
4.2900000000033405, 0.14199692209544434 
4.300000000003317, 0.13951212271856858 
4.310000000003294, 0.1371431881441107 
4.320000000003271, 0.1348737433846141 
4.330000000003247, 0.13268787226611084 
4.340000000003224, 0.13056997560836114 
4.350000000003201, 0.12850463788157 
4.360000000003177, 0.12647650177263794 
4.370000000003154, 0.12447015002872915 
4.380000000003131, 0.1224699938921638 
4.390000000003107, 0.12046016739085921 
4.400000000003084, 0.11842442669762603 
4.410000000003061, 0.11634605371656852 
4.4200000000030375, 0.11420776299458767 
4.430000000003014, 0.1119916109912553 
4.440000000002991, 0.10967890667349786 
4.450000000002968, 0.10725012233657763 
4.460000000002944, 0.10468480349522875 
4.470000000002921, 0.10196147664543054 
4.480000000002898, 0.09905755367650769 
4.490000000002874, 0.09594923172484153 
4.500000000002851, 0.09261138731576121 
4.510000000002828, 0.0890174637521495 
4.520000000002804, 0.08513935089182642 
4.530000000002781, 0.08094725672797999 
4.540000000002758, 0.07640957056755139 
4.5500000000027345, 0.07149271811444262 
4.560000000002711, 0.06616100943417937 
4.570000000002688, 0.060376481634773584 
4.580000000002665, 0.0540987391797199 
4.590000000002641, 0.047284796092062785 
4.600000000002618, 0.03988892595498989 
4.610000000002595, 0.03186252760702425 
4.620000000002571, 0.02315401680823842 
4.630000000002548, 0.013708756948422439 
4.640000000002525, 0.0034690450907201567 
4.6500000000025015, -0.005935939575764867 
4.660000000002478, -0.015460081974527811 
4.670000000002455, -0.025974077952752878 
4.6800000000024315, -0.03755009157337391 
4.690000000002408, -0.05026263625678439 
4.700000000002385, -0.06418783169494671 
4.710000000002362, -0.07940238735283157 
4.720000000002338, -0.09598226632158288 
4.730000000002315, -0.11400098601859641 
4.740000000002292, -0.1335275200097657 
4.750000000002268, -0.15462377974329883 
4.760000000002245, -0.17734167788252503 
4.770000000002222, -0.2017198074915744 
4.7800000000021985, -0.22777981400782776 
4.790000000002175, -0.25552258874038797 
4.800000000002152, -0.2849244705130744 
4.810000000002129, -0.31593370040456537 
4.820000000002105, -0.34846742499795763 
4.830000000002082, -0.38240957559150407 
4.840000000002059, -0.4176099530346666 
4.850000000002035, -0.45388481022979926 
4.860000000002012, -0.49101914116028317 
4.870000000001989, -0.5287707580068197 
4.880000000001965, -0.5668760769694102 
4.890000000001942, -0.605057358255843 
4.900000000001919, -0.6430309820939318 
4.9100000000018955, -0.680516217715547 
4.920000000001872, -0.7172438784140944 
4.930000000001849, -0.7529642650444697 
