t, s[1].omega / s[0].omega 
0, -0.6200772366922978 
0.009999999999999995, -0.6278217661339663 
0.019999999999999934, -0.6350681550935658 
0.029999999999999874, -0.6411405541594535 
0.04000000000000012, -0.645727937447138 
0.050000000000000405, -0.648902629981222 
0.06000000000000069, -0.6509468164229453 
0.07000000000000098, -0.6521726987596342 
0.08000000000000126, -0.6528305450530525 
0.09000000000000155, -0.6530889381136054 
0.10000000000000184, -0.653044982610871 
0.11000000000000212, -0.6527379737749096 
0.12000000000000241, -0.6521560243461739 
0.130000000000002, -0.6512322230426374 
0.1400000000000009, -0.6498287283428538 
0.1499999999999998, -0.6477090085962764 
0.1599999999999987, -0.6445071652133045 
0.1699999999999976, -0.6397290794718946 
0.1799999999999965, -0.6328622059697465 
0.1899999999999954, -0.6236669293760586 
0.1999999999999943, -0.6125432915509312 
0.2099999999999932, -0.6005992376212984 
0.2199999999999921, -0.5891980206759513 
0.229999999999991, -0.5793548593694161 
0.2399999999999899, -0.5714854463294754 
0.2499999999999888, -0.5655333425720188 
0.2599999999999877, -0.5612098034810602 
0.2699999999999866, -0.558169719076985 
0.2799999999999855, -0.5560976120543444 
0.2899999999999844, -0.5547356369966028 
0.2999999999999833, -0.553884655778712 
0.3099999999999822, -0.5533959130240222 
0.3199999999999811, -0.5531609701605162 
0.32999999999998, -0.5531026304687813 
0.3399999999999789, -0.5531676142445263 
0.3499999999999778, -0.5533211028799874 
0.35999999999997667, -0.5535430663399261 
0.36999999999997557, -0.553826055032658 
0.37999999999997447, -0.5541736468111859 
0.38999999999997337, -0.5545980550246348 
0.39999999999997227, -0.5551150327316773 
0.40999999999997117, -0.5557349505507455 
0.41999999999997006, -0.5564512300518226 
0.42999999999996896, -0.557230649386218 
0.43999999999996786, -0.5580124114809328 
0.44999999999996676, -0.5587206667629344 
0.45999999999996566, -0.5592865555969191 
0.46999999999996456, -0.559667139654203 
0.47999999999996346, -0.5598503884858113 
0.48999999999996235, -0.5598466651801253 
0.49999999999996125, -0.5596752802840415 
0.5099999999999602, -0.559353553305125 
0.519999999999959, -0.5588906661959033 
0.529999999999958, -0.5582852155258531 
0.5399999999999568, -0.5575246195700961 
0.5499999999999557, -0.5565847196937302 
0.5599999999999546, -0.555427149164782 
0.5699999999999535, -0.5539880774906363 
0.5799999999999524, -0.5521416432931442 
0.5899999999999513, -0.5496063803829544 
0.5999999999999502, -0.5457779224796135 
0.6099999999999491, -0.5396273469897162 
0.619999999999948, -0.5301218491502351 
0.6299999999999469, -0.5173948898651121 
0.6399999999999458, -0.5034277306425751 
0.6499999999999447, -0.49084627238966255 
0.6599999999999436, -0.48118896529646377 
0.6699999999999425, -0.4745703472444345 
0.6799999999999414, -0.47036227683073956 
0.6899999999999403, -0.4678198644106709 
0.6999999999999392, -0.46634476995007956 
0.7099999999999381, -0.4655242754336995 
0.719999999999937, -0.4650936405870031 
0.7299999999999359, -0.4648892130911979 
0.7399999999999348, -0.4648118126678142 
0.7499999999999337, -0.4648021333442441 
0.7599999999999326, -0.4648255060371945 
0.7699999999999315, -0.4648632521782801 
0.7799999999999304, -0.4649085861631428 
0.7899999999999293, -0.4649654438750603 
0.7999999999999282, -0.4650484309315394 
0.8099999999999271, -0.4651815903623329 
0.819999999999926, -0.46539373777038684 
0.8299999999999249, -0.4657094765011198 
0.8399999999999238, -0.4661374676795157 
0.8499999999999227, -0.46666011322598255 
0.8599999999999216, -0.4672304953723348 
0.8699999999999205, -0.46778123061484517 
0.8799999999999194, -0.4682435572287743 
0.8899999999999183, -0.4685667040540089 
0.8999999999999172, -0.46872655489339793 
0.9099999999999161, -0.46872118986615935 
0.919999999999915, -0.468559444081178 
0.9299999999999139, -0.46824949686895645 
0.9399999999999128, -0.46779028147638374 
0.9499999999999117, -0.4671645788950561 
0.9599999999999106, -0.46633058632196056 
0.9699999999999095, -0.4652071337637406 
0.9799999999999084, -0.4636448087729367 
0.9899999999999073, -0.46137094428979264 
0.9999999999999062, -0.45789824514325705 
1.0099999999999052, -0.4524270422639044 
1.019999999999904, -0.44391166837788465 
1.029999999999903, -0.4316283205051127 
1.039999999999902, -0.41619922736797516 
1.0499999999999008, -0.39988426735900506 
1.0599999999998997, -0.3852549823701712 
1.0699999999998986, -0.37370474065740994 
1.0799999999998975, -0.36529955621345306 
1.0899999999998964, -0.35944631391103765 
1.0999999999998953, -0.35544994293603205 
1.1099999999998942, -0.3527419168468008 
1.119999999999893, -0.3509163339484748 
1.129999999999892, -0.3497007575162781 
1.1399999999998909, -0.3489183698444239 
1.1499999999998898, -0.3484579844724422 
1.1599999999998887, -0.3482538067754354 
1.1699999999998876, -0.3482731058954645 
1.1799999999998865, -0.3485097566066958 
1.1899999999998854, -0.3489821849528144 
1.1999999999998843, -0.3497347138774474 
1.2099999999998832, -0.35084127842689794 
1.219999999999882, -0.3524095351012582 
1.229999999999881, -0.35458073826383496 
1.2399999999998799, -0.3575153744065157 
1.2499999999998788, -0.3613473720263222 
1.2599999999998777, -0.3660909975127025 
1.2699999999998766, -0.37152074454124895 
1.2799999999998755, -0.3771249310755519 
1.2899999999998744, -0.38225648583639177 
1.2999999999998733, -0.38642548426629975 
1.3099999999998722, -0.38947912060895284 
1.319999999999871, -0.39154154287255827 
1.32999999999987, -0.3928454257033535 
1.3399999999998689, -0.39360960190310246 
1.3499999999998678, -0.3939943175631945 
1.3599999999998666, -0.3941003516787577 
1.3699999999998655, -0.3939809848821833 
1.3799999999998644, -0.3936533858667456 
1.3899999999998633, -0.3931069923100662 
1.3999999999998622, -0.39231147154758295 
1.4099999999998611, -0.3912292066205459 
1.41999999999986, -0.38983684746486513 
1.429999999999859, -0.3881538085682137 
1.4399999999998578, -0.38626246758031146 
1.4499999999998567, -0.3842987862717722 
1.4599999999998556, -0.3824106018670728 
1.4699999999998545, -0.380710261679601 
1.4799999999998534, -0.3792513553248388 
1.4899999999998523, -0.3780344066555491 
1.4999999999998512, -0.377027004198557 
1.5099999999998501, -0.37618410166767136 
1.519999999999849, -0.3754623282012367 
1.529999999999848, -0.37482777230910014 
1.5399999999998468, -0.3742589334602895 
1.5499999999998457, -0.37374718376520605 
1.5599999999998446, -0.3732970180280959 
1.5699999999998435, -0.37292797489513485 
1.5799999999998424, -0.37267983293016604 
1.5899999999998413, -0.3726228392280051 
1.5999999999998402, -0.3728752307825652 
1.6099999999998391, -0.3736302809882352 
1.619999999999838, -0.37519142954447127 
1.629999999999837, -0.3779975393557535 
1.6399999999998358, -0.3825709398440758 
1.6499999999998347, -0.38922713752489296 
1.6599999999998336, -0.3973805774854039 
1.6699999999998325, -0.4048588171190596 
1.6799999999998314, -0.40873279863365947 
1.6899999999998303, -0.4079309030081353 
1.6999999999998292, -0.40419703255079187 
1.709999999999828, -0.3999777765246409 
1.719999999999827, -0.39661109228951036 
1.729999999999826, -0.3943436995455249 
1.7399999999998248, -0.39295731032376024 
1.7499999999998237, -0.39216340343041334 
1.7599999999998226, -0.39173508423676495 
1.7699999999998215, -0.39152113694786417 
1.7799999999998204, -0.3914279844481243 
1.7899999999998193, -0.3914000616238179 
1.7999999999998182, -0.39140571919033734 
1.809999999999817, -0.3914287342439805 
1.819999999999816, -0.3914641389742271 
1.8299999999998149, -0.39151707567842997 
1.8399999999998138, -0.3916032985072651 
1.8499999999998127, -0.3917494926563147 
1.8599999999998116, -0.3919911864442296 
1.8699999999998105, -0.3923663934286378 
1.8799999999998094, -0.39290448239186393 
1.8899999999998083, -0.3936118369653386 
1.8999999999998072, -0.39445877727475737 
1.909999999999806, -0.39537570253860577 
1.919999999999805, -0.3962662029394849 
1.9299999999998039, -0.39703518829894685 
1.9399999999998028, -0.39761639859018044 
1.9499999999998017, -0.3979826970329687 
1.9599999999998006, -0.3981371539630548 
1.9699999999997995, -0.39809551263887977 
1.9799999999997984, -0.39787012513188624 
1.9899999999997973, -0.39745825911208893 
1.9999999999997962, -0.3968323401623438 
2.0099999999998173, -0.39592784855808116 
2.0199999999998384, -0.3946247306006418 
2.0299999999998595, -0.3927208064236519 
2.0399999999998806, -0.38990641174150975 
2.0499999999999017, -0.38577879463801884 
2.059999999999923, -0.3799755230586311 
2.069999999999944, -0.37247147661876473 
2.079999999999965, -0.3638502567066985 
2.089999999999986, -0.35516698516887113 
2.100000000000007, -0.347405740010735 
2.1100000000000283, -0.3410658853159204 
2.1200000000000494, -0.33617311065881716 
2.1300000000000705, -0.33250592146188535 
2.1400000000000916, -0.3297863819646904 
2.1500000000001127, -0.3277711555826668 
2.160000000000134, -0.32627623644733456 
2.170000000000155, -0.3251737068593497 
2.180000000000176, -0.3243812690807757 
2.190000000000197, -0.323852766564279 
2.2000000000002182, -0.32357224203420903 
2.2100000000002393, -0.3235521855026727 
2.2200000000002604, -0.32383637723192316 
2.2300000000002815, -0.32450815933300536 
2.2400000000003026, -0.3257056087081638 
2.2500000000003237, -0.3276453297274036 
2.260000000000345, -0.3306546941616838 
2.270000000000366, -0.33520333016480997 
2.280000000000387, -0.3418973003813951 
2.290000000000408, -0.35134196468267065 
2.3000000000004293, -0.363733046234095 
2.3100000000004504, -0.378217225643601 
2.3200000000004715, -0.3926790466464024 
2.3300000000004926, -0.4047660686816754 
2.3400000000005137, -0.4133705200253786 
2.3500000000005348, -0.41885120784961016 
2.360000000000556, -0.4221603314285921 
2.370000000000577, -0.42413724800741626 
2.380000000000598, -0.4253260736346659 
2.390000000000619, -0.4260384850667546 
2.4000000000006403, -0.42644570619824285 
2.4100000000006614, -0.4266405028515051 
2.4200000000006825, -0.42667140397751124 
2.4300000000007036, -0.42656067386003 
2.4400000000007247, -0.42631453854292606 
2.450000000000746, -0.425930959916791 
2.460000000000767, -0.42540813815303846 
2.470000000000788, -0.4247546000010101 
2.480000000000809, -0.4239982158423522 
2.49000000000083, -0.42318837739645715 
2.5000000000008513, -0.4223870668903449 
2.5100000000008724, -0.4216517605889599 
2.5200000000008935, -0.42101935447011557 
2.5300000000009146, -0.4204988404919755 
2.5400000000009357, -0.42007405878742154 
2.550000000000957, -0.419713201334362 
2.560000000000978, -0.41938041793290043 
2.570000000000999, -0.4190452658332924 
2.58000000000102, -0.41868746102643967 
2.5900000000010412, -0.4182970930210227 
2.6000000000010624, -0.41787249973327645 
2.6100000000010835, -0.41741826911302515 
2.6200000000011046, -0.4169449795625848 
2.6300000000011257, -0.4164714430602687 
2.6400000000011468, -0.41602970516557347 
2.650000000001168, -0.4156721209239014 
2.660000000001189, -0.4154761546984947 
2.67000000000121, -0.4155306712969848 
2.680000000001231, -0.41585817780581913 
2.6900000000012523, -0.41618552796360886 
2.7000000000012734, -0.41552638214266013 
2.7100000000012945, -0.41198149111295557 
2.7200000000013156, -0.4038084626720194 
2.7300000000013367, -0.3915735538872808 
2.740000000001358, -0.37832197006920193 
2.750000000001379, -0.3669857002985536 
2.7600000000014, -0.35866449734597217 
2.770000000001421, -0.35306969985281156 
2.780000000001442, -0.3494744084425424 
2.7900000000014633, -0.34721488494378955 
2.8000000000014844, -0.3458144832267653 
2.8100000000015055, -0.34496229263109757 
2.8200000000015266, -0.34446419494936226 
2.8300000000015477, -0.3442021799228566 
2.840000000001569, -0.34410701948959044 
2.85000000000159, -0.344141629857879 
2.860000000001611, -0.34429182020630045 
2.870000000001632, -0.34456196909466563 
2.8800000000016532, -0.3449738536486525 
2.8900000000016743, -0.3455669992736042 
2.9000000000016954, -0.34639848022767233 
2.9100000000017165, -0.34753912191965924 
2.9200000000017377, -0.34906164307254917 
2.9300000000017588, -0.35101542615736253 
2.94000000000178, -0.35338639092790014 
2.950000000001801, -0.356055703560936 
2.960000000001822, -0.3587938361938073 
2.970000000001843, -0.3613229329563882 
2.9800000000018643, -0.3634221325520764 
2.9900000000018854, -0.3649968914928387 
3.0000000000019065, -0.3660688945250087 
3.0100000000019276, -0.3667192934878963 
3.0200000000019487, -0.36703642555583077 
3.03000000000197, -0.36708793570552073 
3.040000000001991, -0.36691157163663674 
3.050000000002012, -0.3665139120529299 
3.060000000002033, -0.3658706656592426 
3.070000000002054, -0.3649276332412335 
3.0800000000020753, -0.36360666054757934 
3.0900000000020964, -0.3618257621651204 
3.1000000000021175, -0.35954182005791513 
3.1100000000021386, -0.3568067183364898 
3.1200000000021597, -0.3537961436747764 
3.130000000002181, -0.3507675087272337 
3.140000000002202, -0.34796340781806767 
3.150000000002223, -0.34553347207566815 
3.160000000002244, -0.3435203002895976 
3.1700000000022652, -0.3418917793896164 
3.1800000000022863, -0.34058188359328045 
3.1900000000023074, -0.33951972652026297 
3.2000000000023285, -0.3386447743798363 
3.2100000000023496, -0.3379126739215987 
3.2200000000023707, -0.33729628031315584 
3.230000000002392, -0.33678521706328585 
3.240000000002413, -0.33638626441223346 
3.250000000002434, -0.3361262884641164 
3.260000000002455, -0.3360593631004086 
3.2700000000024763, -0.3362802180141306 
3.2800000000024974, -0.33694690342274003 
3.2900000000025185, -0.3383153447314158 
3.3000000000025396, -0.34078275776516465 
3.3100000000025607, -0.3449123687213658 
3.3200000000025818, -0.351341294074039 
3.330000000002603, -0.36035509501295404 
3.340000000002624, -0.37098731509840194 
3.350000000002645, -0.38041874524838837 
3.360000000002666, -0.385506229280646 
3.3700000000026873, -0.3856890712922825 
3.3800000000027084, -0.38310081519125094 
3.3900000000027295, -0.3800465375418481 
3.4000000000027506, -0.37762509174708153 
3.4100000000027717, -0.3760122766117095 
3.420000000002793, -0.3750372126203333 
3.430000000002814, -0.3744863899099509 
3.440000000002835, -0.3741953039326072 
3.450000000002856, -0.3740554693338697 
3.460000000002877, -0.3740003277065069 
3.4700000000028983, -0.37399100191074625 
3.4800000000029194, -0.3740064771076865 
3.4900000000029405, -0.37403811818708255 
3.5000000000029616, -0.37408753434041697 
3.5100000000029827, -0.3741666532225386 
3.520000000003004, -0.37429852760007454 
3.530000000003025, -0.3745168782570473 
3.540000000003046, -0.37486222993391255 
3.550000000003067, -0.3753732045619073 
3.5600000000030882, -0.37607302338463316 
3.5700000000031094, -0.37695361382998727 
3.5800000000031305, -0.3779636694722116 
3.5900000000031516, -0.37901081461435593 
3.6000000000031727, -0.3799842417130325 
3.6100000000031938, -0.38078900623979695 
3.620000000003215, -0.3813707232290581 
3.630000000003236, -0.3817171233337192 
3.640000000003257, -0.3818419700153546 
3.650000000003278, -0.381765185904293 
3.6600000000032993, -0.3814974804206298 
3.6700000000033204, -0.3810296930378788 
3.6800000000033415, -0.3803231502255108 
3.6900000000033626, -0.3792970110471944 
3.7000000000033837, -0.37781058288022673 
3.710000000003405, -0.37564515503451223 
3.720000000003426, -0.3725070592348148 
3.730000000003447, -0.36810092637105607 
3.740000000003468, -0.36231796405139566 
3.750000000003489, -0.3554616516889722 
3.7600000000035103, -0.3482583190472336 
3.7700000000035314, -0.34152956364997056 
3.7800000000035525, -0.335814652650557 
3.7900000000035736, -0.3312651026528344 
3.8000000000035947, -0.327772850269455 
3.810000000003616, -0.32513280291558944 
3.820000000003637, -0.3231413720799224 
3.830000000003658, -0.32163436731822903 
3.840000000003679, -0.32049309922398517 
3.8500000000037002, -0.3196391098369994 
3.8600000000037213, -0.3190272385664567 
3.8700000000037424, -0.3186408008789708 
3.8800000000037635, -0.318490284505011 
3.8900000000037847, -0.3186164121424441 
3.9000000000038058, -0.3190987526495335 
3.910000000003827, -0.320071854441456 
3.920000000003848, -0.32175166006695505 
3.930000000003869, -0.32447429171153774 
3.94000000000389, -0.3287424151820057 
3.9500000000039113, -0.33524855841127793 
3.9600000000039324, -0.34477829764123546 
3.9700000000039535, -0.3578029729585444 
3.9800000000039746, -0.37367368463059136 
3.9900000000039957, -0.39006164325779 
4.000000000004016, -0.403946288456767 
4.010000000003993, -0.41369079998705294 
4.02000000000397, -0.4196665857666092 
4.030000000003946, -0.4231151271612477 
4.040000000003923, -0.4251101010366307 
4.0500000000039, -0.42630391291793046 
4.0600000000038765, -0.42704067027408704 
4.070000000003853, -0.42749536799679666 
4.08000000000383, -0.4277582522991542 
4.090000000003807, -0.4278765800287455 
4.100000000003783, -0.42787412372046896 
4.11000000000376, -0.4277607674196234 
4.120000000003737, -0.42753853480710047 
4.130000000003713, -0.4272073740582488 
4.14000000000369, -0.4267721522013611 
4.150000000003667, -0.42625006878611593 
4.1600000000036434, -0.42567504406945494 
4.17000000000362, -0.425094797291122 
4.180000000003597, -0.42455972386901325 
4.1900000000035735, -0.4241083579778384 
4.20000000000355, -0.423756561302808 
4.210000000003527, -0.4234947772766617 
4.220000000003504, -0.42329343116536844 
4.23000000000348, -0.4231136462280629 
4.240000000003457, -0.4229187465996692 
4.250000000003434, -0.4226819945061104 
4.26000000000341, -0.42238852373359376 
4.270000000003387, -0.4220328364976281 
4.280000000003364, -0.4216148160917935 
4.2900000000033405, -0.4211365285991729 
4.300000000003317, -0.42060062512802976 
4.310000000003294, -0.42000997829731607 
4.320000000003271, -0.4193669796973449 
4.330000000003247, -0.41866803214726467 
4.340000000003224, -0.41788073421896843 
4.350000000003201, -0.416873007607539 
4.360000000003177, -0.41523969139651207 
4.370000000003154, -0.4120114401541919 
4.380000000003131, -0.4055373760936619 
4.390000000003107, -0.3943495367829367 
4.400000000003084, -0.37905532992374236 
4.410000000003061, -0.36275760740215335 
4.4200000000030375, -0.3486758706020786 
4.430000000003014, -0.33815288849242847 
4.440000000002991, -0.33092575674681324 
4.450000000002968, -0.32616364815696797 
4.460000000002944, -0.32307821585443924 
4.470000000002921, -0.32109225298590255 
4.480000000002898, -0.31982409087578917 
4.490000000002874, -0.3190325561536885 
4.500000000002851, -0.31856931357826207 
4.510000000002828, -0.3183463657875809 
4.520000000002804, -0.3183160876128921 
4.530000000002781, -0.3184600543892489 
4.540000000002758, -0.3187838914636527 
4.5500000000027345, -0.31931633610376 
4.560000000002711, -0.3201111331297743 
4.570000000002688, -0.3212500462291882 
4.580000000002665, -0.3228437538455512 
4.590000000002641, -0.32502400925404973 
4.600000000002618, -0.32791515877438365 
4.610000000002595, -0.33157097066915187 
4.620000000002571, -0.33588062764456894 
4.630000000002548, -0.34050219698015116 
4.640000000002525, -0.3449264245862824 
4.6500000000025015, -0.3486870941954196 
4.660000000002478, -0.351554553764591 
4.670000000002455, -0.35355341512829636 
4.6800000000024315, -0.3548463509801857 
4.690000000002408, -0.35561711427554865 
4.700000000002385, -0.35601251266516293 
4.710000000002362, -0.3561299288720443 
4.720000000002338, -0.3560233295689773 
4.730000000002315, -0.35571245119723066 
4.740000000002292, -0.3551907727439677 
4.750000000002268, -0.35443370473234204 
4.760000000002245, -0.3534111038840042 
4.770000000002222, -0.35210772906588594 
4.7800000000021985, -0.350548854549782 
4.790000000002175, -0.34881667297378904 
4.800000000002152, -0.34703915578281347 
4.810000000002129, -0.3453509275140907 
4.820000000002105, -0.3438511110351565 
4.830000000002082, -0.34258381912661656 
4.840000000002059, -0.341544276586569 
4.850000000002035, -0.34069729034499485 
4.860000000002012, -0.339995777382265 
4.870000000001989, -0.3393941434526583 
