t, s[1].omega / s[0].omega 
0, -0.19998781735276538 
0.009999999999999995, -0.19891241406772633 
0.019999999999999934, -0.1980995613341432 
0.029999999999999874, -0.19750021941638812 
0.04000000000000012, -0.19705383818890637 
0.050000000000000405, -0.1967004877652305 
0.06000000000000069, -0.19638849492322086 
0.07000000000000098, -0.19607774582726728 
0.08000000000000126, -0.19573870299946752 
0.09000000000000155, -0.19534800522959797 
0.10000000000000184, -0.19488173576864837 
0.11000000000000212, -0.19430635417882056 
0.12000000000000241, -0.19356522810981766 
0.130000000000002, -0.19255611566407121 
0.1400000000000009, -0.19109303588970356 
0.1499999999999998, -0.18885115592222004 
0.1599999999999987, -0.18532632918725986 
0.1699999999999976, -0.17992752289842268 
0.1799999999999965, -0.17237397249417843 
0.1899999999999954, -0.1632482151367317 
0.1999999999999943, -0.15396378171145414 
0.2099999999999932, -0.14588775302364543 
0.2199999999999921, -0.13961974361496296 
0.229999999999991, -0.13506554037572624 
0.2399999999999899, -0.13184581515194105 
0.2499999999999888, -0.12957322487296066 
0.2599999999999877, -0.12794721983338117 
0.2699999999999866, -0.126759044864663 
0.2799999999999855, -0.12587166126198476 
0.2899999999999844, -0.1251993814300007 
0.2999999999999833, -0.12469320606806789 
0.3099999999999822, -0.12433205087162362 
0.3199999999999811, -0.12411901213523438 
0.32999999999998, -0.12408186710624754 
0.3399999999999789, -0.12427639366991153 
0.3499999999999778, -0.12478726974840144 
0.35999999999997667, -0.1257071901806774 
0.36999999999997557, -0.1270335784583759 
0.37999999999997447, -0.12834030963502774 
0.38999999999997337, -0.12809486201290282 
0.39999999999997227, -0.1232599937949391 
0.40999999999997117, -0.11138439734703105 
0.41999999999997006, -0.09458175087686677 
0.42999999999996896, -0.07830047723937446 
0.43999999999996786, -0.0659257313009349 
0.44999999999996676, -0.05761940773440403 
0.45999999999996566, -0.05228391786524948 
0.46999999999996456, -0.04885910288907611 
0.47999999999996346, -0.046621860014828966 
0.48999999999996235, -0.04513135777769538 
0.49999999999996125, -0.0441305070697713 
0.5099999999999602, -0.04347550278749562 
0.519999999999959, -0.04309509467899035 
0.529999999999958, -0.04297082870252838 
0.5399999999999568, -0.04313226871242771 
0.5499999999999557, -0.04366529877594494 
0.5599999999999546, -0.044734644554796574 
0.5699999999999535, -0.046620872829183486 
0.5799999999999524, -0.04975439579266909 
0.5899999999999513, -0.05464949763017514 
0.5999999999999502, -0.06141245451413864 
0.6099999999999491, -0.06830397058896687 
0.619999999999948, -0.07037856941925859 
0.6299999999999469, -0.06306286395282758 
0.6399999999999458, -0.049006346252814026 
0.6499999999999447, -0.035039294228528514 
0.6599999999999436, -0.024687913543181905 
0.6699999999999425, -0.017909638593539563 
0.6799999999999414, -0.013625146280361258 
0.6899999999999403, -0.010904236391162904 
0.6999999999999392, -0.00914729718189048 
0.7099999999999381, -0.00800226632336716 
0.719999999999937, -0.0072721731410257855 
0.7299999999999359, -0.006856152630450816 
0.7399999999999348, -0.006718822322139694 
0.7499999999999337, -0.006879689298639249 
0.7599999999999326, -0.007418927765551543 
0.7699999999999315, -0.008500831240098573 
0.7799999999999304, -0.01041932542576517 
0.7899999999999293, -0.013662611525428673 
0.7999999999999282, -0.018938736463115696 
0.8099999999999271, -0.02689066697775404 
0.819999999999926, -0.036814440285646656 
0.8299999999999249, -0.04439829048527218 
0.8399999999999238, -0.04317832263448305 
0.8499999999999227, -0.032800723192647256 
0.8599999999999216, -0.01993247403799457 
0.8699999999999205, -0.009589341368369792 
0.8799999999999194, -0.002618583570592908 
0.8899999999999183, 0.0016150124522089117 
0.8999999999999172, 0.003987967264828341 
0.9099999999999161, 0.005354901957071277 
0.919999999999915, 0.006085789370211843 
0.9299999999999139, 0.0063885738298009795 
0.9399999999999128, 0.006370248057742531 
0.9499999999999117, 0.006069535917463389 
0.9599999999999106, 0.005468703990716013 
0.9699999999999095, 0.0044882747040472055 
0.9799999999999084, 0.002963238617495113 
0.9899999999999073, 0.0005954349332930648 
0.9999999999999062, -0.002768748795749069 
1.0099999999999052, -0.008147507595167875 
1.019999999999904, -0.01640030376670757 
1.029999999999903, -0.027091346803982404 
1.039999999999902, -0.03614755630172052 
1.0499999999999008, -0.03675211793714636 
1.0599999999998997, -0.02772807056985377 
1.0699999999998986, -0.015503017677297582 
1.0799999999998975, -0.005396613338097239 
1.0899999999998964, 0.0013786802668344894 
1.0999999999998953, 0.005339969951746142 
1.1099999999998942, 0.007691511084656925 
1.119999999999893, 0.009043521357062852 
1.129999999999892, 0.009762625078685146 
1.1399999999998909, 0.010055220960817587 
1.1499999999998898, 0.01002726794527798 
1.1599999999998887, 0.009716509077029598 
1.1699999999998876, 0.009103975404733346 
1.1799999999998865, 0.008108281551046707 
1.1899999999998854, 0.006561058874718767 
1.1999999999998843, 0.004157738473387748 
1.2099999999998832, 0.0003824796634745683 
1.219999999999882, -0.005143505371196811 
1.229999999999881, -0.013602702936601777 
1.2399999999998799, -0.02464519211125881 
1.2499999999998788, -0.03419852264420181 
1.2599999999998777, -0.03534883382778961 
1.2699999999998766, -0.026803624926894365 
1.2799999999998755, -0.014930591049099851 
1.2899999999998744, -0.005048116737792251 
1.2999999999998733, 0.00157852582972708 
1.3099999999998722, 0.005464122184972805 
1.319999999999871, 0.0077707101713644765 
1.32999999999987, 0.009094494392226107 
1.3399999999998689, 0.009794465316946093 
1.3499999999998678, 0.010072730597246856 
1.3599999999998666, 0.010032603073578918 
1.3699999999998655, 0.009709876427010442 
1.3799999999998644, 0.009083701840382439 
1.3899999999998633, 0.008070288991030095 
1.3999999999998622, 0.006497505739776137 
1.4099999999998611, 0.0040542078396366855 
1.41999999999986, 0.00021253159497882108 
1.429999999999859, -0.005414138327647647 
1.4399999999998578, -0.014070432694850987 
1.4499999999998567, -0.02543131567319637 
1.4599999999998556, -0.035434643862285876 
1.4699999999998545, -0.037120130086511646 
1.4799999999998534, -0.029092541973320778 
1.4899999999998523, -0.01760934298289039 
1.4999999999998512, -0.007964610462045878 
1.5099999999998501, -0.001341269525451195 
1.519999999999849, 0.0025905370661375984 
1.529999999999848, 0.004856919232817196 
1.5399999999998468, 0.006156075806356609 
1.5499999999998457, 0.006839474746055783 
1.5599999999998446, 0.007105314491196167 
1.5699999999998435, 0.007054705153885216 
1.5799999999998424, 0.006722014042311665 
1.5899999999998413, 0.006085241135957221 
1.5999999999998402, 0.0050593558510742915 
1.6099999999998391, 0.0034704240103671084 
1.619999999999838, 0.0010038615214317 
1.629999999999837, -0.0025749622813613844 
1.6399999999998358, -0.008258641126455758 
1.6499999999998347, -0.017103045985837166 
1.6599999999998336, -0.028941210656234208 
1.6699999999998325, -0.03997782462707727 
1.6799999999998314, -0.043206675849040685 
1.6899999999998303, -0.036595376659278964 
1.6999999999998292, -0.025938034255623948 
1.709999999999828, -0.016645783151965163 
1.719999999999827, -0.010151542494908097 
1.729999999999826, -0.005947172027651805 
1.7399999999998248, -0.0032636937124667143 
1.7499999999998237, -0.0015386084249727453 
1.7599999999998226, -0.0004263384395780968 
1.7699999999998215, 0.00007420920558066638 
1.7799999999998204, 0.000018970222104591913 
1.7899999999998193, -0.000003325954078039688 
1.7999999999998182, -0.00020366676427343954 
1.809999999999817, -0.0007873244388477106 
1.819999999999816, -0.0019238183738005937 
1.8299999999998149, -0.003921112042454914 
1.8399999999998138, -0.007309912084219068 
1.8499999999998127, -0.012932764439737617 
1.8599999999998116, -0.021837795987176993 
1.8699999999998105, -0.03431317629769804 
1.8799999999998094, -0.047421199085755754 
1.8899999999998083, -0.054315353975778705 
1.8999999999998072, -0.05129706764952356 
1.909999999999806, -0.04273122051026905 
1.919999999999805, -0.03427193457311057 
1.9299999999998039, -0.028037009178240386 
1.9399999999998028, -0.023899902945712155 
1.9499999999998017, -0.021231026789547375 
1.9599999999998006, -0.01950913780094351 
1.9699999999997995, -0.018398365642098825 
1.9799999999997984, -0.017702603228026866 
1.9899999999997973, -0.01731838036307961 
1.9999999999997962, -0.01720638094732474 
2.0099999999998173, -0.017380203871703685 
2.0199999999998384, -0.017910313600141323 
2.0299999999998595, -0.018944987111478018 
2.0399999999998806, -0.020755035179078084 
2.0499999999999017, -0.023812259700531784 
2.059999999999923, -0.028897229860453028 
2.069999999999944, -0.03713534056977226 
2.079999999999965, -0.049528594611571115 
2.089999999999986, -0.06515304984711733 
2.100000000000007, -0.07897339430264325 
2.1100000000000283, -0.08492640183611191 
2.1200000000000494, -0.08302062272351073 
2.1300000000000705, -0.07795134874397833 
2.1400000000000916, -0.0731444640005397 
2.1500000000001127, -0.06959149326754051 
2.160000000000134, -0.06718412442517238 
2.170000000000155, -0.06559806196847581 
2.180000000000176, -0.06456599759286644 
2.190000000000197, -0.06391349422321523 
2.2000000000002182, -0.06354024259552211 
2.2100000000002393, -0.0633998258443623 
2.2200000000002604, -0.06348852130726576 
2.2300000000002815, -0.06384401725010656 
2.2400000000003026, -0.06455464783309252 
2.2500000000003237, -0.06578197742869474 
2.260000000000345, -0.06780225469339084 
2.270000000000366, -0.07107181267786844 
2.280000000000387, -0.07630313696123105 
2.290000000000408, -0.08445644453560852 
2.3000000000004293, -0.0963425391304865 
2.3100000000004504, -0.11143248118202251 
2.3200000000004715, -0.12665392185125393 
2.3300000000004926, -0.13795371680006446 
2.3400000000005137, -0.14393564075026058 
2.3500000000005348, -0.14614317826666756 
2.360000000000556, -0.14656906118640023 
2.370000000000577, -0.14639024923985827 
2.380000000000598, -0.14609256209305146 
2.390000000000619, -0.14583115026615098 
2.4000000000006403, -0.14564038766101312 
2.4100000000006614, -0.14552043349201343 
2.4200000000006825, -0.1454677450281055 
2.4300000000007036, -0.14548530614103497 
2.4400000000007247, -0.14558697263003229 
2.450000000000746, -0.14580119378695908 
2.460000000000767, -0.1461759766070988 
2.470000000000788, -0.1467856798302827 
2.480000000000809, -0.1477393921526119 
2.49000000000083, -0.1491888462661746 
2.5000000000008513, -0.1513285640140652 
2.5100000000008724, -0.1543692048736119 
2.5200000000008935, -0.1584514342428959 
2.5300000000009146, -0.1634854200058899 
2.5400000000009357, -0.16900720708266337 
2.550000000000957, -0.1742671920422914 
2.560000000000978, -0.17860342859397624 
2.570000000000999, -0.18175854713156156 
2.58000000000102, -0.18385145428955768 
2.5900000000010412, -0.18515366566645208 
2.6000000000010624, -0.18592069357273786 
2.6100000000010835, -0.18633598719178462 
2.6200000000011046, -0.18651562534979405 
2.6300000000011257, -0.18652849320891526 
2.6400000000011468, -0.18641459339071614 
2.650000000001168, -0.18619885550360382 
2.660000000001189, -0.18590195827321626 
2.67000000000121, -0.18554934416519292 
2.680000000001231, -0.18517775771778983 
2.6900000000012523, -0.18483713316325542 
2.7000000000012734, -0.1845862876812255 
2.7100000000012945, -0.1844836450946608 
2.7200000000013156, -0.18457615408192324 
2.7300000000013367, -0.184888378394445 
2.740000000001358, -0.1854120568423822 
2.750000000001379, -0.1860987675349059 
2.7600000000014, -0.18686321680090007 
2.770000000001421, -0.1876030001129949 
2.780000000001442, -0.18822795640133783 
2.7900000000014633, -0.1886814676886533 
2.8000000000014844, -0.18894241615420126 
2.8100000000015055, -0.18901218333361897 
2.8200000000015266, -0.188897986948788 
2.8300000000015477, -0.18859971808501255 
2.840000000001569, -0.18810153527872642 
2.85000000000159, -0.18736745992513026 
2.860000000001611, -0.18634212188802943 
2.870000000001632, -0.18496179761411155 
2.8800000000016532, -0.183183005185596 
2.8900000000016743, -0.18102747603560018 
2.9000000000016954, -0.1786180923071719 
2.9100000000017165, -0.1761639141217333 
2.9200000000017377, -0.1738861718562986 
2.9300000000017588, -0.17193826544318075 
2.94000000000178, -0.17037587302881227 
2.950000000001801, -0.16917725422192556 
2.960000000001822, -0.16827947409510166 
2.970000000001843, -0.1676066082298467 
2.9800000000018643, -0.16708578006220628 
2.9900000000018854, -0.16665489083234378 
3.0000000000019065, -0.16626528009115954 
3.0100000000019276, -0.1658806943066129 
3.0200000000019487, -0.1654734057495871 
3.03000000000197, -0.16501822206829656 
3.040000000001991, -0.16448432570499474 
3.050000000002012, -0.16382310475599296 
3.060000000002033, -0.16294742228146003 
3.070000000002054, -0.1616946381072148 
3.0800000000020753, -0.15976676042044444 
3.0900000000020964, -0.15666553355297896 
3.1000000000021175, -0.15172658554962914 
3.1100000000021386, -0.1444685517684937 
3.1200000000021597, -0.13525296423766725 
3.130000000002181, -0.12549571766248097 
3.140000000002202, -0.11680477942902141 
3.150000000002223, -0.11000662427565149 
3.160000000002244, -0.1050846931558443 
3.1700000000022652, -0.1016391020007805 
3.1800000000022863, -0.09923727264207574 
3.1900000000023074, -0.09754057313875188 
3.2000000000023285, -0.09631438924681085 
3.2100000000023496, -0.09540498079556861 
3.2200000000023707, -0.09471536951151979 
3.230000000002392, -0.09418777244927842 
3.240000000002413, -0.09379248218693768 
3.250000000002434, -0.0935216657790879 
3.260000000002455, -0.09338637192522777 
3.2700000000024763, -0.09341386366735607 
3.2800000000024974, -0.09363741968878089 
3.2900000000025185, -0.09405524330212864 
3.3000000000025396, -0.09449678730965891 
3.3100000000025607, -0.0942827340937628 
3.3200000000025818, -0.0916892435171543 
3.330000000002603, -0.08408487231727427 
3.340000000002624, -0.07041567580081973 
3.350000000002645, -0.05386891727285968 
3.360000000002666, -0.03920216004367281 
3.3700000000026873, -0.028549716520154776 
3.3800000000027084, -0.021523761388788722 
3.3900000000027295, -0.017018313747961568 
3.4000000000027506, -0.014106116010669457 
3.4100000000027717, -0.012179912815580885 
3.420000000002793, -0.010873651101195873 
3.430000000002814, -0.009973652932585843 
3.440000000002835, -0.009359400912319415 
3.450000000002856, -0.008969798640986761 
3.460000000002877, -0.008786267265612564 
3.4700000000028983, -0.008826825434768754 
3.4800000000029194, -0.009147353608850451 
3.4900000000029405, -0.009844335341578794 
3.5000000000029616, -0.011040011259388033 
3.5100000000029827, -0.012784949125344827 
3.520000000003004, -0.014705164927190146 
3.530000000003025, -0.015182867715164841 
3.540000000003046, -0.010773676171806268 
3.550000000003067, 0.0012066438578901054 
3.5600000000030882, 0.017571926128840894 
3.5700000000031094, 0.03261968931567462 
3.5800000000031305, 0.04331945219090615 
3.5900000000031516, 0.05003551652697989 
3.6000000000031727, 0.05405978297801839 
3.6100000000031938, 0.056439268761996474 
3.620000000003215, 0.0578317774144015 
3.630000000003236, 0.05862015582969865 
3.640000000003257, 0.05902234133809261 
3.650000000003278, 0.0591600009652717 
3.6600000000032993, 0.059096552886291454 
3.6700000000033204, 0.05885727403576618 
3.6800000000033415, 0.058440388892094096 
3.6900000000033626, 0.05782757733670132 
3.7000000000033837, 0.057010054445199264 
3.710000000003405, 0.05607204635917869 
3.720000000003426, 0.05542533547245769 
3.730000000003447, 0.05628144800403547 
3.740000000003468, 0.06092405980238934 
3.750000000003489, 0.07112400125413479 
3.7600000000035103, 0.08496548093003774 
3.7700000000035314, 0.09788532451835777 
3.7800000000035525, 0.10726016083030958 
3.7900000000035736, 0.11320707960710656 
3.8000000000035947, 0.11677067562112771 
3.810000000003616, 0.11886112305513183 
3.820000000003637, 0.12006931677690473 
3.830000000003658, 0.12074767654419791 
3.840000000003679, 0.12110403621516579 
3.8500000000037002, 0.12126364251299675 
3.8600000000037213, 0.1213059923755729 
3.8700000000037424, 0.12128813770225773 
3.8800000000037635, 0.12126363707023562 
3.8900000000037847, 0.12130553213123511 
3.9000000000038058, 0.12154341543794114 
3.910000000003827, 0.12222410973682236 
3.920000000003848, 0.12378170131940924 
3.930000000003869, 0.12681056740004965 
3.94000000000389, 0.13171586620600084 
3.9500000000039113, 0.13808601953744679 
3.9600000000039324, 0.14462415947434584 
3.9700000000039535, 0.1500754333709766 
3.9800000000039746, 0.1539751178825428 
3.9900000000039957, 0.1564958996046865 
4.000000000004016, 0.1580091706370414 
4.010000000003993, 0.15884649788540434 
4.02000000000397, 0.1592473010213335 
4.030000000003946, 0.15937539382370233 
4.040000000003923, 0.15934446367429522 
4.0500000000039, 0.15923656148892146 
4.0600000000038765, 0.1591138972574094 
4.070000000003853, 0.1590275136888641 
4.08000000000383, 0.15902536866566283 
4.090000000003807, 0.1591603825051286 
4.100000000003783, 0.15949674203864278 
4.11000000000376, 0.16010941003813414 
4.120000000003737, 0.1610677006731335 
4.130000000003713, 0.16239534857978916 
4.14000000000369, 0.16401956649764898 
4.150000000003667, 0.16575496000042658 
4.1600000000036434, 0.1673620571590951 
4.17000000000362, 0.16864570481174682 
4.180000000003597, 0.16951133781758546 
4.1900000000035735, 0.1699518659874611 
4.20000000000355, 0.17000519206355885 
4.210000000003527, 0.16972369270415888 
4.220000000003504, 0.1691664242840916 
4.23000000000348, 0.16840458118503007 
4.240000000003457, 0.16752517532964056 
4.250000000003434, 0.16662265108259705 
4.26000000000341, 0.16578068543993815 
4.270000000003387, 0.16505667318691347 
4.280000000003364, 0.16447849367676504 
4.2900000000033405, 0.1640519299202247 
4.300000000003317, 0.16377069637791813 
4.310000000003294, 0.16362272292131658 
4.320000000003271, 0.1635907083810106 
4.330000000003247, 0.16364816780892452 
4.340000000003224, 0.1637541671765979 
4.350000000003201, 0.16385079689430965 
4.360000000003177, 0.16386580708741544 
4.370000000003154, 0.16371836836065554 
4.380000000003131, 0.1633223289156004 
4.390000000003107, 0.16258345796822854 
4.400000000003084, 0.1613952834834874 
4.410000000003061, 0.15964870032033512 
4.4200000000030375, 0.15727742457016053 
4.430000000003014, 0.1543456714722224 
4.440000000002991, 0.15112086001425282 
4.450000000002968, 0.1480162232872858 
4.460000000002944, 0.1453907663760386 
4.470000000002921, 0.14338858204349442 
4.480000000002898, 0.14195409620963478 
4.490000000002874, 0.14094515382720013 
4.500000000002851, 0.140220913723001 
4.510000000002828, 0.1396732385696092 
4.520000000002804, 0.13922482186493257 
4.530000000002781, 0.1388168155212421 
4.540000000002758, 0.1383957072725833 
4.5500000000027345, 0.1379013284103385 
4.560000000002711, 0.13725467044598572 
4.570000000002688, 0.136342507293212 
4.580000000002665, 0.13499445172574 
4.590000000002641, 0.13294899240221267 
4.600000000002618, 0.12981680696360726 
4.610000000002595, 0.12509420903812554 
4.620000000002571, 0.11837595776604737 
4.630000000002548, 0.10992472282707093 
4.640000000002525, 0.1011888755326392 
4.6500000000025015, 0.0941143672470191 
4.660000000002478, 0.08958541546970805 
4.670000000002455, 0.08713953799167992 
4.6800000000024315, 0.0859075483088203 
4.690000000002408, 0.08525010248825793 
4.700000000002385, 0.08482374850540404 
4.710000000002362, 0.08446585810103083 
4.720000000002338, 0.08409824960151072 
4.730000000002315, 0.08367388682813533 
4.740000000002292, 0.08314905767783169 
4.750000000002268, 0.08246545910415176 
4.760000000002245, 0.08153236321149702 
4.770000000002222, 0.08020111491518386 
4.7800000000021985, 0.07822315240780907 
4.790000000002175, 0.07518224112859499 
4.800000000002152, 0.07040705091099776 
4.810000000002129, 0.06295480580835891 
