t, s[1].omega / s[0].omega 
0, -0.2798892935956424 
0.009999999999999995, -0.26692047334580116 
0.019999999999999934, -0.25332542539729597 
0.029999999999999874, -0.2422902611547383 
0.04000000000000012, -0.23450139785764676 
0.050000000000000405, -0.22934795167826416 
0.06000000000000069, -0.22601378429856167 
0.07000000000000098, -0.2238635730915754 
0.08000000000000126, -0.2224772153554108 
0.09000000000000155, -0.22159478872823918 
0.10000000000000184, -0.22106176310435827 
0.11000000000000212, -0.22079166477786777 
0.12000000000000241, -0.22074417452219697 
0.130000000000002, -0.22091426014525123 
0.1400000000000009, -0.22132930528392744 
0.1499999999999998, -0.22205280168470165 
0.1599999999999987, -0.22319423585524278 
0.1699999999999976, -0.22492475613055757 
0.1799999999999965, -0.2274952960092414 
0.1899999999999954, -0.2312434538606088 
0.1999999999999943, -0.23655040328470284 
0.2099999999999932, -0.2436752405316937 
0.2199999999999921, -0.2524244060365707 
0.229999999999991, -0.2618573770861489 
0.2399999999999899, -0.270526305149374 
0.2499999999999888, -0.27730797154142695 
0.2599999999999877, -0.2819609050844338 
0.2699999999999866, -0.28489254213653525 
0.2799999999999855, -0.28665997950529937 
0.2899999999999844, -0.2877017234174527 
0.2999999999999833, -0.28829779685391094 
0.3099999999999822, -0.2886112367195456 
0.3199999999999811, -0.28873299644269557 
0.32999999999998, -0.28871235354002944 
0.3399999999999789, -0.28857537248079496 
0.3499999999999778, -0.28833686256232344 
0.35999999999997667, -0.2880097480796302 
0.36999999999997557, -0.28761342305896104 
0.37999999999997447, -0.2871800333758948 
0.38999999999997337, -0.2867557295370963 
0.39999999999997227, -0.2863947202562213 
0.40999999999997117, -0.28614763341799 
0.41999999999997006, -0.28604881601176857 
0.42999999999996896, -0.28610675267182406 
0.43999999999996786, -0.28629974665188096 
0.44999999999996676, -0.28657864246406184 
0.45999999999996566, -0.28687800807505304 
0.46999999999996456, -0.28713312285632847 
0.47999999999996346, -0.2872948196784375 
0.48999999999996235, -0.28733479934442474 
0.49999999999996125, -0.2872407982271984 
0.5099999999999602, -0.28700640277852096 
0.519999999999959, -0.28662002487214205 
0.529999999999958, -0.28605414403104523 
0.5399999999999568, -0.28525302055687896 
0.5499999999999557, -0.28411608865688887 
0.5599999999999546, -0.282476379644771 
0.5699999999999535, -0.280083102895337 
0.5799999999999524, -0.2766220869341873 
0.5899999999999513, -0.27183650525622055 
0.5999999999999502, -0.2657676192897497 
0.6099999999999491, -0.25894036949743365 
0.619999999999948, -0.2522044027054727 
0.6299999999999469, -0.24629323168197614 
0.6399999999999458, -0.2415358959613735 
0.6499999999999447, -0.23790321246554078 
0.6599999999999436, -0.23519540504323205 
0.6699999999999425, -0.2331849445547133 
0.6799999999999414, -0.23167951593312147 
0.6899999999999403, -0.23053644835118653 
0.6999999999999392, -0.22965820420464794 
0.7099999999999381, -0.22898377954121446 
0.719999999999937, -0.22848166789351051 
0.7299999999999359, -0.22814631160825352 
0.7399999999999348, -0.22799898765899904 
0.7499999999999337, -0.22809430708705128 
0.7599999999999326, -0.2285342899209843 
0.7699999999999315, -0.22949255138087277 
0.7799999999999304, -0.23124880273880694 
0.7899999999999293, -0.23421905870006773 
0.7999999999999282, -0.2389128357190206 
0.8099999999999271, -0.24561577363510217 
0.819999999999926, -0.2534955798964147 
0.8299999999999249, -0.25953080849300375 
0.8399999999999238, -0.25967079311287167 
0.8499999999999227, -0.25310278674011577 
0.8599999999999216, -0.24342572778187477 
0.8699999999999205, -0.234505955273197 
0.8799999999999194, -0.2278660125771957 
0.8899999999999183, -0.2233866209704401 
0.8999999999999172, -0.22048165910227163 
0.9099999999999161, -0.2186208768374906 
0.919999999999915, -0.2174357658508593 
0.9299999999999139, -0.2166941280091958 
0.9399999999999128, -0.2162572139300592 
0.9499999999999117, -0.2160474551337895 
0.9599999999999106, -0.2160288205721847 
0.9699999999999095, -0.216196843729865 
0.9799999999999084, -0.21657573745207168 
0.9899999999999073, -0.21722116025864163 
0.9999999999999062, -0.21822796356245858 
1.0099999999999052, -0.2197420290894884 
1.019999999999904, -0.2219726705112163 
1.029999999999903, -0.22519359098201613 
1.039999999999902, -0.22970159850841337 
1.0499999999999008, -0.23568073657046035 
1.0599999999998997, -0.242951609296339 
1.0699999999998986, -0.25076654063059967 
1.0799999999998975, -0.25800068180350755 
1.0899999999998964, -0.26376187702038206 
1.0999999999998953, -0.26781246345535614 
1.1099999999998942, -0.2704279303697305 
1.119999999999893, -0.27203350268718207 
1.129999999999892, -0.2729851403285134 
1.1399999999998909, -0.2735210543076419 
1.1499999999998898, -0.273784808057397 
1.1599999999998887, -0.27385810419217915 
1.1699999999998876, -0.2737853051484594 
1.1799999999998865, -0.27358959731189064 
1.1899999999998854, -0.2732844967853846 
1.1999999999998843, -0.2728836561213971 
1.2099999999998832, -0.27240972958253035 
1.219999999999882, -0.2719003117063748 
1.229999999999881, -0.27140745001707683 
1.2399999999998799, -0.270989210737217 
1.2499999999998788, -0.2706963880860428 
1.2599999999998777, -0.2705599866798712 
1.2699999999998766, -0.2705832616044154 
1.2799999999998755, -0.2707395143600273 
1.2899999999998744, -0.27097672490963726 
1.2999999999998733, -0.2712297453083071 
1.3099999999998722, -0.2714367222764816 
1.319999999999871, -0.2715520291903866 
1.32999999999987, -0.2715496294326929 
1.3399999999998689, -0.27141732602551977 
1.3499999999998678, -0.2711466129313655 
1.3599999999998666, -0.2707218940829039 
1.3699999999998655, -0.2701095646015613 
1.3799999999998644, -0.2692449935093381 
1.3899999999998633, -0.26801509874050194 
1.3999999999998622, -0.2662378594139724 
1.4099999999998611, -0.2636531191798275 
1.41999999999986, -0.25996596298700847 
1.429999999999859, -0.2549998770364887 
1.4399999999998578, -0.24893316251624648 
1.4499999999998567, -0.24239223222446787 
1.4599999999998556, -0.23618883230523147 
1.4699999999998545, -0.23090844663499613 
1.4799999999998534, -0.22674089061116343 
1.4899999999998523, -0.22358974884528532 
1.4999999999998512, -0.22124694669407052 
1.5099999999998501, -0.21950292103730037 
1.519999999999849, -0.21818851943870815 
1.529999999999848, -0.2171811150759997 
1.5399999999998468, -0.21639834692296187 
1.5499999999998457, -0.21579010283643663 
1.5599999999998446, -0.2153325879843436 
1.5699999999998435, -0.21502583524875152 
1.5799999999998424, -0.21489548164795566 
1.5899999999998413, -0.21499989242754572 
1.5999999999998402, -0.21544406813862885 
1.6099999999998391, -0.21640070112795856 
1.619999999999838, -0.21813104016860807 
1.629999999999837, -0.22096808261298037 
1.6399999999998358, -0.22513937600320671 
1.6499999999998347, -0.23017701896038173 
1.6599999999998336, -0.233888652952859 
1.6699999999998325, -0.2324038634492544 
1.6799999999998314, -0.22364930449133386 
1.6899999999998303, -0.2105735717919402 
1.6999999999998292, -0.1980242152670455 
1.709999999999828, -0.18847227862465954 
1.719999999999827, -0.18197419787488167 
1.729999999999826, -0.17774219133803118 
1.7399999999998248, -0.17501117246598358 
1.7499999999998237, -0.17324328577448722 
1.7599999999998226, -0.17210028164441335 
1.7699999999998215, -0.1713802358620678 
1.7799999999998204, -0.1709689652925636 
1.7899999999998193, -0.17081043720162212 
1.7999999999998182, -0.17089163928931492 
1.809999999999817, -0.17123804856024638 
1.819999999999816, -0.17191805127613752 
1.8299999999998149, -0.17305670975401552 
1.8399999999998138, -0.1748605841038518 
1.8499999999998127, -0.17765401536970843 
1.8599999999998116, -0.18191658990408827 
1.8699999999998105, -0.18827432112684275 
1.8799999999998094, -0.1973148923064416 
1.8899999999998083, -0.20904729809983585 
1.8999999999998072, -0.2221779757894371 
1.909999999999806, -0.23424874522482794 
1.919999999999805, -0.24324937246966974 
1.9299999999998039, -0.24888818088663917 
1.9399999999998028, -0.2520584208497131 
1.9499999999998017, -0.2537685673813598 
1.9599999999998006, -0.25469534437316965 
1.9699999999997995, -0.2552078262623117 
1.9799999999997984, -0.255491766993273 
1.9899999999997973, -0.25563951489717957 
1.9999999999997962, -0.2556983724563785 
2.0099999999998173, -0.2556945292992765 
2.0199999999998384, -0.25564542759222564 
2.0299999999998595, -0.2555673528522141 
2.0399999999998806, -0.25548119853562373 
2.0499999999999017, -0.2554169559750843 
2.059999999999923, -0.25541592930697926 
2.069999999999944, -0.2555291653939864 
2.079999999999965, -0.25581123618628493 
2.089999999999986, -0.2563094069739639 
2.100000000000007, -0.2570485518423629 
2.1100000000000283, -0.2580136630694624 
2.1200000000000494, -0.25913728853765583 
2.1300000000000705, -0.26030514516293446 
2.1400000000000916, -0.26138693409018054 
2.1500000000001127, -0.2622779747296696 
2.160000000000134, -0.26292433987938957 
2.170000000000155, -0.2633191893451911 
2.180000000000176, -0.26348149088586476 
2.190000000000197, -0.2634339966642194 
2.2000000000002182, -0.26318828959693863 
2.2100000000002393, -0.2627362481723097 
2.2200000000002604, -0.2620450896985077 
2.2300000000002815, -0.2610554390451188 
2.2400000000003026, -0.2596866289600703 
2.2500000000003237, -0.25785867952057606 
2.260000000000345, -0.25553896518739794 
2.270000000000366, -0.2528006447221001 
2.280000000000387, -0.2498452623214685 
2.290000000000408, -0.24694577580983074 
2.3000000000004293, -0.24433939608537977 
2.3100000000004504, -0.24215376204882974 
2.3200000000004715, -0.2404055763930924 
2.3300000000004926, -0.23904179601206108 
2.3400000000005137, -0.23798200810282216 
2.3500000000005348, -0.23714525357156865 
2.360000000000556, -0.2364627427298264 
2.370000000000577, -0.23588199732172965 
2.380000000000598, -0.23536646265902933 
2.390000000000619, -0.2348930484680738 
2.4000000000006403, -0.2344491753073669 
2.4100000000006614, -0.23403016270083019 
2.4200000000006825, -0.23363682399810734 
2.4300000000007036, -0.2332714545564541 
2.4400000000007247, -0.23292651583593926 
2.450000000000746, -0.2325505545226557 
2.460000000000767, -0.23195460517612904 
2.470000000000788, -0.23059641685176424 
2.480000000000809, -0.22724160900047846 
2.49000000000083, -0.2199285251278741 
2.5000000000008513, -0.2072937768925031 
2.5100000000008724, -0.19085837101107878 
2.5200000000008935, -0.17459583059663036 
2.5300000000009146, -0.16153650119649382 
2.5400000000009357, -0.15228490838788675 
2.550000000000957, -0.14609261508612065 
2.560000000000978, -0.14200493978667922 
2.570000000000999, -0.1392856812770706 
2.58000000000102, -0.13745065146673446 
2.5900000000010412, -0.1362013162034524 
2.6000000000010624, -0.13536091551030824 
2.6100000000010835, -0.1348319961010207 
2.6200000000011046, -0.13457262436324685 
2.6300000000011257, -0.13458652798225498 
2.6400000000011468, -0.13492481140951146 
2.650000000001168, -0.1356999736933649 
2.660000000001189, -0.13711614297870686 
2.67000000000121, -0.13952157254961356 
2.680000000001231, -0.14348354250028444 
2.6900000000012523, -0.14984442065836484 
2.7000000000012734, -0.15956866134805925 
2.7100000000012945, -0.17290215088699312 
2.7200000000013156, -0.1876154044977992 
2.7300000000013367, -0.19860391648753412 
2.740000000001358, -0.2021956388523427 
2.750000000001379, -0.19996929885764228 
2.7600000000014, -0.19576615215866142 
2.770000000001421, -0.19194489931661507 
2.780000000001442, -0.18914268233245227 
2.7900000000014633, -0.1872542353656807 
2.8000000000014844, -0.18602471900953602 
2.8100000000015055, -0.18524042048847078 
2.8200000000015266, -0.18475735091911527 
2.8300000000015477, -0.1844883896944149 
2.840000000001569, -0.184387277931994 
2.85000000000159, -0.1844379693440742 
2.860000000001611, -0.1846498811999165 
2.870000000001632, -0.18505826976595327 
2.8800000000016532, -0.185729186151683 
2.8900000000016743, -0.18676866929208125 
2.9000000000016954, -0.18833501781349854 
2.9100000000017165, -0.19064912836562295 
2.9200000000017377, -0.19398684039770667 
2.9300000000017588, -0.19861593312923526 
2.94000000000178, -0.2046272578626669 
2.950000000001801, -0.21168099448553565 
2.960000000001822, -0.2189042672997142 
2.970000000001843, -0.22524218834946144 
2.9800000000018643, -0.2300510437058763 
2.9900000000018854, -0.23331105198368252 
3.0000000000019065, -0.23536529148128152 
3.0100000000019276, -0.23660350555026805 
3.0200000000019487, -0.237320969686848 
3.03000000000197, -0.23770651079683436 
3.040000000001991, -0.23787152370292114 
3.050000000002012, -0.23787899114605143 
3.060000000002033, -0.2377638782509483 
3.070000000002054, -0.23754688997994555 
3.0800000000020753, -0.23724487186332444 
3.0900000000020964, -0.236879612455864 
3.1000000000021175, -0.23648446602733592 
3.1100000000021386, -0.2361063580705291 
3.1200000000021597, -0.2358011688439634 
3.130000000002181, -0.23562353010604448 
3.140000000002202, -0.23561476816615823 
3.150000000002223, -0.2357922514365302 
3.160000000002244, -0.23614169408878216 
3.1700000000022652, -0.2366148601054483 
3.1800000000022863, -0.23713711271664742 
3.1900000000023074, -0.2376260004786202 
3.2000000000023285, -0.23801304364042575 
3.2100000000023496, -0.23825643925684897 
3.2200000000023707, -0.2383393686901934 
3.230000000002392, -0.23825866264736187 
3.240000000002413, -0.23801139470884966 
3.250000000002434, -0.23758330795419152 
3.260000000002455, -0.23693898414305709 
3.2700000000024763, -0.2360126203331927 
3.2800000000024974, -0.23470087782039123 
3.2900000000025185, -0.2328663427668558 
3.3000000000025396, -0.2303703810930414 
3.3100000000025607, -0.22715337675530653 
3.3200000000025818, -0.22333830578341826 
3.330000000002603, -0.2192614099583277 
3.340000000002624, -0.21535199333321603 
3.350000000002645, -0.21194308849169247 
3.360000000002666, -0.20917400173079517 
3.3700000000026873, -0.20702194366161875 
3.3800000000027084, -0.20538297543547518 
3.3900000000027295, -0.20413500727607176 
3.4000000000027506, -0.2031690157476898 
3.4100000000027717, -0.20239921728417118 
3.420000000002793, -0.2017634372541101 
3.430000000002814, -0.2012198756623834 
3.440000000002835, -0.2007431037112871 
3.450000000002856, -0.20032058414028184 
3.460000000002877, -0.1999501480012927 
3.4700000000028983, -0.19963790099257944 
3.4800000000029194, -0.19939407690067054 
3.4900000000029405, -0.19921920995437276 
3.5000000000029616, -0.19905958395741036 
3.5100000000029827, -0.19868237596911315 
3.520000000003004, -0.197394354124454 
3.530000000003025, -0.1936566993127555 
3.540000000003046, -0.18528420198317266 
3.550000000003067, -0.1713995774223322 
3.5600000000030882, -0.15459503962697133 
3.5700000000031094, -0.13914248184265388 
3.5800000000031305, -0.12740364602935567 
3.5900000000031516, -0.11936161747260807 
3.6000000000031727, -0.1140651512510168 
3.6100000000031938, -0.11058656360257771 
3.620000000003215, -0.10827034336327679 
3.630000000003236, -0.1067026214744851 
3.640000000003257, -0.10563445066831285 
3.650000000003278, -0.1049224038631423 
3.6600000000032993, -0.10449233653767172 
3.6700000000033204, -0.10432087746486925 
3.6800000000033415, -0.10443019582660847 
3.6900000000033626, -0.1048947434471142 
3.7000000000033837, -0.10586193837658808 
3.710000000003405, -0.10759130949788473 
3.720000000003426, -0.11051400388656074 
3.730000000003447, -0.11528714413883265 
3.740000000003468, -0.12270439132554159 
3.750000000003489, -0.13304443223463455 
3.7600000000035103, -0.14439484139370368 
3.7700000000035314, -0.15160225801976673 
3.7800000000035525, -0.1503310207304474 
3.7900000000035736, -0.142556119445934 
3.8000000000035947, -0.13352407000294628 
3.810000000003616, -0.12627000910599975 
3.820000000003637, -0.12125047893197538 
3.830000000003658, -0.11796153628901884 
3.840000000003679, -0.115834459444874 
3.8500000000037002, -0.11445975164780804 
3.8600000000037213, -0.11358056136806478 
3.8700000000037424, -0.11304704289781295 
3.8800000000037635, -0.11278031439118294 
3.8900000000037847, -0.1127515500077098 
3.9000000000038058, -0.11297356296978636 
3.910000000003827, -0.11350288209469069 
3.920000000003848, -0.1144526694381581 
3.930000000003869, -0.11601928696204053 
3.94000000000389, -0.11852651355117327 
3.9500000000039113, -0.12248548219670534 
3.9600000000039324, -0.12863534790207276 
3.9700000000039535, -0.13782650001615057 
3.9800000000039746, -0.15044568149558876 
3.9900000000039957, -0.16529897867699922 
4.000000000004016, -0.1792387256272221 
4.010000000003993, -0.18926630201660238 
4.02000000000397, -0.19488769002890757 
4.030000000003946, -0.19748866220953493 
4.040000000003923, -0.19854564988408624 
4.0500000000039, -0.1989383135332863 
4.0600000000038765, -0.1990719762563893 
4.070000000003853, -0.19911084629359607 
4.08000000000383, -0.19911775193302142 
4.090000000003807, -0.19911745572141373 
4.100000000003783, -0.19912263408643335 
4.11000000000376, -0.1991447878108217 
4.120000000003737, -0.19919990263392984 
4.130000000003713, -0.19931271800159397 
4.14000000000369, -0.19952077606496715 
4.150000000003667, -0.19987805039338863 
4.1600000000036434, -0.20045708304207038 
4.17000000000362, -0.2013475977283 
4.180000000003597, -0.20264755005977544 
4.1900000000035735, -0.2044393788388172 
4.20000000000355, -0.20674456010427714 
4.210000000003527, -0.20946556184214266 
4.220000000003504, -0.21235949295697615 
4.23000000000348, -0.215099425361317 
4.240000000003457, -0.21740781086195718 
4.250000000003434, -0.21915655820276886 
4.26000000000341, -0.2203628007952491 
4.270000000003387, -0.22111928251704552 
4.280000000003364, -0.22152972087403633 
4.2900000000033405, -0.2216764773847355 
4.300000000003317, -0.22161275735954827 
4.310000000003294, -0.2213658258560874 
4.320000000003271, -0.22094391945956177 
4.330000000003247, -0.2203453188651109 
4.340000000003224, -0.21957050860360144 
4.350000000003201, -0.21863705438088205 
4.360000000003177, -0.21759206738611678 
4.370000000003154, -0.21651299988276257 
4.380000000003131, -0.21549165355594657 
4.390000000003107, -0.2146088339174934 
4.400000000003084, -0.21391451877055173 
4.410000000003061, -0.21342163797420638 
4.4200000000030375, -0.2131105212748313 
4.430000000003014, -0.2129379807934082 
4.440000000002991, -0.21284818274190695 
4.450000000002968, -0.21278422724505588 
4.460000000002944, -0.21269786840406657 
4.470000000002921, -0.21255401997820939 
4.480000000002898, -0.2123289245331778 
4.490000000002874, -0.21200369973730332 
4.500000000002851, -0.21155551353240135 
4.510000000002828, -0.2109469832707378 
4.520000000002804, -0.21011227665479032 
4.530000000002781, -0.20893736929055035 
4.540000000002758, -0.20723452527593858 
4.5500000000027345, -0.2047240209630478 
4.560000000002711, -0.20106810056665153 
4.570000000002688, -0.19603202077297352 
4.580000000002665, -0.18976603808102344 
4.590000000002641, -0.1829484791905935 
4.600000000002618, -0.17649564111270344 
4.610000000002595, -0.17106523230865697 
4.620000000002571, -0.1668524525288997 
4.630000000002548, -0.1637289143555736 
4.640000000002525, -0.1614514888404933 
4.6500000000025015, -0.15978566233378266 
4.660000000002478, -0.15854710716649195 
4.670000000002455, -0.15760400667416102 
4.6800000000024315, -0.1568675341729279 
4.690000000002408, -0.15628153258013527 
4.700000000002385, -0.15581462951546537 
4.710000000002362, -0.15545538647727883 
4.720000000002338, -0.15521033756769304 
4.730000000002315, -0.1551042349180236 
4.740000000002292, -0.1551800686615664 
4.750000000002268, -0.1554903365581097 
4.760000000002245, -0.15605261890743521 
4.770000000002222, -0.15669801023559138 
4.7800000000021985, -0.15668625583576185 
4.790000000002175, -0.15412793215573664 
4.800000000002152, -0.14622242124996593 
4.810000000002129, -0.13198026534211663 
4.820000000002105, -0.1148001947680809 
4.830000000002082, -0.09953742304620883 
4.840000000002059, -0.08836359161576289 
