t, s[1].omega / s[0].omega 
0, -0.7399905828224569 
0.009999999999999995, -0.7390363057693471 
0.019999999999999934, -0.7380742630991847 
0.029999999999999874, -0.7371213455122961 
0.04000000000000012, -0.7361873404553901 
0.050000000000000405, -0.7352816609590686 
0.06000000000000069, -0.7344187865561922 
0.07000000000000098, -0.7336211760625558 
0.08000000000000126, -0.7329198992386826 
0.09000000000000155, -0.7323534426770764 
0.10000000000000184, -0.7319648623585638 
0.11000000000000212, -0.7317975169995874 
0.12000000000000241, -0.731890156870163 
0.130000000000002, -0.7322726793657037 
0.1400000000000009, -0.7329638144943635 
0.1499999999999998, -0.7339711875449418 
0.1599999999999987, -0.7352929450305065 
0.1699999999999976, -0.736918955615578 
0.1799999999999965, -0.738828970189285 
0.1899999999999954, -0.7409855616031833 
0.1999999999999943, -0.743322083566472 
0.2099999999999932, -0.7457311380016671 
0.2199999999999921, -0.748065283282868 
0.229999999999991, -0.7501612869254368 
0.2399999999999899, -0.7518839651177444 
0.2499999999999888, -0.7531645447132684 
0.2599999999999877, -0.7540079983766131 
0.2699999999999866, -0.7544693657559869 
0.2799999999999855, -0.7546205456701349 
0.2899999999999844, -0.7545263499547353 
0.2999999999999833, -0.754234646688672 
0.3099999999999822, -0.7537772043156132 
0.3199999999999811, -0.7531778469995237 
0.32999999999998, -0.7524682455777864 
0.3399999999999789, -0.7517158934767368 
0.3499999999999778, -0.7510718636148688 
0.35999999999997667, -0.750844473901113 
0.36999999999997557, -0.7515908484073341 
0.37999999999997447, -0.7541787825979712 
0.38999999999997337, -0.7597030763624649 
0.39999999999997227, -0.7690964869314442 
0.40999999999997117, -0.7824213168800942 
0.41999999999997006, -0.7982949724716815 
0.42999999999996896, -0.814227518281327 
0.43999999999996786, -0.8278994729862935 
0.44999999999996676, -0.8382161402009786 
0.45999999999996566, -0.8453006764516273 
0.46999999999996456, -0.8498646509388669 
0.47999999999996346, -0.8526759908365392 
0.48999999999996235, -0.8543350942062672 
0.49999999999996125, -0.8552469496501958 
0.5099999999999602, -0.8556611122345992 
0.519999999999959, -0.85571684748381 
0.529999999999958, -0.8554741835653678 
0.5399999999999568, -0.8549281143376332 
0.5499999999999557, -0.8540064511046067 
0.5599999999999546, -0.8525506612502955 
0.5699999999999535, -0.8502782922881822 
0.5799999999999524, -0.8467311546550276 
0.5899999999999513, -0.8412372425395672 
0.5999999999999502, -0.8329706637393501 
0.6099999999999491, -0.8212557590627387 
0.619999999999948, -0.8061697208388681 
0.6299999999999469, -0.7890701811456802 
0.6399999999999458, -0.7723297052809946 
0.6499999999999447, -0.7582074328231134 
0.6599999999999436, -0.7478440992323795 
0.6699999999999425, -0.7411509041445227 
0.6799999999999414, -0.7373314574376781 
0.6899999999999403, -0.7354364015046435 
0.6999999999999392, -0.7346727722904094 
0.7099999999999381, -0.73449060353089 
0.719999999999937, -0.7345533313072042 
0.7299999999999359, -0.7346732867089903 
0.7399999999999348, -0.7347518545584311 
0.7499999999999337, -0.7347361176334605 
0.7599999999999326, -0.7345911748034143 
0.7699999999999315, -0.7342840507752842 
0.7799999999999304, -0.73377623398634 
0.7899999999999293, -0.733024353761071 
0.7999999999999282, -0.7319899793849627 
0.8099999999999271, -0.7306572851688766 
0.819999999999926, -0.7290505521808412 
0.8299999999999249, -0.7272382574235832 
0.8399999999999238, -0.7253168987743133 
0.8499999999999227, -0.7233836257070114 
0.8599999999999216, -0.7215148776410409 
0.8699999999999205, -0.7197603011687118 
0.8799999999999194, -0.7181487843834251 
0.8899999999999183, -0.716698426938749 
0.8999999999999172, -0.7154244351099708 
0.9099999999999161, -0.7143428408929878 
0.919999999999915, -0.7134704668455615 
0.9299999999999139, -0.7128225090978365 
0.9399999999999128, -0.7124092750936288 
0.9499999999999117, -0.7122334859552153 
0.9599999999999106, -0.7122891945993455 
0.9699999999999095, -0.712562750138268 
0.9799999999999084, -0.7130354950543397 
0.9899999999999073, -0.7136872734039978 
0.9999999999999062, -0.7144995142272602 
1.0099999999999052, -0.7154565702225197 
1.019999999999904, -0.7165440271548761 
1.029999999999903, -0.7177430868073806 
1.039999999999902, -0.7190215885533587 
1.0499999999999008, -0.7203252902761705 
1.0599999999998997, -0.7215763429732841 
1.0699999999998986, -0.7226852234463437 
1.0799999999998975, -0.7235740620510633 
1.0899999999998964, -0.7241983679522368 
1.0999999999998953, -0.7245534529282334 
1.1099999999998942, -0.7246642059137225 
1.119999999999893, -0.724568398422612 
1.129999999999892, -0.7243039607953541 
1.1399999999998909, -0.723904467928335 
1.1499999999998898, -0.7234027851551292 
1.1599999999998887, -0.7228426353598657 
1.1699999999998876, -0.7222998029607404 
1.1799999999998865, -0.7219164545856716 
1.1899999999998854, -0.7219512894699298 
1.1999999999998843, -0.7228413291092174 
1.2099999999998832, -0.7252527396223658 
1.219999999999882, -0.7300639360335299 
1.229999999999881, -0.7381840542273315 
1.2399999999998799, -0.7501191515878427 
1.2499999999998788, -0.7653785197990169 
1.2599999999998777, -0.7821883780222109 
1.2699999999998766, -0.798075383454724 
1.2799999999998755, -0.8110849245958448 
1.2899999999998744, -0.8205464370404882 
1.2999999999998733, -0.8268549480520019 
1.3099999999998722, -0.8308207483423116 
1.319999999999871, -0.8332081581609023 
1.32999999999987, -0.8345771098962416 
1.3399999999998689, -0.8352892032497217 
1.3499999999998678, -0.8355587805451103 
1.3599999999998666, -0.8354985498831095 
1.3699999999998655, -0.8351475514238524 
1.3799999999998644, -0.8344814642388384 
1.3899999999998633, -0.8334063696659888 
1.3999999999998622, -0.8317352871769514 
1.4099999999998611, -0.8291466501167735 
1.41999999999986, -0.825132085782258 
1.429999999999859, -0.8189708925549175 
1.4399999999998578, -0.8098324129272868 
1.4499999999998567, -0.7971571771206583 
1.4599999999998556, -0.7813058458262334 
1.4699999999998545, -0.7639675534604989 
1.4799999999998534, -0.7476303364071673 
1.4899999999998523, -0.7343424680704226 
1.4999999999998512, -0.7248941427350137 
1.5099999999998501, -0.7189436287556583 
1.519999999999849, -0.715612198630424 
1.529999999999848, -0.7139832456740179 
1.5399999999998468, -0.7133359284421099 
1.5499999999998457, -0.7131863236863822 
1.5599999999998446, -0.7132429143630528 
1.5699999999998435, -0.7133434415490634 
1.5799999999998424, -0.7134013987242582 
1.5899999999998413, -0.7133686518140958 
1.5999999999998402, -0.7132120212001644 
1.6099999999998391, -0.7129001207220816 
1.619999999999838, -0.7123982142394008 
1.629999999999837, -0.7116708604269171 
1.6399999999998358, -0.7106925091847558 
1.6499999999998347, -0.7094629514579797 
1.6599999999998336, -0.7080186488310014 
1.6699999999998325, -0.7064295291969396 
1.6799999999998314, -0.7047800525961928 
1.6899999999998303, -0.7031460833250869 
1.6999999999998292, -0.7015811264714482 
1.709999999999828, -0.7001160140217625 
1.719999999999827, -0.6987669716726517 
1.729999999999826, -0.6975450535054784 
1.7399999999998248, -0.6964627698969275 
1.7499999999998237, -0.6955369347780712 
1.7599999999998226, -0.6947884246852705 
1.7699999999998215, -0.6942399443531428 
1.7799999999998204, -0.693912861629372 
1.7899999999998193, -0.6938241402738589 
1.7999999999998182, -0.6939843129381869 
1.809999999999817, -0.6943971125902917 
1.819999999999816, -0.6950607897133769 
1.8299999999998149, -0.6959704399667465 
1.8399999999998138, -0.697120032513249 
1.8499999999998127, -0.6985023558794311 
1.8599999999998116, -0.700104932232144 
1.8699999999998105, -0.7019006486570016 
1.8799999999998094, -0.7038345006093574 
1.8899999999998083, -0.7058130031722409 
1.8999999999998072, -0.7077076801680964 
1.909999999999806, -0.7093807096468254 
1.919999999999805, -0.7107244770955407 
1.9299999999998039, -0.7116906871398354 
1.9399999999998028, -0.7122907040883062 
1.9499999999998017, -0.7125725677044416 
1.9599999999998006, -0.712593907051066 
1.9699999999997995, -0.7124041045606194 
1.9799999999997984, -0.7120377653508343 
1.9899999999997973, -0.7115163844885408 
1.9999999999997962, -0.7108560160251252 
2.0099999999998173, -0.7100820571729947 
2.0199999999998384, -0.7092558380574325 
2.0299999999998595, -0.7085201574276355 
2.0399999999998806, -0.7081685139849083 
2.0499999999999017, -0.7087260815596189 
2.059999999999923, -0.7109848390715121 
2.069999999999944, -0.7158633315071852 
2.079999999999965, -0.7239532498479402 
2.089999999999986, -0.7348803259560193 
2.100000000000007, -0.747103377706924 
2.1100000000000283, -0.7586528082727251 
2.1200000000000494, -0.7681838669773606 
2.1300000000000705, -0.7753267638874474 
2.1400000000000916, -0.7803478050376296 
2.1500000000001127, -0.783725707024266 
2.160000000000134, -0.7859188111645027 
2.170000000000155, -0.787286677887092 
2.180000000000176, -0.7880833879406545 
2.190000000000197, -0.7884745275745245 
2.2000000000002182, -0.7885566534258742 
2.2100000000002393, -0.7883710839723898 
2.2200000000002604, -0.7879092848040902 
2.2300000000002815, -0.787108935439584 
2.2400000000003026, -0.7858407924970497 
2.2500000000003237, -0.7838899098773616 
2.260000000000345, -0.7809452078807404 
2.270000000000366, -0.7766311127318886 
2.280000000000387, -0.7706280200610751 
2.290000000000408, -0.7628843338836957 
2.3000000000004293, -0.7537968061132557 
2.3100000000004504, -0.7441668655822505 
2.3200000000004715, -0.7349118978152639 
2.3300000000004926, -0.7267507981848091 
2.3400000000005137, -0.7200630443891181 
2.3500000000005348, -0.7149216594974674 
2.360000000000556, -0.7111972861690836 
2.370000000000577, -0.7086575075864265 
2.380000000000598, -0.7070376760108952 
2.390000000000619, -0.7060851649094363 
2.4000000000006403, -0.705583646797161 
2.4100000000006614, -0.7053625668939734 
2.4200000000006825, -0.7052960714345549 
2.4300000000007036, -0.705295637506589 
2.4400000000007247, -0.7053004037453808 
2.450000000000746, -0.7052683486967612 
2.460000000000767, -0.7051703420455379 
2.470000000000788, -0.7049879201991885 
2.480000000000809, -0.7047141711228736 
2.49000000000083, -0.7043552743758575 
2.5000000000008513, -0.7039291617669771 
2.5100000000008724, -0.7034593398510144 
2.5200000000008935, -0.7029659608701931 
2.5300000000009146, -0.7024591720170456 
2.5400000000009357, -0.7019385261766862 
2.550000000000957, -0.7013980671051725 
2.560000000000978, -0.7008334559116753 
2.570000000000999, -0.7002475245511823 
2.58000000000102, -0.6996530867738829 
2.5900000000010412, -0.6990741099781939 
2.6000000000010624, -0.6985468195237133 
2.6100000000010835, -0.6981213493090639 
2.6200000000011046, -0.697863360125267 
2.6300000000011257, -0.6978544035854453 
2.6400000000011468, -0.6981899401642163 
2.650000000001168, -0.6989746782702682 
2.660000000001189, -0.7003157570941287 
2.67000000000121, -0.7023144113653089 
2.680000000001231, -0.7050554575579109 
2.6900000000012523, -0.7085914266910247 
2.7000000000012734, -0.7129162325731007 
2.7100000000012945, -0.7179260731942124 
2.7200000000013156, -0.7233787032593606 
2.7300000000013367, -0.7288857778074044 
2.740000000001358, -0.7339821204857518 
2.750000000001379, -0.7382691975392845 
2.7600000000014, -0.7415466026017359 
2.770000000001421, -0.7438358107244143 
2.780000000001442, -0.7452993975608596 
2.7900000000014633, -0.7461373973965149 
2.8000000000014844, -0.7465213132126161 
2.8100000000015055, -0.7465711795904888 
2.8200000000015266, -0.7463560944975385 
2.8300000000015477, -0.7459011246846469 
2.840000000001569, -0.7451922610829698 
2.85000000000159, -0.7441769328708749 
2.860000000001611, -0.7427603633953705 
2.870000000001632, -0.7407995764430025 
2.8800000000016532, -0.7380979971480098 
2.8900000000016743, -0.7344038638269098 
2.9000000000016954, -0.7294167978956071 
2.9100000000017165, -0.7228256075460104 
2.9200000000017377, -0.7144627997355959 
2.9300000000017588, -0.7046674671643514 
2.94000000000178, -0.6945992335235722 
2.950000000001801, -0.6858715280892852 
2.960000000001822, -0.6795978930096979 
2.970000000001843, -0.6758828607063592 
2.9800000000018643, -0.6741301434950379 
2.9900000000018854, -0.6735858793510345 
3.0000000000019065, -0.6736516669921191 
3.0100000000019276, -0.6739498860989366 
3.0200000000019487, -0.6742762557978959 
3.03000000000197, -0.6745332886285913 
3.040000000001991, -0.6746787671940726 
3.050000000002012, -0.6746931562994989 
3.060000000002033, -0.6745608710300747 
3.070000000002054, -0.6742602161801977 
3.0800000000020753, -0.6737593307108155 
3.0900000000020964, -0.6730183085733691 
3.1000000000021175, -0.6719993701365511 
3.1100000000021386, -0.6706851695923182 
3.1200000000021597, -0.6690984450496029 
3.130000000002181, -0.667309143656093 
3.140000000002202, -0.6654193017977523 
3.150000000002223, -0.6635329393730054 
3.160000000002244, -0.6617301833188031 
3.1700000000022652, -0.6600583445704195 
3.1800000000022863, -0.6585381023083041 
3.1900000000023074, -0.6571756801490214 
3.2000000000023285, -0.6559736181905689 
3.2100000000023496, -0.6549372613004046 
3.2200000000023707, -0.6540771903730696 
3.230000000002392, -0.6534089006460309 
3.240000000002413, -0.6529509893380643 
3.250000000002434, -0.6527228272489266 
3.260000000002455, -0.6527424932901995 
3.2700000000024763, -0.6530255868404788 
3.2800000000024974, -0.6535852467625134 
3.2900000000025185, -0.6544332346622943 
3.3000000000025396, -0.6555813131100735 
3.3100000000025607, -0.6570414140932153 
3.3200000000025818, -0.6588223404816315 
3.330000000002603, -0.660920389629615 
3.340000000002624, -0.6633025431543633 
3.350000000002645, -0.6658857228252585 
3.360000000002666, -0.6685245323806711 
3.3700000000026873, -0.6710261020693309 
3.3800000000027084, -0.6731993385615773 
3.3900000000027295, -0.6749152127044596 
3.4000000000027506, -0.676137299687456 
3.4100000000027717, -0.6769061706996778 
3.420000000002793, -0.6772989108190747 
3.430000000002814, -0.6773930418036231 
3.440000000002835, -0.6772469177238842 
3.450000000002856, -0.6768933951378374 
3.460000000002877, -0.6763397342625177 
3.4700000000028983, -0.67556895003309 
3.4800000000029194, -0.6745407950596632 
3.4900000000029405, -0.6731924153551433 
3.5000000000029616, -0.6714389434439498 
3.5100000000029827, -0.6691712777787344 
3.520000000003004, -0.6662395259088395 
3.530000000003025, -0.6624027352765648 
3.540000000003046, -0.65726396321467 
3.550000000003067, -0.6503616242457699 
3.5600000000030882, -0.6416634945937542 
3.5700000000031094, -0.6321436110270857 
3.5800000000031305, -0.623478567735886 
3.5900000000031516, -0.6169367774635283 
3.6000000000031727, -0.6127693356592843 
3.6100000000031938, -0.6105065141257815 
3.620000000003215, -0.6094894893176623 
3.630000000003236, -0.6091718098623377 
3.640000000003257, -0.6091898890800519 
3.650000000003278, -0.6093307459742694 
3.6600000000032993, -0.6094796621005407 
3.6700000000033204, -0.6095776300169761 
3.6800000000033415, -0.6095931956161372 
3.6900000000033626, -0.6095056898805266 
3.7000000000033837, -0.6092963450701685 
3.710000000003405, -0.6089453204452682 
3.720000000003426, -0.6084341498123471 
3.730000000003447, -0.6077532469027712 
3.740000000003468, -0.6069118404417524 
3.750000000003489, -0.6059440801195012 
3.7600000000035103, -0.604904636168646 
3.7700000000035314, -0.6038536012197062 
3.7800000000035525, -0.602839109879539 
3.7900000000035736, -0.6018875300163482 
3.8000000000035947, -0.601004515295583 
3.810000000003616, -0.6001832975176382 
3.820000000003637, -0.5994144781742027 
3.830000000003658, -0.5986934338138783 
3.840000000003679, -0.5980244363957257 
3.8500000000037002, -0.5974226304445933 
3.8600000000037213, -0.5969154721426887 
3.8700000000037424, -0.5965446729585561 
3.8800000000037635, -0.59636894818101 
3.8900000000037847, -0.596467405449332 
3.9000000000038058, -0.5969432399759701 
3.910000000003827, -0.5979273103291193 
3.920000000003848, -0.5995807496339229 
3.930000000003869, -0.6020943641693499 
3.94000000000389, -0.6056792809554123 
3.9500000000039113, -0.6105376081317277 
3.9600000000039324, -0.6167962184517307 
3.9700000000039535, -0.6243926012804455 
3.9800000000039746, -0.632942488050346 
3.9900000000039957, -0.6416990765954621 
4.000000000004016, -0.6497388380285919 
4.010000000003993, -0.6563315651258044 
4.02000000000397, -0.6612087090562284 
4.030000000003946, -0.6645253258020113 
4.040000000003923, -0.6666336636770938 
4.0500000000039, -0.6678877760175651 
4.0600000000038765, -0.6685583164105131 
4.070000000003853, -0.668822556439727 
4.08000000000383, -0.6687807935445302 
4.090000000003807, -0.6684729331592051 
4.100000000003783, -0.6678861698724226 
4.11000000000376, -0.6669512609557542 
4.120000000003737, -0.665526239905189 
4.130000000003713, -0.6633681035339625 
4.14000000000369, -0.6601020263423099 
4.150000000003667, -0.6552240876485291 
4.1600000000036434, -0.6482155955848932 
4.17000000000362, -0.6388404967782966 
4.180000000003597, -0.6275139808299082 
4.1900000000035735, -0.6153653911465222 
4.20000000000355, -0.6037788998493673 
4.210000000003527, -0.5937865110911985 
4.220000000003504, -0.5858139468892466 
4.23000000000348, -0.5798063730512071 
4.240000000003457, -0.5754691928026299 
4.250000000003434, -0.5724469111034429 
4.26000000000341, -0.5704122169683183 
4.270000000003387, -0.5690962100917533 
4.280000000003364, -0.5682906811104601 
4.2900000000033405, -0.5678401599348502 
4.300000000003317, -0.5676316526412384 
4.310000000003294, -0.5675850462478913 
4.320000000003271, -0.5676451509551069 
4.330000000003247, -0.5677756633648848 
4.340000000003224, -0.5679550805626747 
4.350000000003201, -0.5681743091517247 
4.360000000003177, -0.5684351620189517 
4.370000000003154, -0.5687481971198645 
4.380000000003131, -0.5691280038376755 
4.390000000003107, -0.5695849302024467 
4.400000000003084, -0.5701146464723351 
4.410000000003061, -0.5706899222766434 
4.4200000000030375, -0.5712604763537955 
4.430000000003014, -0.571764085889985 
4.440000000002991, -0.5721448363786644 
4.450000000002968, -0.5723681177162935 
4.460000000002944, -0.5724242622773871 
4.470000000002921, -0.5723217133275758 
4.480000000002898, -0.5720766406625886 
4.490000000002874, -0.5717049322622565 
4.500000000002851, -0.571218658873432 
4.510000000002828, -0.570626781377676 
4.520000000002804, -0.5699397290243706 
4.530000000002781, -0.5691783100708235 
4.540000000002758, -0.5683876913595021 
4.5500000000027345, -0.5676543777472662 
4.560000000002711, -0.5671127690688524 
4.570000000002688, -0.5669005066791262 
4.580000000002665, -0.5669901794763244 
4.590000000002641, -0.5668878418138028 
4.600000000002618, -0.565522333158226 
4.610000000002595, -0.5619337552026749 
4.620000000002571, -0.5564245641601631 
4.630000000002548, -0.55053449031569 
4.640000000002525, -0.5457141684356688 
4.6500000000025015, -0.5424825227081616 
4.660000000002478, -0.5406344820882597 
4.670000000002455, -0.5397313734932194 
4.6800000000024315, -0.5393818672822787 
4.690000000002408, -0.5393160879740628 
4.700000000002385, -0.5393700511715562 
4.710000000002362, -0.5394509050674574 
4.720000000002338, -0.5395075694215837 
4.730000000002315, -0.5395110183091236 
4.740000000002292, -0.5394425924175404 
4.750000000002268, -0.5392882403366488 
4.760000000002245, -0.5390374169705102 
4.770000000002222, -0.5386858395027113 
4.7800000000021985, -0.5382405631501467 
4.790000000002175, -0.5377239906433467 
4.800000000002152, -0.5371724097661861 
4.810000000002129, -0.5366271249662294 
4.820000000002105, -0.5361215827773738 
4.830000000002082, -0.5356712370050182 
4.840000000002059, -0.5352710969519863 
4.850000000002035, -0.5349012090741977 
4.860000000002012, -0.5345364637205716 
4.870000000001989, -0.5341558395936015 
4.880000000001965, -0.533747740896166 
4.890000000001942, -0.5333112367949744 
4.900000000001919, -0.5328554538182868 
4.9100000000018955, -0.5323998606638055 
4.920000000001872, -0.5319774910338673 
