t, s[1].omega / s[0].omega 
0, -0.3999924234475648 
0.009999999999999995, -0.3993005136409661 
0.019999999999999934, -0.39873472245323194 
0.029999999999999874, -0.3982721860571018 
0.04000000000000012, -0.3978773257316953 
0.050000000000000405, -0.39751342141558127 
0.06000000000000069, -0.39715084272904144 
0.07000000000000098, -0.39677042226655806 
0.08000000000000126, -0.3963628616111133 
0.09000000000000155, -0.395926468360532 
0.10000000000000184, -0.395465364527746 
0.11000000000000212, -0.3949893827441238 
0.12000000000000241, -0.39451603117867584 
0.130000000000002, -0.39407409703632695 
0.1400000000000009, -0.39370636928210995 
0.1499999999999998, -0.3934622049652815 
0.1599999999999987, -0.3933522783731686 
0.1699999999999976, -0.3932020890975318 
0.1799999999999965, -0.3923264752838797 
0.1899999999999954, -0.3891588470005217 
0.1999999999999943, -0.3816369288375891 
0.2099999999999932, -0.3691434549075903 
0.2199999999999921, -0.35405677337941555 
0.229999999999991, -0.33999928361943443 
0.2399999999999899, -0.3290737947344314 
0.2499999999999888, -0.32145327647077127 
0.2599999999999877, -0.3164228901477526 
0.2699999999999866, -0.313179684240488 
0.2799999999999855, -0.3111073229276183 
0.2899999999999844, -0.30979262837045357 
0.2999999999999833, -0.3089741916477258 
0.3099999999999822, -0.30849162224045534 
0.3199999999999811, -0.3082497486546544 
0.32999999999998, -0.3081963471501706 
0.3399999999999789, -0.30830951495465925 
0.3499999999999778, -0.30859160431640476 
0.35999999999997667, -0.30906769408239826 
0.36999999999997557, -0.3097871465525779 
0.37999999999997447, -0.31082663705698604 
0.38999999999997337, -0.31229181141572976 
0.39999999999997227, -0.314311751622591 
0.40999999999997117, -0.3170153567935807 
0.41999999999997006, -0.3204751981173827 
0.42999999999996896, -0.3246171212267967 
0.43999999999996786, -0.3291425075483176 
0.44999999999996676, -0.3335640675602983 
0.45999999999996566, -0.3373973094358396 
0.46999999999996456, -0.34036974057291836 
0.47999999999996346, -0.34246973732987296 
0.48999999999996235, -0.3438440556065792 
0.49999999999996125, -0.34467565408894196 
0.5099999999999602, -0.34511667855944383 
0.519999999999959, -0.3452708088821606 
0.529999999999958, -0.34519766217936104 
0.5399999999999568, -0.34492200991747124 
0.5499999999999557, -0.34444216265872735 
0.5599999999999546, -0.3437382900763357 
0.5699999999999535, -0.34278432490557653 
0.5799999999999524, -0.34156685373687007 
0.5899999999999513, -0.3401088348075344 
0.5999999999999502, -0.33848554767417477 
0.6099999999999491, -0.3368158667036131 
0.619999999999948, -0.33522711683024775 
0.6299999999999469, -0.3338153011190621 
0.6399999999999458, -0.33262504384353153 
0.6499999999999447, -0.3316536302476182 
0.6599999999999436, -0.33086764503900634 
0.6699999999999425, -0.3302206351104262 
0.6799999999999414, -0.3296664795748253 
0.6899999999999403, -0.32916730866752164 
0.6999999999999392, -0.3286965369693888 
0.7099999999999381, -0.3282385418675092 
0.719999999999937, -0.32778696217738845 
0.7299999999999359, -0.3273433043919993 
0.7399999999999348, -0.32691681617587925 
0.7499999999999337, -0.3265257405709531 
0.7599999999999326, -0.326198697508859 
0.7699999999999315, -0.3259711983793907 
0.7799999999999304, -0.32586150034793454 
0.7899999999999293, -0.32578386323495867 
0.7999999999999282, -0.3253181627467722 
0.8099999999999271, -0.3232970374202634 
0.819999999999926, -0.3176127879613797 
0.8299999999999249, -0.30641576436347473 
0.8399999999999238, -0.2906303424666444 
0.8499999999999227, -0.2740985675518244 
0.8599999999999216, -0.26028031155480263 
0.8699999999999205, -0.2502529562034971 
0.8799999999999194, -0.24348236623515324 
0.8899999999999183, -0.23903460347609454 
0.8999999999999172, -0.23612516157184366 
0.9099999999999161, -0.23421537270707313 
0.919999999999915, -0.23296370462937407 
0.9299999999999139, -0.2321619846649483 
0.9399999999999128, -0.23168843585973833 
0.9499999999999117, -0.23147861079989504 
0.9599999999999106, -0.23150959673421476 
0.9699999999999095, -0.2317936908502471 
0.9799999999999084, -0.23237955078631498 
0.9899999999999073, -0.23336033162225878 
0.9999999999999062, -0.23488911817477715 
1.0099999999999052, -0.23720099646456702 
1.019999999999904, -0.24063498123191412 
1.029999999999903, -0.24562979945498392 
1.039999999999902, -0.25262672143844084 
1.0499999999999008, -0.26177887420111423 
1.0599999999998997, -0.2724924938568683 
1.0699999999998986, -0.28325815986444103 
1.0799999999998975, -0.2923548598329405 
1.0899999999998964, -0.29891409515670836 
1.0999999999998953, -0.3031322548270945 
1.1099999999998942, -0.3056803710912076 
1.119999999999893, -0.3071832768781476 
1.129999999999892, -0.3080612396209933 
1.1399999999998909, -0.3085609014293531 
1.1499999999998898, -0.3088192279415191 
1.1599999999998887, -0.30891054200155293 
1.1699999999998876, -0.30887434726463747 
1.1799999999998865, -0.3087313303455771 
1.1899999999998854, -0.30849377642227493 
1.1999999999998843, -0.30817405029235456 
1.2099999999998832, -0.30779224121818866 
1.219999999999882, -0.30738150916188517 
1.229999999999881, -0.30698812518925733 
1.2399999999998799, -0.30666447083134063 
1.2499999999998788, -0.30645701932845604 
1.2599999999998777, -0.3063939930325907 
1.2699999999998766, -0.3064766896926733 
1.2799999999998755, -0.30667674637107617 
1.2899999999998744, -0.30694117444935964 
1.2999999999998733, -0.3072055156995272 
1.3099999999998722, -0.3074106649498206 
1.319999999999871, -0.30751505694443504 
1.32999999999987, -0.30749672841903186 
1.3399999999998689, -0.3073466578271873 
1.3499999999998678, -0.3070584351346979 
1.3599999999998666, -0.30661773656870184 
1.3699999999998655, -0.30599160003962755 
1.3799999999998644, -0.3051148992032854 
1.3899999999998633, -0.3038704209762665 
1.3999999999998622, -0.30206103599071144 
1.4099999999998611, -0.2993838319953969 
1.41999999999986, -0.2954478952662294 
1.429999999999859, -0.2899197684820736 
1.4399999999998578, -0.28283250773287094 
1.4499999999998567, -0.274831781324885 
1.4599999999998556, -0.2669684679080681 
1.4699999999998545, -0.26012868514016885 
1.4799999999998534, -0.2546832998143101 
1.4899999999998523, -0.25056980435716286 
1.4999999999998512, -0.24753429275039202 
1.5099999999998501, -0.24530262542482095 
1.519999999999849, -0.2436499190431165 
1.529999999999848, -0.24241290626706696 
1.5399999999998468, -0.24148187703234467 
1.5499999999998457, -0.24078934162775675 
1.5599999999998446, -0.24030140781175927 
1.5699999999998435, -0.24001361878179917 
1.5799999999998424, -0.2399520315919394 
1.5899999999998413, -0.24018075769959507 
1.5999999999998402, -0.24081835692607512 
1.6099999999998391, -0.24206687799484441 
1.619999999999838, -0.24425712790131465 
1.629999999999837, -0.24790456575826778 
1.6399999999998358, -0.25372890299304207 
1.6499999999998347, -0.26247042102093343 
1.6599999999998336, -0.27416157328047375 
1.6699999999998325, -0.28682573509084586 
1.6799999999998314, -0.29633940393423547 
1.6899999999998303, -0.29966023451367596 
1.6999999999998292, -0.29783248162189263 
1.709999999999828, -0.294033185100618 
1.719999999999827, -0.29046515713256793 
1.729999999999826, -0.28783131279693336 
1.7399999999998248, -0.2860816908185546 
1.7499999999998237, -0.28497736666128815 
1.7599999999998226, -0.2843018987538749 
1.7699999999998215, -0.2839034222848157 
1.7799999999998204, -0.28368586330733475 
1.7899999999998193, -0.28359267882034866 
1.7999999999998182, -0.28359434882241913 
1.809999999999817, -0.28368093422970053 
1.819999999999816, -0.2838587752040659 
1.8299999999998149, -0.2841501554735095 
1.8399999999998138, -0.2845946953734103 
1.8499999999998127, -0.28525087481012446 
1.8599999999998116, -0.2861952856861301 
1.8699999999998105, -0.28751573569570266 
1.8799999999998094, -0.2892921765588443 
1.8899999999998083, -0.2915591926476175 
1.8999999999998072, -0.29425370742008305 
1.909999999999806, -0.29717849237118876 
1.919999999999805, -0.3000331012936898 
1.9299999999998039, -0.30252388585471546 
1.9399999999998028, -0.3044771904508779 
1.9499999999998017, -0.30586831373770157 
1.9599999999998006, -0.3067698334017289 
1.9699999999997995, -0.3072836718499254 
1.9799999999997984, -0.30749844893535194 
1.9899999999997973, -0.3074737745654884 
1.9999999999997962, -0.3072387949294086 
2.0099999999998173, -0.3067955003796644 
2.0199999999998384, -0.306123729225812 
2.0299999999998595, -0.30518965156836714 
2.0399999999998806, -0.30396200672645585 
2.0499999999999017, -0.3024380942446146 
2.059999999999923, -0.300671190366783 
2.069999999999944, -0.298778294681899 
2.079999999999965, -0.29691188330556695 
2.089999999999986, -0.2952089284043189 
2.100000000000007, -0.2937519389355448 
2.1100000000000283, -0.29256169981702884 
2.1200000000000494, -0.2916132974072378 
2.1300000000000705, -0.2908580158997357 
2.1400000000000916, -0.29024107366082136 
2.1500000000001127, -0.2897129399101206 
2.160000000000134, -0.2892349003261356 
2.170000000000155, -0.28878018971707486 
2.180000000000176, -0.2883323804835757 
2.190000000000197, -0.2878827485298757 
2.2000000000002182, -0.28742774786561337 
2.2100000000002393, -0.2869666713318567 
2.2200000000002604, -0.2864979777428974 
2.2300000000002815, -0.286009465262707 
2.2400000000003026, -0.28544941018214753 
2.2500000000003237, -0.2846481048345764 
2.260000000000345, -0.2831356434328217 
2.270000000000366, -0.2798391753922827 
2.280000000000387, -0.27296568884835665 
2.290000000000408, -0.2609791227733028 
2.3000000000004293, -0.24474589312832898 
2.3100000000004504, -0.22784648222965295 
2.3200000000004715, -0.21365337859246272 
2.3300000000004926, -0.20328064530973694 
2.3400000000005137, -0.19621631436569648 
2.3500000000005348, -0.19152160797709356 
2.360000000000556, -0.1884007617758343 
2.370000000000577, -0.1863062346366448 
2.380000000000598, -0.1848910845876402 
2.390000000000619, -0.18394464385778544 
2.4000000000006403, -0.18334530703626062 
2.4100000000006614, -0.18303189287694757 
2.4200000000006825, -0.18298917495063188 
2.4300000000007036, -0.18324429874687595 
2.4400000000007247, -0.1838731883063871 
2.450000000000746, -0.18501853651082018 
2.460000000000767, -0.18692323002487807 
2.470000000000788, -0.1899831839303474 
2.480000000000809, -0.19481319165926203 
2.49000000000083, -0.20227254482915344 
2.5000000000008513, -0.21326686998618957 
2.5100000000008724, -0.22798444835318418 
2.5200000000008935, -0.244641261372619 
2.5300000000009146, -0.25946336410473336 
2.5400000000009357, -0.26944217176892304 
2.550000000000957, -0.27459744526452956 
2.560000000000978, -0.2767439324114928 
2.570000000000999, -0.2775014948911162 
2.58000000000102, -0.27773688478558173 
2.5900000000010412, -0.2778057473110571 
2.6000000000010624, -0.27783007502960144 
2.6100000000010835, -0.2778446211556979 
2.6200000000011046, -0.27785647079563563 
2.6300000000011257, -0.27786632448178195 
2.6400000000011468, -0.2778757752375835 
2.650000000001168, -0.277890367590242 
2.660000000001189, -0.2779219854559912 
2.67000000000121, -0.2779915188700783 
2.680000000001231, -0.2781313936218592 
2.6900000000012523, -0.2783866404443531 
2.7000000000012734, -0.2788127504196289 
2.7100000000012945, -0.2794685684631939 
2.7200000000013156, -0.2804025250272092 
2.7300000000013367, -0.2816312783601875 
2.740000000001358, -0.28311468040795484 
2.750000000001379, -0.2847417719463108 
2.7600000000014, -0.2863486662925223 
2.770000000001421, -0.2877709611905003 
2.780000000001442, -0.2888987357290996 
2.7900000000014633, -0.28969630686924025 
2.8000000000014844, -0.290183224702685 
2.8100000000015055, -0.2904013589367125 
2.8200000000015266, -0.29038912621392143 
2.8300000000015477, -0.2901676221907971 
2.840000000001569, -0.28973457734147456 
2.85000000000159, -0.2890618758063857 
2.860000000001611, -0.28809600878558006 
2.870000000001632, -0.2867657356414716 
2.8800000000016532, -0.285005340564015 
2.8900000000016743, -0.2827984505722799 
2.9000000000016954, -0.2802268962972977 
2.9100000000017165, -0.2774820364022374 
2.9200000000017377, -0.2748077705957085 
2.9300000000017588, -0.27240835019496246 
2.94000000000178, -0.27039021438951727 
2.950000000001801, -0.2687643861917578 
2.960000000001822, -0.2674823052115242 
2.970000000001843, -0.2664719244465178 
2.9800000000018643, -0.265661001550842 
2.9900000000018854, -0.26498858322615476 
3.0000000000019065, -0.2644089484347523 
3.0100000000019276, -0.263891411301121 
3.0200000000019487, -0.2634183539101996 
3.03000000000197, -0.2629831679104762 
3.040000000001991, -0.2625891195716222 
3.050000000002012, -0.262249375464254 
3.060000000002033, -0.26198715459200544 
3.070000000002054, -0.26183171838783914 
3.0800000000020753, -0.2617966228652798 
3.0900000000020964, -0.26180321419012753 
3.1000000000021175, -0.26147156012475037 
3.1100000000021386, -0.25971271382197175 
3.1200000000021597, -0.25442797602250167 
3.130000000002181, -0.2435063450250028 
3.140000000002202, -0.22752498612781724 
3.150000000002223, -0.21042062676658596 
3.160000000002244, -0.19602966029188967 
3.1700000000022652, -0.18560903225085396 
3.1800000000022863, -0.17859843629997757 
3.1900000000023074, -0.17399480484177304 
3.2000000000023285, -0.1709676378787371 
3.2100000000023496, -0.1689567280327089 
3.2200000000023707, -0.16761296691974295 
3.230000000002392, -0.16672757305604108 
3.240000000002413, -0.16618219929012273 
3.250000000002434, -0.1659195188149769 
3.260000000002455, -0.16592891965095463 
3.2700000000024763, -0.16624370789868229 
3.2800000000024974, -0.16694899753703601 
3.2900000000025185, -0.16820223351055777 
3.3000000000025396, -0.1702706772582435 
3.3100000000025607, -0.17358963049680398 
3.3200000000025818, -0.17883071727170108 
3.330000000002603, -0.18690837933149915 
3.340000000002624, -0.19869441934085708 
3.350000000002645, -0.21407583157607304 
3.360000000002666, -0.23068396726083615 
3.3700000000026873, -0.24447311633606125 
3.3800000000027084, -0.25298322693995884 
3.3900000000027295, -0.2569361915535834 
3.4000000000027506, -0.25834300290946444 
3.4100000000027717, -0.25869587421890605 
3.420000000002793, -0.258710688684141 
3.430000000002814, -0.2586528749430853 
3.440000000002835, -0.2586004695753803 
3.450000000002856, -0.25856808415745836 
3.460000000002877, -0.25855374551602894 
3.4700000000028983, -0.25855447527821973 
3.4800000000029194, -0.2585712786528981 
3.4900000000029405, -0.2586113940638647 
3.5000000000029616, -0.2586904596325518 
3.5100000000029827, -0.2588351186498042 
3.520000000003004, -0.25908544295687447 
3.530000000003025, -0.2594957815352258 
3.540000000003046, -0.260132132086952 
3.550000000003067, -0.26106357206577135 
3.5600000000030882, -0.262344494316984 
3.5700000000031094, -0.26398555253331457 
3.5800000000031305, -0.26592001106551744 
3.5900000000031516, -0.2679894629052351 
3.6000000000031727, -0.2699780598099343 
3.6100000000031938, -0.27168956438554603 
3.620000000003215, -0.2730135567026809 
3.630000000003236, -0.27393536416277486 
3.640000000003257, -0.2745002718070976 
3.650000000003278, -0.2747706648552426 
3.6600000000032993, -0.274798615996971 
3.6700000000033204, -0.2746144090708892 
3.6800000000033415, -0.2742239039473671 
3.6900000000033626, -0.27360980517008426 
3.7000000000033837, -0.2727364620133334 
3.710000000003405, -0.2715617853293123 
3.720000000003426, -0.2700607659455826 
3.730000000003447, -0.26825811249885256 
3.740000000003468, -0.2662516707890437 
3.750000000003489, -0.26420016913202093 
3.7600000000035103, -0.2622719723831679 
3.7700000000035314, -0.26058900864617696 
3.7800000000035525, -0.2592023321399051 
3.7900000000035736, -0.2581022761265574 
3.8000000000035947, -0.25724301478209854 
3.810000000003616, -0.2565648864878058 
3.820000000003637, -0.25600932368546453 
3.830000000003658, -0.25552704672002435 
3.840000000003679, -0.2550810617937045 
3.8500000000037002, -0.2546459205155963 
3.8600000000037213, -0.2542047999391668 
3.8700000000037424, -0.25374568567102895 
3.8800000000037635, -0.25325698238631167 
3.8900000000037847, -0.25272124458726436 
3.9000000000038058, -0.25210283848946957 
3.910000000003827, -0.25131938012434174 
3.920000000003848, -0.2501752360314451 
3.930000000003869, -0.24822293514112523 
3.94000000000389, -0.2445524809390412 
3.9500000000039113, -0.23773633708071867 
3.9600000000039324, -0.22657615625339594 
3.9700000000039535, -0.21175627080446055 
3.9800000000039746, -0.19623491807014976 
3.9900000000039957, -0.18299267725975396 
4.000000000004016, -0.17315641282313776 
4.010000000003993, -0.16636205038869425 
4.02000000000397, -0.16178846840379607 
4.030000000003946, -0.1587071936357198 
4.040000000003923, -0.15660550060959288 
4.0500000000039, -0.1551539706045521 
4.0600000000038765, -0.15415063358593944 
4.070000000003853, -0.15347806911690376 
4.08000000000383, -0.15307699739772576 
4.090000000003807, -0.15293314456243431 
4.100000000003783, -0.1530748545453575 
4.11000000000376, -0.15358124079171354 
4.120000000003737, -0.15460338081514396 
4.130000000003713, -0.15640360774251982 
4.14000000000369, -0.1594172212095399 
4.150000000003667, -0.16432295911963116 
4.1600000000036434, -0.17202870358993608 
4.17000000000362, -0.1832618573584557 
4.180000000003597, -0.19727672847324132 
4.1900000000035735, -0.21033611238543154 
4.20000000000355, -0.21743559285542843 
4.210000000003527, -0.21742335615888758 
4.220000000003504, -0.21354919580306286 
4.23000000000348, -0.20915737351494595 
4.240000000003457, -0.2056683280641325 
4.250000000003434, -0.20324422024714597 
4.26000000000341, -0.20164967171240017 
4.270000000003387, -0.20062603613414054 
4.280000000003364, -0.199983357521211 
4.2900000000033405, -0.19960012825418647 
4.300000000003317, -0.1994055455161123 
4.310000000003294, -0.1993646368433944 
4.320000000003271, -0.19946955307311023 
4.330000000003247, -0.19973641211685916 
4.340000000003224, -0.20020676105878127 
4.350000000003201, -0.20095302043626231 
4.360000000003177, -0.2020871738953347 
4.370000000003154, -0.2037704700482411 
4.380000000003131, -0.20621681461779362 
4.390000000003107, -0.20967044210684818 
4.400000000003084, -0.21432132350656702 
4.410000000003061, -0.22012958401668717 
4.4200000000030375, -0.22663271929490927 
4.430000000003014, -0.23297872240622736 
4.440000000002991, -0.23832805001343654 
4.450000000002968, -0.24228659932279228 
4.460000000002944, -0.24494438700230958 
4.470000000002921, -0.2466179184192013 
4.480000000002898, -0.24762387493916557 
4.490000000002874, -0.24819421051532223 
4.500000000002851, -0.24847630849492694 
4.510000000002828, -0.2485568562908957 
4.520000000002804, -0.24848405771182422 
4.530000000002781, -0.24828367422839043 
4.540000000002758, -0.2479709052242507 
4.5500000000027345, -0.24756058383277452 
4.560000000002711, -0.24707636533956134 
4.570000000002688, -0.24655693690086972 
4.580000000002665, -0.24605575450874997 
4.590000000002641, -0.2456327763375025 
4.600000000002618, -0.24534128422152332 
4.610000000002595, -0.24521536978625322 
4.620000000002571, -0.24526162237229393 
4.630000000002548, -0.24545588092253084 
4.640000000002525, -0.24574627368316407 
4.6500000000025015, -0.24606434583473208 
4.660000000002478, -0.24634219256117768 
4.670000000002455, -0.2465277255971902 
4.6800000000024315, -0.24659033849548884 
4.690000000002408, -0.2465160803953038 
4.700000000002385, -0.24629718456799016 
4.710000000002362, -0.24592069947273706 
4.720000000002338, -0.24535763915835207 
4.730000000002315, -0.244551466686525 
4.740000000002292, -0.2434046687849376 
4.750000000002268, -0.24176621944841448 
4.760000000002245, -0.23943404832804874 
4.770000000002222, -0.23620452834058123 
4.7800000000021985, -0.23199965790874227 
4.790000000002175, -0.2270253567676333 
4.800000000002152, -0.22179249700436876 
4.810000000002129, -0.21689810283156738 
4.820000000002105, -0.2127475852177656 
4.830000000002082, -0.20946061599104784 
4.840000000002059, -0.20695674166286362 
4.850000000002035, -0.20507699822786263 
