t, s[1].omega / s[0].omega 
0, -0.2399785954484773 
0.009999999999999995, -0.23805484285083015 
0.019999999999999934, -0.23653650531464915 
0.029999999999999874, -0.23535776371947495 
0.04000000000000012, -0.23443840019615156 
0.050000000000000405, -0.23370348952704706 
0.06000000000000069, -0.23309193069992729 
0.07000000000000098, -0.2325585124711596 
0.08000000000000126, -0.23207253401823932 
0.09000000000000155, -0.23161490792695125 
0.10000000000000184, -0.23117498171637502 
0.11000000000000212, -0.23074747810590326 
0.12000000000000241, -0.23032865992995388 
0.130000000000002, -0.2299083090711342 
0.1400000000000009, -0.22944818521645596 
0.1499999999999998, -0.22882404406309625 
0.1599999999999987, -0.22768542001088155 
0.1699999999999976, -0.22519040130600998 
0.1799999999999965, -0.2197707276151204 
0.1899999999999954, -0.20966722793231268 
0.1999999999999943, -0.19488195310408918 
0.2099999999999932, -0.17839747229610012 
0.2199999999999921, -0.1638999386590221 
0.229999999999991, -0.15305938361346755 
0.2399999999999899, -0.14562208024205545 
0.2499999999999888, -0.14067812972686883 
0.2599999999999877, -0.1373934526564321 
0.2699999999999866, -0.13518258061892935 
0.2799999999999855, -0.13367342834652543 
0.2899999999999844, -0.13264030432098559 
0.2999999999999833, -0.13195269678948401 
0.3099999999999822, -0.13154397638320697 
0.3199999999999811, -0.13139561656137272 
0.32999999999998, -0.13153345693119914 
0.3399999999999789, -0.13203529587692944 
0.3499999999999778, -0.13305214530866774 
0.35999999999997667, -0.13484822753736464 
0.36999999999997557, -0.1378637808917788 
0.37999999999997447, -0.1427841905773271 
0.38999999999997337, -0.15050808853891637 
0.39999999999997227, -0.1616633259821321 
0.40999999999997117, -0.17515929464816513 
0.41999999999997006, -0.18671348269406843 
0.42999999999996896, -0.1913090748786907 
0.43999999999996786, -0.18871720747051673 
0.44999999999996676, -0.18298550831942179 
0.45999999999996566, -0.1774976462897108 
0.46999999999996456, -0.1733959017736194 
0.47999999999996346, -0.17061570220141722 
0.48999999999996235, -0.16879895669230854 
0.49999999999996125, -0.1676284726337739 
0.5099999999999602, -0.16688709865618562 
0.519999999999959, -0.16644103765977353 
0.529999999999958, -0.16621505657804858 
0.5399999999999568, -0.16617499826478657 
0.5499999999999557, -0.16631867387785548 
0.5599999999999546, -0.16667381014875632 
0.5699999999999535, -0.16730222638230183 
0.5799999999999524, -0.16831026076149072 
0.5899999999999513, -0.1698656268468739 
0.5999999999999502, -0.17221849286676955 
0.6099999999999491, -0.17571460713734705 
0.619999999999948, -0.18076155120333479 
0.6299999999999469, -0.18766688918096527 
0.6399999999999458, -0.19628365319213542 
0.6499999999999447, -0.2056600127708704 
0.6599999999999436, -0.21426540973285144 
0.6699999999999425, -0.22090987084960179 
0.6799999999999414, -0.2253670689602862 
0.6899999999999403, -0.228098906110413 
0.6999999999999392, -0.22970012016037006 
0.7099999999999381, -0.23062047114018047 
0.719999999999937, -0.231137253348736 
0.7299999999999359, -0.23140737648455428 
0.7399999999999348, -0.23151714711439347 
0.7499999999999337, -0.23151430635592174 
0.7599999999999326, -0.23142685313614347 
0.7699999999999315, -0.23127479196145204 
0.7799999999999304, -0.23107864988118937 
0.7899999999999293, -0.2308661033913105 
0.7999999999999282, -0.23067598492240307 
0.8099999999999271, -0.23055799479293002 
0.819999999999926, -0.23056729487098776 
0.8299999999999249, -0.23075493621638515 
0.8399999999999238, -0.23115571834916207 
0.8499999999999227, -0.2317746649428277 
0.8599999999999216, -0.23257511016694088 
0.8699999999999205, -0.2334764042969586 
0.8799999999999194, -0.23437013757957542 
0.8899999999999183, -0.23515204003596174 
0.8999999999999172, -0.23575101232616857 
0.9099999999999161, -0.23613783981812966 
0.919999999999915, -0.23631381811456822 
0.9299999999999139, -0.23629188461402478 
0.9399999999999128, -0.23608053368358747 
0.9499999999999117, -0.2356731549642587 
0.9599999999999106, -0.2350412945212848 
0.9699999999999095, -0.2341309144987397 
0.9799999999999084, -0.2328645776994628 
0.9899999999999073, -0.23115797308280994 
0.9999999999999062, -0.22896074071029088 
1.0099999999999052, -0.22631620679666614 
1.019999999999904, -0.22339918472731451 
1.029999999999903, -0.2204784216204146 
1.039999999999902, -0.21781182329280427 
1.0499999999999008, -0.215556077772302 
1.0599999999998997, -0.21374924843220122 
1.0699999999998986, -0.2123477245400022 
1.0799999999998975, -0.211271818039116 
1.0899999999998964, -0.210436630617225 
1.0999999999998953, -0.20976737071141688 
1.1099999999998942, -0.20920493817595961 
1.119999999999893, -0.2087062511862458 
1.129999999999892, -0.20824180688959296 
1.1399999999998909, -0.20779197416434422 
1.1499999999998898, -0.20734279915260473 
1.1599999999998887, -0.20688102815645398 
1.1699999999998876, -0.20638616386659825 
1.1799999999998865, -0.20581355707340476 
1.1899999999998854, -0.20505440923679422 
1.1999999999998843, -0.20384438784341435 
1.2099999999998832, -0.20158703996188138 
1.219999999999882, -0.19714730749831583 
1.229999999999881, -0.18902523202384372 
1.2399999999998799, -0.17659336835149042 
1.2499999999998788, -0.1616214958714421 
1.2599999999998777, -0.14741176355370667 
1.2699999999998766, -0.13617841329296831 
1.2799999999998755, -0.1282165838183404 
1.2899999999998744, -0.12283887517021597 
1.2999999999998733, -0.11924065331611307 
1.3099999999998722, -0.1168074233642993 
1.319999999999871, -0.1151328909662908 
1.32999999999987, -0.11396424229120868 
1.3399999999998689, -0.11315051238723983 
1.3499999999998678, -0.11260819600215184 
1.3599999999998666, -0.11230205417983571 
1.3699999999998655, -0.11223759595486879 
1.3799999999998644, -0.11246363526924368 
1.3899999999998633, -0.11308567198928163 
1.3999999999998622, -0.11429253061788044 
1.4099999999998611, -0.11639630322261407 
1.41999999999986, -0.11986521611401708 
1.429999999999859, -0.1252472347126402 
1.4399999999998578, -0.13267167432945165 
1.4499999999998567, -0.1405062118541877 
1.4599999999998556, -0.14421152716364993 
1.4699999999998545, -0.13945578081255383 
1.4799999999998534, -0.12796921236597067 
1.4899999999998523, -0.11556514734129793 
1.4999999999998512, -0.10583163619314737 
1.5099999999998501, -0.09920349705304411 
1.519999999999849, -0.09491336656047192 
1.529999999999848, -0.09215766591180821 
1.5399999999998468, -0.09037465621611776 
1.5499999999998457, -0.08921813518934732 
1.5599999999998446, -0.0884870160549876 
1.5699999999998435, -0.08807291136967688 
1.5799999999998424, -0.08793002409691127 
1.5899999999998413, -0.08806207343691093 
1.5999999999998402, -0.0885227373550857 
1.6099999999998391, -0.08942972440972728 
1.619999999999838, -0.09099647052940868 
1.629999999999837, -0.09358855167356957 
1.6399999999998358, -0.09780762134760582 
1.6499999999998347, -0.10456639727601773 
1.6599999999998336, -0.11496851083975704 
1.6699999999998325, -0.12950656083199136 
1.6799999999998314, -0.14631488802299236 
1.6899999999998303, -0.160633706511989 
1.6999999999998292, -0.16862280708690333 
1.709999999999828, -0.17089901034644234 
1.719999999999827, -0.17034960023914497 
1.729999999999826, -0.16906932434607871 
1.7399999999998248, -0.1679011307921055 
1.7499999999998237, -0.16703435836776648 
1.7599999999998226, -0.16644250434505392 
1.7699999999998215, -0.16605965251144655 
1.7799999999998204, -0.16583174893764807 
1.7899999999998193, -0.16572581707800776 
1.7999999999998182, -0.1657288671447425 
1.809999999999817, -0.16584641512319817 
1.819999999999816, -0.16610328720908082 
1.8299999999998149, -0.16654733791010917 
1.8399999999998138, -0.1672561552268051 
1.8499999999998127, -0.16834629012978003 
1.8599999999998116, -0.16998267850307214 
1.8699999999998105, -0.17238010131208575 
1.8799999999998094, -0.17577525636852814 
1.8899999999998083, -0.18033156435666248 
1.8999999999998072, -0.1859563677863253 
1.909999999999806, -0.1921308808736325 
1.919999999999805, -0.19800476126126793 
1.9299999999998039, -0.20282699076073904 
1.9399999999998028, -0.20631442499004846 
1.9499999999998017, -0.20861432146277115 
1.9599999999998006, -0.2100414469046945 
1.9699999999997995, -0.21088556345280313 
1.9799999999997984, -0.21135132489852554 
1.9899999999997973, -0.21156651410261323 
1.9999999999997962, -0.21160599323451507 
2.0099999999998173, -0.21151227406025494 
2.0199999999998384, -0.21131033983318037 
2.0299999999998595, -0.21101884699650758 
2.0399999999998806, -0.21065950381728352 
2.0499999999999017, -0.21026445256745302 
2.059999999999923, -0.20987951145788766 
2.069999999999944, -0.20956106235120822 
2.079999999999965, -0.2093670113295671 
2.089999999999986, -0.2093451555594498 
2.100000000000007, -0.20952216569787305 
2.1100000000000283, -0.20989436267462586 
2.1200000000000494, -0.21042201058538706 
2.1300000000000705, -0.21103224285888542 
2.1400000000000916, -0.21163516256167753 
2.1500000000001127, -0.21214844016430873 
2.160000000000134, -0.21251658315368832 
2.170000000000155, -0.2127145846995409 
2.180000000000176, -0.21273799722404768 
2.190000000000197, -0.2125883199424456 
2.2000000000002182, -0.21226014903749366 
2.2100000000002393, -0.21173153189524987 
2.2200000000002604, -0.2109567528129598 
2.2300000000002815, -0.20986235194908284 
2.2400000000003026, -0.20835214637334515 
2.2500000000003237, -0.20633327232512536 
2.260000000000345, -0.20377301375375567 
2.270000000000366, -0.2007681485831707 
2.280000000000387, -0.19756464270597413 
2.290000000000408, -0.19447791153283125 
2.3000000000004293, -0.19176276134883477 
2.3100000000004504, -0.1895380237223979 
2.3200000000004715, -0.18779951754207874 
2.3300000000004926, -0.18647412019651627 
2.3400000000005137, -0.18546689409030176 
2.3500000000005348, -0.1846873721322483 
2.360000000000556, -0.1840603170624007 
2.370000000000577, -0.18352823534003274 
2.380000000000598, -0.18304983217242413 
2.390000000000619, -0.1825964211472129 
2.4000000000006403, -0.18214733744330555 
2.4100000000006614, -0.18168456378087913 
2.4200000000006825, -0.18118536922263084 
2.4300000000007036, -0.18060913015709662 
2.4400000000007247, -0.17986928135596314 
2.450000000000746, -0.17877199342719233 
2.460000000000767, -0.17689530178043683 
2.470000000000788, -0.1734188374904509 
2.480000000000809, -0.16711536978623 
2.49000000000083, -0.15704496475558877 
2.5000000000008513, -0.14395127470775523 
2.5100000000008724, -0.13045980772856433 
2.5200000000008935, -0.11907945197252456 
2.5300000000009146, -0.11068288330466365 
2.5400000000009357, -0.10489812648826499 
2.550000000000957, -0.10099950758481047 
2.560000000000978, -0.09835907533065097 
2.570000000000999, -0.0965389873257324 
2.58000000000102, -0.09525869796641578 
2.5900000000010412, -0.0943459012327746 
2.6000000000010624, -0.09369975258289323 
2.6100000000010835, -0.09326834090990908 
2.6200000000011046, -0.09303730742006423 
2.6300000000011257, -0.09302719429069836 
2.6400000000011468, -0.09329859362292567 
2.650000000001168, -0.09396463303639056 
2.660000000001189, -0.09520644962733789 
2.67000000000121, -0.09726774911052824 
2.680000000001231, -0.10033822127685457 
2.6900000000012523, -0.10408700645440316 
2.7000000000012734, -0.10660240294663463 
2.7100000000012945, -0.1038048613572006 
2.7200000000013156, -0.09270650987547527 
2.7300000000013367, -0.07639804068767471 
2.740000000001358, -0.06107622011927362 
2.750000000001379, -0.04982306364403173 
2.7600000000014, -0.042435811043763004 
2.770000000001421, -0.037745133269996754 
2.780000000001442, -0.03475150107119036 
2.7900000000014633, -0.03280552989068154 
2.8000000000014844, -0.031521713395568744 
2.8100000000015055, -0.030680495676457215 
2.8200000000015266, -0.03016439210739815 
2.8300000000015477, -0.029923383141003318 
2.840000000001569, -0.02996052876981236 
2.85000000000159, -0.03033302822444326 
2.860000000001611, -0.031168577809024565 
2.870000000001632, -0.03270013690225177 
2.8800000000016532, -0.03531917485025798 
2.8900000000016743, -0.03961531905596438 
2.9000000000016954, -0.046234874829369374 
2.9100000000017165, -0.055054958843967425 
2.9200000000017377, -0.0632227598775864 
2.9300000000017588, -0.06466233674740367 
2.94000000000178, -0.05631530765886161 
2.950000000001801, -0.04311213216478435 
2.960000000001822, -0.03127833074396447 
2.970000000001843, -0.022912886285803437 
2.9800000000018643, -0.0175083692944809 
2.9900000000018854, -0.01408390635037523 
3.0000000000019065, -0.011894379669247657 
3.0100000000019276, -0.010476608826549858 
3.0200000000019487, -0.009563066475622209 
3.03000000000197, -0.009008384655035511 
3.040000000001991, -0.008745927694763404 
3.050000000002012, -0.008767764702303693 
3.060000000002033, -0.009122321573920221 
3.070000000002054, -0.009928906019789777 
3.0800000000020753, -0.01141325366182406 
3.0900000000020964, -0.013970424927695462 
3.1000000000021175, -0.018245766223332526 
3.1100000000021386, -0.025130116559052184 
3.1200000000021597, -0.03524595804983519 
3.130000000002181, -0.04712065146643773 
3.140000000002202, -0.05513187954711889 
3.150000000002223, -0.05345467374018263 
3.160000000002244, -0.04402874347090925 
3.1700000000022652, -0.03341159699988258 
3.1800000000022863, -0.025201129422996175 
3.1900000000023074, -0.0197004550254521 
3.2000000000023285, -0.01617239119741405 
3.2100000000023496, -0.013914007251800673 
3.2200000000023707, -0.012456597757530368 
3.230000000002392, -0.011521355590110154 
3.240000000002413, -0.010953832101169236 
3.250000000002434, -0.01068043923835297 
3.260000000002455, -0.010686869855457033 
3.2700000000024763, -0.011013879862953045 
3.2800000000024974, -0.011769513946947637 
3.2900000000025185, -0.013161904793941378 
3.3000000000025396, -0.015561207153849852 
3.3100000000025607, -0.01959413140085674 
3.3200000000025818, -0.02621796403147859 
3.330000000002603, -0.03648385077402336 
3.340000000002624, -0.05020728678085955 
3.350000000002645, -0.06341746120034555 
3.360000000002666, -0.06927787901191163 
3.3700000000026873, -0.06591911000970072 
3.3800000000027084, -0.05833123318139387 
3.3900000000027295, -0.05120926240684089 
3.4000000000027506, -0.04602402297456698 
3.4100000000027717, -0.042573407733950755 
3.420000000002793, -0.04033216543129871 
3.430000000002814, -0.03887984664923886 
3.440000000002835, -0.03794661455271594 
3.450000000002856, -0.0373757534076345 
3.460000000002877, -0.03708731442680578 
3.4700000000028983, -0.03705690581711351 
3.4800000000029194, -0.03730882087288763 
3.4900000000029405, -0.037922637507061964 
3.5000000000029616, -0.03905581159712004 
3.5100000000029827, -0.04098914286614851 
3.520000000003004, -0.04420433568298922 
3.530000000003025, -0.04948780107281066 
3.540000000003046, -0.05796362987383223 
3.550000000003067, -0.07066714165710535 
3.5600000000030882, -0.08696482795746427 
3.5700000000031094, -0.10264370711010491 
3.5800000000031305, -0.11219087022529765 
3.5900000000031516, -0.11459023763580863 
3.6000000000031727, -0.11307508953444487 
3.6100000000031938, -0.11063657630535442 
3.620000000003215, -0.10853084551251893 
3.630000000003236, -0.10699797074283353 
3.640000000003257, -0.10595212785462331 
3.650000000003278, -0.10526315444364669 
3.6600000000032993, -0.10483124333333667 
3.6700000000033204, -0.10459538137348659 
3.6800000000033415, -0.1045277835200091 
3.6900000000033626, -0.10462932527490716 
3.7000000000033837, -0.10492960082074025 
3.710000000003405, -0.10549275766723125 
3.720000000003426, -0.10643041090480676 
3.730000000003447, -0.10792346797378896 
3.740000000003468, -0.11025328671354913 
3.750000000003489, -0.1138328753784228 
3.7600000000035103, -0.11919551472538344 
3.7700000000035314, -0.12682679277195497 
3.7800000000035525, -0.1366930314295296 
3.7900000000035736, -0.14764862574994175 
3.8000000000035947, -0.1576256543079889 
3.810000000003616, -0.16500950719081767 
3.820000000003637, -0.1696138928164677 
3.830000000003658, -0.1721879113126275 
3.840000000003679, -0.17355689297101295 
3.8500000000037002, -0.1742763159009389 
3.8600000000037213, -0.17465310811756135 
3.8700000000037424, -0.17484454598259241 
3.8800000000037635, -0.17493087416421393 
3.8900000000037847, -0.1749555375130265 
3.9000000000038058, -0.17494605524617168 
3.910000000003827, -0.17492558840444244 
3.920000000003848, -0.1749205047947054 
3.930000000003869, -0.17496607493525387 
3.94000000000389, -0.17511054423000766 
3.9500000000039113, -0.1754168725211183 
3.9600000000039324, -0.17596105014224822 
3.9700000000039535, -0.17682508094253885 
3.9800000000039746, -0.1780805971279132 
3.9900000000039957, -0.17975807069464975 
4.000000000004016, -0.1818047947283497 
4.010000000003993, -0.1840575091214534 
4.02000000000397, -0.18627095180157982 
4.030000000003946, -0.1882077024252274 
4.040000000003923, -0.18972633260565003 
4.0500000000039, -0.19080207837670518 
4.0600000000038765, -0.19148624941922918 
4.070000000003853, -0.19185397316795827 
4.08000000000383, -0.19197121734861539 
4.090000000003807, -0.19188253395170962 
4.100000000003783, -0.19161059221634297 
4.11000000000376, -0.1911610176425775 
4.120000000003737, -0.1905306633629487 
4.130000000003713, -0.18971982057811027 
4.14000000000369, -0.18874755434818252 
4.150000000003667, -0.18766436299147943 
4.1600000000036434, -0.18655222976095465 
4.17000000000362, -0.18550706211778895 
4.180000000003597, -0.1846120853400598 
4.1900000000035735, -0.1839179919066061 
4.20000000000355, -0.18343756081907758 
4.210000000003527, -0.18315069396259792 
4.220000000003504, -0.18301326073588509 
4.23000000000348, -0.18296731385228154 
4.240000000003457, -0.18295247958613675 
4.250000000003434, -0.18291638504761523 
4.26000000000341, -0.18282029800219565 
4.270000000003387, -0.1826380609046222 
4.280000000003364, -0.18234973411074956 
4.2900000000033405, -0.18193252968624005 
4.300000000003317, -0.18135026039240854 
4.310000000003294, -0.1805406479639679 
4.320000000003271, -0.17939949662408583 
4.330000000003247, -0.17776455460733634 
4.340000000003224, -0.1754144993845402 
4.350000000003201, -0.1721206691691143 
4.360000000003177, -0.1677911677743893 
4.370000000003154, -0.16265557187768898 
4.380000000003131, -0.1572862076133669 
4.390000000003107, -0.15233513655755584 
4.400000000003084, -0.14821786142270657 
4.410000000003061, -0.14502779621437886 
4.4200000000030375, -0.14265096377592262 
4.430000000003014, -0.14090400457030336 
4.440000000002991, -0.13961234397667657 
4.450000000002968, -0.13863665643671064 
4.460000000002944, -0.13787468645742046 
4.470000000002921, -0.1372551740208223 
4.480000000002898, -0.13673056776827763 
4.490000000002874, -0.1362704831130292 
4.500000000002851, -0.13585613012669503 
4.510000000002828, -0.13547494077939842 
4.520000000002804, -0.1351130081925289 
4.530000000002781, -0.13473915540671516 
4.540000000002758, -0.13426554395823578 
4.5500000000027345, -0.13345259623229638 
4.560000000002711, -0.13171386504312538 
4.570000000002688, -0.12786553821260777 
4.580000000002665, -0.12027611531835747 
4.590000000002641, -0.1082397387273912 
4.600000000002618, -0.09368294349173523 
4.610000000002595, -0.08008434502895756 
4.620000000002571, -0.06958551843598143 
4.630000000002548, -0.06231119264207363 
4.640000000002525, -0.057484574235674456 
4.6500000000025015, -0.05429383810608592 
4.660000000002478, -0.052149776877437104 
4.670000000002455, -0.05067448606671968 
4.6800000000024315, -0.04963706057156651 
4.690000000002408, -0.048900746205887156 
4.700000000002385, -0.04838942171976114 
4.710000000002362, -0.04806893125296873 
4.720000000002338, -0.04793865042898053 
4.730000000002315, -0.048030281057320115 
4.740000000002292, -0.04841104014179969 
4.750000000002268, -0.04918366794604236 
4.760000000002245, -0.05045596792899606 
4.770000000002222, -0.05219390488818136 
4.7800000000021985, -0.05376472517614637 
4.790000000002175, -0.053083318660027315 
4.800000000002152, -0.046588631986725956 
