t, s[1].omega / s[0].omega 
0, -0.8799354023443465 
0.009999999999999995, -0.87330000144432 
0.019999999999999934, -0.8666622006010885 
0.029999999999999874, -0.860497446373597 
0.04000000000000012, -0.8551669535220828 
0.050000000000000405, -0.8508820667720732 
0.06000000000000069, -0.8477002306804217 
0.07000000000000098, -0.845542088783148 
0.08000000000000126, -0.8442286697533318 
0.09000000000000155, -0.8435333808587689 
0.10000000000000184, -0.8432334751748437 
0.11000000000000212, -0.8431444935206123 
0.12000000000000241, -0.8431314439699609 
0.130000000000002, -0.8431021451553404 
0.1400000000000009, -0.8429928001414965 
0.1499999999999998, -0.8427540644836947 
0.1599999999999987, -0.8423423936091575 
0.1699999999999976, -0.84171899524852 
0.1799999999999965, -0.8408565251177251 
0.1899999999999954, -0.8397499481526355 
0.1999999999999943, -0.8384238498666964 
0.2099999999999932, -0.8369290888067915 
0.2199999999999921, -0.835329462450448 
0.229999999999991, -0.8336870151794813 
0.2399999999999899, -0.8320542552557315 
0.2499999999999888, -0.8304746653689564 
0.2599999999999877, -0.828987394372993 
0.2699999999999866, -0.8276313142390869 
0.2799999999999855, -0.8264456951692178 
0.2899999999999844, -0.8254670256719828 
0.2999999999999833, -0.8247231458076525 
0.3099999999999822, -0.82422693304412 
0.3199999999999811, -0.8239721595143441 
0.32999999999998, -0.8239334867809873 
0.3399999999999789, -0.8240709006069007 
0.3499999999999778, -0.8243369838270022 
0.35999999999997667, -0.8246844410283705 
0.36999999999997557, -0.8250717724356147 
0.37999999999997447, -0.8254662902060271 
0.38999999999997337, -0.8258445890935999 
0.39999999999997227, -0.8261906730928803 
0.40999999999997117, -0.8264919655176388 
0.41999999999997006, -0.8267344044188916 
0.42999999999996896, -0.8268993501897999 
0.43999999999996786, -0.8269650654887665 
0.44999999999996676, -0.8269127632619296 
0.45999999999996566, -0.8267336343264011 
0.46999999999996456, -0.8264326933462863 
0.47999999999996346, -0.8260285378283406 
0.48999999999996235, -0.8255516303209264 
0.49999999999996125, -0.8250442183270866 
0.5099999999999602, -0.8245628657828934 
0.519999999999959, -0.8241818503713529 
0.529999999999958, -0.8239938115167369 
0.5399999999999568, -0.8241039758413209 
0.5499999999999557, -0.8246168240657081 
0.5599999999999546, -0.8256184617259672 
0.5699999999999535, -0.8271610764683743 
0.5799999999999524, -0.8292545654359934 
0.5899999999999513, -0.8318652857718293 
0.5999999999999502, -0.83491716126114 
0.6099999999999491, -0.8382901236716667 
0.619999999999948, -0.8418163042347817 
0.6299999999999469, -0.8452833194442405 
0.6399999999999458, -0.8484590052330787 
0.6499999999999447, -0.8511415698504086 
0.6599999999999436, -0.853213448094398 
0.6699999999999425, -0.854663230193996 
0.6799999999999414, -0.8555623526866188 
0.6899999999999403, -0.8560185437928803 
0.6999999999999392, -0.856136387523547 
0.7099999999999381, -0.8559982030010321 
0.719999999999937, -0.8556624327784602 
0.7299999999999359, -0.8551732772450388 
0.7399999999999348, -0.8545793676194616 
0.7499999999999337, -0.8539642093679511 
0.7599999999999326, -0.8534928782876229 
0.7699999999999315, -0.8534735555533368 
0.7799999999999304, -0.8544136554052914 
0.7899999999999293, -0.857020244898426 
0.7999999999999282, -0.8620750609792266 
0.8099999999999271, -0.8701460437353848 
0.819999999999926, -0.8812042111942177 
0.8299999999999249, -0.8943592955371751 
0.8399999999999238, -0.9079857451054074 
0.8499999999999227, -0.9203143985683898 
0.8599999999999216, -0.9301485917089097 
0.8699999999999205, -0.9371844475694179 
0.8799999999999194, -0.9417968198048431 
0.8899999999999183, -0.9446158300362149 
0.8999999999999172, -0.9462242808853869 
0.9099999999999161, -0.9470473664958197 
0.919999999999915, -0.9473560802428412 
0.9299999999999139, -0.9473055045463648 
0.9399999999999128, -0.9469711850354472 
0.9499999999999117, -0.9463755919621517 
0.9599999999999106, -0.9455099829991109 
0.9699999999999095, -0.9443652126450519 
0.9799999999999084, -0.9429948220845981 
0.9899999999999073, -0.9416413379801698 
0.9999999999999062, -0.9409358447772643 
1.0099999999999052, -0.942078903156049 
1.019999999999904, -0.9467217456364176 
1.029999999999903, -0.9562170584759594 
1.039999999999902, -0.9704242832887771 
1.0499999999999008, -0.987151657384891 
1.0599999999998997, -1.0031856353966733 
1.0699999999998986, -1.0161191503544678 
1.0799999999998975, -1.025237033011761 
1.0899999999998964, -1.0310679861001661 
1.0999999999998953, -1.0345463878851975 
1.1099999999998942, -1.0364992811754667 
1.119999999999893, -1.0375013779703315 
1.129999999999892, -1.0379041462948537 
1.1399999999998909, -1.0379025956066608 
1.1499999999998898, -1.037590008403962 
1.1599999999998887, -1.036994766974186 
1.1699999999998876, -1.0361100474710674 
1.1799999999998865, -1.0349376933877075 
1.1899999999998854, -1.0335809831828897 
1.1999999999998843, -1.0324242496381355 
1.2099999999998832, -1.0323746976046773 
1.219999999999882, -1.0349448710413527 
1.229999999999881, -1.0417605439479773 
1.2399999999998799, -1.0534076411343767 
1.2499999999998788, -1.0685054758669228 
1.2599999999998777, -1.084183135046194 
1.2699999999998766, -1.097719485911376 
1.2799999999998755, -1.1077922135042892 
1.2899999999998744, -1.1144806314138838 
1.2999999999998733, -1.1185583183615977 
1.3099999999998722, -1.1208721394091854 
1.319999999999871, -1.122071727812451 
1.32999999999987, -1.1225779523785095 
1.3399999999998689, -1.122637380456937 
1.3499999999998678, -1.1223849300805129 
1.3599999999998666, -1.1218962228892573 
1.3699999999998655, -1.1212386359419373 
1.3799999999998644, -1.1205389658878129 
1.3899999999998633, -1.1200740440419408 
1.3999999999998622, -1.120338249148568 
1.4099999999998611, -1.121966197139923 
1.41999999999986, -1.1254320193692602 
1.429999999999859, -1.130705913930691 
1.4399999999998578, -1.1371992287592299 
1.4499999999998567, -1.1440450581819612 
1.4599999999998556, -1.150441732963135 
1.4699999999998545, -1.1558478309944387 
1.4799999999998534, -1.1600222576217671 
1.4899999999998523, -1.1629753958827107 
1.4999999999998512, -1.164878575636131 
1.5099999999998501, -1.1659663171940955 
1.519999999999849, -1.1664623648785208 
1.529999999999848, -1.1665442820519774 
1.5399999999998468, -1.1663414062532484 
1.5499999999998457, -1.1659534154152413 
1.5599999999998446, -1.1654792611182896 
1.5699999999998435, -1.1650460989958795 
1.5799999999998424, -1.1648186144075567 
1.5899999999998413, -1.1649650053883764 
1.5999999999998402, -1.1655859629026573 
1.6099999999998391, -1.1666622755297529 
1.619999999999838, -1.1680693718686552 
1.629999999999837, -1.1696387665288195 
1.6399999999998358, -1.1712132616934527 
1.6499999999998347, -1.1726716011953664 
1.6599999999998336, -1.1739300286330234 
1.6699999999998325, -1.1749349731620868 
1.6799999999998314, -1.1756559154343256 
1.6899999999998303, -1.1760817090182027 
1.6999999999998292, -1.1762193962659944 
1.709999999999828, -1.1760927466186397 
1.719999999999827, -1.1757392966545837 
1.729999999999826, -1.175207738182389 
1.7399999999998248, -1.1745581111120071 
1.7499999999998237, -1.173863679976979 
1.7599999999998226, -1.1732085632383582 
1.7699999999998215, -1.172675465810014 
1.7799999999998204, -1.172326255010016 
1.7899999999998193, -1.1721858925535649 
1.7999999999998182, -1.1722370041212196 
1.809999999999817, -1.1724251207340954 
1.819999999999816, -1.1726726537417123 
1.8299999999998149, -1.172897025196765 
1.8399999999998138, -1.173024634178079 
1.8499999999998127, -1.1729960039447085 
1.8599999999998116, -1.1727651549014442 
1.8699999999998105, -1.1722986023984934 
1.8799999999998094, -1.1715760600962946 
1.8899999999998083, -1.1705915779344451 
1.8999999999998072, -1.1693538724580579 
1.909999999999806, -1.1678867883884378 
1.919999999999805, -1.166231907305836 
1.9299999999998039, -1.1644539253518738 
1.9399999999998028, -1.1626465736667189 
1.9499999999998017, -1.1609335299567987 
1.9599999999998006, -1.1594553185143828 
1.9699999999997995, -1.158333848779148 
1.9799999999997984, -1.1576219423688547 
1.9899999999997973, -1.1572722630269716 
1.9999999999997962, -1.1571580325713073 
2.0099999999998173, -1.157129532340544 
2.0199999999998384, -1.1570579088705544 
2.0299999999998595, -1.1568422054616225 
2.0399999999998806, -1.1563912462470405 
2.0499999999999017, -1.155600444980069 
2.059999999999923, -1.1543368142326904 
2.069999999999944, -1.1524410326530474 
2.079999999999965, -1.149753122526709 
2.089999999999986, -1.1461603063194592 
2.100000000000007, -1.1416529033285152 
2.1100000000000283, -1.1363700029178045 
2.1200000000000494, -1.1306253839260554 
2.1300000000000705, -1.1249046470805566 
2.1400000000000916, -1.1198014974680497 
2.1500000000001127, -1.1158536219834387 
2.160000000000134, -1.1133190707438787 
2.170000000000155, -1.112060622473942 
2.180000000000176, -1.1116640723662756 
2.190000000000197, -1.1116813694105807 
2.2000000000002182, -1.1117907802260203 
2.2100000000002393, -1.111812589159709 
2.2200000000002604, -1.1116510377184066 
2.2300000000002815, -1.1112302350999688 
2.2400000000003026, -1.1104431983809246 
2.2500000000003237, -1.1091073914337044 
2.260000000000345, -1.1069199308775164 
2.270000000000366, -1.1034228059502058 
2.280000000000387, -1.0980221302635451 
2.290000000000408, -1.0901404359307976 
2.3000000000004293, -1.079555557110631 
2.3100000000004504, -1.066819399683298 
2.3200000000004715, -1.0534267026975388 
2.3300000000004926, -1.0414059827363276 
2.3400000000005137, -1.032424934832489 
2.3500000000005348, -1.02702919133564 
2.360000000000556, -1.0246139168416613 
2.370000000000577, -1.024043648894627 
2.380000000000598, -1.024301957326816 
2.390000000000619, -1.0247594711362507 
2.4000000000006403, -1.0251223153933222 
2.4100000000006614, -1.025284770397084 
2.4200000000006825, -1.0252121102299168 
2.4300000000007036, -1.024872138558146 
2.4400000000007247, -1.0241945821868166 
2.450000000000746, -1.0230363957941917 
2.460000000000767, -1.0211396918514144 
2.470000000000788, -1.01808262489656 
2.480000000000809, -1.0132518756597304 
2.49000000000083, -1.0059156360235664 
2.5000000000008513, -0.9955101202431772 
2.5100000000008724, -0.9821461718000275 
2.5200000000008935, -0.9670253682513195 
2.5300000000009146, -0.9522536052843666 
2.5400000000009357, -0.9399568949169073 
2.550000000000957, -0.9313286249491952 
2.560000000000978, -0.9263201684237018 
2.570000000000999, -0.9240415435875049 
2.58000000000102, -0.9233973539660927 
2.5900000000010412, -0.9235152303955116 
2.6000000000010624, -0.9238617696677002 
2.6100000000010835, -0.9241719969180513 
2.6200000000011046, -0.9243357309471104 
2.6300000000011257, -0.9243091350755407 
2.6400000000011468, -0.9240605900998855 
2.650000000001168, -0.9235385406006419 
2.660000000001189, -0.9226485265228905 
2.67000000000121, -0.9212333450000288 
2.680000000001231, -0.9190607142512566 
2.6900000000012523, -0.9158372070362686 
2.7000000000012734, -0.9112775997770235 
2.7100000000012945, -0.9052397099930408 
2.7200000000013156, -0.8978695638184988 
2.7300000000013367, -0.8896468036057126 
2.740000000001358, -0.8812726683873411 
2.750000000001379, -0.873468234236363 
2.7600000000014, -0.8667982868632554 
2.770000000001421, -0.861578233994735 
2.780000000001442, -0.8578601913896632 
2.7900000000014633, -0.8554786815453873 
2.8000000000014844, -0.8541359105586744 
2.8100000000015055, -0.8534981603895156 
2.8200000000015266, -0.8532708551995942 
2.8300000000015477, -0.8532339160486361 
2.840000000001569, -0.8532412660965415 
2.85000000000159, -0.8532009825705522 
2.860000000001611, -0.8530514910238655 
2.870000000001632, -0.8527422884170587 
2.8800000000016532, -0.8522224925595285 
2.8900000000016743, -0.8514388622940657 
2.9000000000016954, -0.8503444064081276 
2.9100000000017165, -0.8489155242617945 
2.9200000000017377, -0.8471689157727533 
2.9300000000017588, -0.8451656749304481 
2.94000000000178, -0.8429973775546165 
2.950000000001801, -0.8407631035808396 
2.960000000001822, -0.8385517796365036 
2.970000000001843, -0.8364364930909967 
2.9800000000018643, -0.834477362166729 
2.9900000000018854, -0.8327260059387178 
3.0000000000019065, -0.83122678451264 
3.0100000000019276, -0.8300135954277682 
3.0200000000019487, -0.8291038739114471 
3.03000000000197, -0.8284930629151164 
3.040000000001991, -0.8281529321803369 
3.050000000002012, -0.8280354783806431 
3.060000000002033, -0.8280813383062713 
3.070000000002054, -0.8282294511612662 
3.0800000000020753, -0.8284246784029718 
3.0900000000020964, -0.8286219906406215 
3.1000000000021175, -0.8287878842832637 
3.1100000000021386, -0.8289003445623562 
3.1200000000021597, -0.8289478186515471 
3.130000000002181, -0.8289265866030394 
3.140000000002202, -0.8288362382855796 
3.150000000002223, -0.8286748520921108 
3.160000000002244, -0.8284368544411477 
3.1700000000022652, -0.8281152700037817 
3.1800000000022863, -0.8277069218829505 
3.1900000000023074, -0.8272173010439168 
3.2000000000023285, -0.8266630712192461 
3.2100000000023496, -0.8260727338735719 
3.2200000000023707, -0.8254870011001996 
3.230000000002392, -0.8249592768188283 
3.240000000002413, -0.8245548230689863 
3.250000000002434, -0.824346435140864 
3.260000000002455, -0.824405675097512 
3.2700000000024763, -0.8247914557760971 
3.2800000000024974, -0.8255400598224935 
3.2900000000025185, -0.8266604038724166 
3.3000000000025396, -0.8281354181132002 
3.3100000000025607, -0.8299269572036015 
3.3200000000025818, -0.8319799648906937 
3.330000000002603, -0.8342224924623973 
3.340000000002624, -0.8365614197081193 
3.350000000002645, -0.8388787050541049 
3.360000000002666, -0.8410372299850085 
3.3700000000026873, -0.8429030697525686 
3.3800000000027084, -0.8443784543346068 
3.3900000000027295, -0.8454259765021659 
3.4000000000027506, -0.8460677138728407 
3.4100000000027717, -0.8463627077016455 
3.420000000002793, -0.8463802629943669 
3.430000000002814, -0.8461829667454571 
3.440000000002835, -0.8458228803310235 
3.450000000002856, -0.8453489103154066 
3.460000000002877, -0.844823795547098 
3.4700000000028983, -0.8443509321108568 
3.4800000000029194, -0.8441099975160868 
3.4900000000029405, -0.8443929653095695 
3.5000000000029616, -0.8456190812845215 
3.5100000000029827, -0.8482972349366434 
3.520000000003004, -0.8529122342161545 
3.530000000003025, -0.8597450087151982 
3.540000000003046, -0.8686818347836448 
3.550000000003067, -0.879102578788863 
3.5600000000030882, -0.8899471654969862 
3.5700000000031094, -0.9000078316608274 
3.5800000000031305, -0.9083434772742114 
3.5900000000031516, -0.9145630005581333 
3.6000000000031727, -0.9188006256636501 
3.6100000000031938, -0.9214723232059254 
3.620000000003215, -0.9230320218045931 
3.630000000003236, -0.9238439852529978 
3.640000000003257, -0.9241556964822536 
3.650000000003278, -0.9241162247678074 
3.6600000000032993, -0.9238035346195161 
3.6700000000033204, -0.9232481959443758 
3.6800000000033415, -0.9224553738299711 
3.6900000000033626, -0.9214358719613467 
3.7000000000033837, -0.9202652883125463 
3.710000000003405, -0.9191949023445736 
3.720000000003426, -0.9188186367071729 
3.730000000003447, -0.9202199327488844 
3.740000000003468, -0.9248786765647521 
3.750000000003489, -0.9340700147232412 
3.7600000000035103, -0.9478453867835087 
3.7700000000035314, -0.964403735221582 
3.7800000000035525, -0.9807671425631973 
3.7900000000035736, -0.9944050897485956 
3.8000000000035947, -1.0043067172707447 
3.810000000003616, -1.0107924214289277 
3.820000000003637, -1.0147387805780428 
3.830000000003658, -1.0170008825747447 
3.840000000003679, -1.0182030062234877 
3.8500000000037002, -1.018739435821408 
3.8600000000037213, -1.0188358525426413 
3.8700000000037424, -1.0186063460956225 
3.8800000000037635, -1.0180924625922991 
3.8900000000037847, -1.0172908564267704 
3.9000000000038058, -1.0161859017877486 
3.910000000003827, -1.0148155480325713 
3.920000000003848, -1.01341061353905 
3.930000000003869, -1.0126256255341428 
3.94000000000389, -1.0137480980060425 
3.9500000000039113, -1.0185301031671101 
3.9600000000039324, -1.0282787715462598 
3.9700000000039535, -1.0425840337850738 
3.9800000000039746, -1.058988821115621 
3.9900000000039957, -1.074305530796034 
4.000000000004016, -1.0863852788291637 
4.010000000003993, -1.0947428630115088 
4.02000000000397, -1.0999940044096799 
4.030000000003946, -1.1030615303782123 
4.040000000003923, -1.1047289235532185 
4.0500000000039, -1.1055291596674723 
4.0600000000038765, -1.1057834547032213 
4.070000000003853, -1.1056694421433437 
4.08000000000383, -1.1052784740149 
4.090000000003807, -1.10466270385434 
4.100000000003783, -1.1038893431018981 
4.11000000000376, -1.1031242380358908 
4.120000000003737, -1.102746812965543 
4.130000000003713, -1.1034229896725618 
4.14000000000369, -1.105967749931495 
4.150000000003667, -1.1109171851659072 
4.1600000000036434, -1.118090623753347 
4.17000000000362, -1.1265772183228988 
4.180000000003597, -1.1351638180978176 
4.1900000000035735, -1.1428190050989513 
4.20000000000355, -1.1489492483855852 
4.210000000003527, -1.1534119220244738 
4.220000000003504, -1.1563836698361607 
4.23000000000348, -1.1581866921658153 
4.240000000003457, -1.1591500639737249 
4.250000000003434, -1.159538447728548 
4.26000000000341, -1.1595380480431314 
4.270000000003387, -1.1592744574286686 
4.280000000003364, -1.1588444703631882 
4.2900000000033405, -1.1583543358462491 
4.300000000003317, -1.1579556517945337 
4.310000000003294, -1.1578543450168552 
4.320000000003271, -1.1582607601366577 
4.330000000003247, -1.1592913971548955 
4.340000000003224, -1.1609011519981849 
4.350000000003201, -1.1629098652203265 
4.360000000003177, -1.165089294031146 
4.370000000003154, -1.1672355319120773 
4.380000000003131, -1.1691970496930435 
4.390000000003107, -1.1708729120110908 
4.400000000003084, -1.1722026466469644 
4.410000000003061, -1.1731589134301053 
4.4200000000030375, -1.173743945237096 
4.430000000003014, -1.1739856731332894 
4.440000000002991, -1.1739306619729635 
4.450000000002968, -1.1736359319810974 
4.460000000002944, -1.1731646098365547 
4.470000000002921, -1.1725878291001774 
4.480000000002898, -1.1719890211127058 
4.490000000002874, -1.1714613087551915 
4.500000000002851, -1.1710910633522431 
4.510000000002828, -1.1709336397373915 
4.520000000002804, -1.1709976421138475 
4.530000000002781, -1.1712465454443264 
4.540000000002758, -1.1716124234625043 
4.5500000000027345, -1.1720136433618245 
4.560000000002711, -1.1723711220327435 
4.570000000002688, -1.1726187303765094 
4.580000000002665, -1.1727065018747898 
4.590000000002641, -1.1725995677256928 
4.600000000002618, -1.1722763416167683 
4.610000000002595, -1.171727197753269 
4.620000000002571, -1.1709535119210304 
4.630000000002548, -1.1699674245405345 
4.640000000002525, -1.1687932772053033 
4.6500000000025015, -1.1674711083276912 
4.660000000002478, -1.1660611375895327 
4.670000000002455, -1.1646464887632175 
4.6800000000024315, -1.1633300271343194 
4.690000000002408, -1.1622203894065937 
4.700000000002385, -1.1614038701135254 
4.710000000002362, -1.160909073676876 
4.720000000002338, -1.1606879617470702 
4.730000000002315, -1.160633740861177 
4.740000000002292, -1.160622567388414 
4.750000000002268, -1.160544820282178 
4.760000000002245, -1.160309577373326 
4.770000000002222, -1.159831612129518 
4.7800000000021985, -1.1590170968652154 
4.790000000002175, -1.1577593402487343 
4.800000000002152, -1.1559499970095863 
4.810000000002129, -1.1535043977943271 
4.820000000002105, -1.1503918624430653 
4.830000000002082, -1.1466600330684398 
4.840000000002059, -1.1424503317893673 
4.850000000002035, -1.1380085623573066 
4.860000000002012, -1.1336848731461588 
4.870000000001989, -1.1298935621169508 
4.880000000001965, -1.1269999333020564 
4.890000000001942, -1.1251643495231876 
4.900000000001919, -1.1242647222151714 
4.9100000000018955, -1.1239849169200258 
4.920000000001872, -1.1239884684718435 
4.930000000001849, -1.124030528698609 
