t, s[1].omega / s[0].omega 
0, -0.5599977394146485 
0.009999999999999995, -0.5597776657998181 
0.019999999999999934, -0.5595644128053794 
0.029999999999999874, -0.5593451585782349 
0.04000000000000012, -0.5591045788310636 
0.050000000000000405, -0.5588302716402757 
0.06000000000000069, -0.5585159051903518 
0.07000000000000098, -0.5581616565652163 
0.08000000000000126, -0.55777321353999 
0.09000000000000155, -0.5573610216005472 
0.10000000000000184, -0.5569409675995101 
0.11000000000000212, -0.5565371355941184 
0.12000000000000241, -0.5561870289285639 
0.130000000000002, -0.5559495771837374 
0.1400000000000009, -0.5559158727709252 
0.1499999999999998, -0.5562211247267927 
0.1599999999999987, -0.5570525109271939 
0.1699999999999976, -0.5586401186229139 
0.1799999999999965, -0.5612086208879045 
0.1899999999999954, -0.5648687217287194 
0.1999999999999943, -0.5694698396461059 
0.2099999999999932, -0.5745277338786152 
0.2199999999999921, -0.5793711884803686 
0.229999999999991, -0.583459670619287 
0.2399999999999899, -0.5865925286139159 
0.2499999999999888, -0.5888547081495534 
0.2599999999999877, -0.5904417206781273 
0.2699999999999866, -0.5915386848881685 
0.2799999999999855, -0.5922832254907633 
0.2899999999999844, -0.5927693941144258 
0.2999999999999833, -0.5930597832130877 
0.3099999999999822, -0.5931948819568496 
0.3199999999999811, -0.5931986700558342 
0.32999999999998, -0.5930816382960018 
0.3399999999999789, -0.5928423981233287 
0.3499999999999778, -0.592468958488692 
0.35999999999997667, -0.5919410371157747 
0.36999999999997557, -0.5912351634395137 
0.37999999999997447, -0.590333919154788 
0.38999999999997337, -0.5892381918733557 
0.39999999999997227, -0.5879769990221673 
0.40999999999997117, -0.586607248673945 
0.41999999999997006, -0.5852006903721383 
0.42999999999996896, -0.5838247913657076 
0.43999999999996786, -0.5825284599276992 
0.44999999999996676, -0.5813383377495731 
0.45999999999996566, -0.5802636069915386 
0.46999999999996456, -0.579303946655772 
0.47999999999996346, -0.5784565483479344 
0.48999999999996235, -0.5777206929350346 
0.49999999999996125, -0.5771001404791265 
0.5099999999999602, -0.5766041639706987 
0.519999999999959, -0.5762479509777212 
0.529999999999958, -0.576052808224717 
0.5399999999999568, -0.5760463736773657 
0.5499999999999557, -0.5762628869985148 
0.5599999999999546, -0.5767433975443941 
0.5699999999999535, -0.5775354645334865 
0.5799999999999524, -0.578691292595457 
0.5899999999999513, -0.5802623010226198 
0.5999999999999502, -0.582287156994861 
0.6099999999999491, -0.5847705551638347 
0.619999999999948, -0.587654176183191 
0.6299999999999469, -0.590791767921161 
0.6399999999999458, -0.5939524560105929 
0.6499999999999447, -0.5968718076012295 
0.6599999999999436, -0.5993347631556316 
0.6699999999999425, -0.6012378046163118 
0.6799999999999414, -0.6025914482820931 
0.6899999999999403, -0.6034763575082425 
0.6999999999999392, -0.6039931073764195 
0.7099999999999381, -0.6042302431855843 
0.719999999999937, -0.6042517428041342 
0.7299999999999359, -0.6040952935190176 
0.7399999999999348, -0.6037737521985491 
0.7499999999999337, -0.6032755805530446 
0.7599999999999326, -0.6025624833302181 
0.7699999999999315, -0.601564030627374 
0.7799999999999304, -0.600171143660715 
0.7899999999999293, -0.598234840381487 
0.7999999999999282, -0.5955842396038358 
0.8099999999999271, -0.5920823173758298 
0.819999999999926, -0.5877204500450306 
0.8299999999999249, -0.5827015281386132 
0.8399999999999238, -0.577425438454843 
0.8499999999999227, -0.5723540242196722 
0.8599999999999216, -0.5678499021588966 
0.8699999999999205, -0.5640978943202798 
0.8799999999999194, -0.5611235132774575 
0.8899999999999183, -0.5588547000664675 
0.8999999999999172, -0.5571788672807044 
0.9099999999999161, -0.555978640551991 
0.919999999999915, -0.5551489323772043 
0.9299999999999139, -0.5546026869431883 
0.9399999999999128, -0.5542710951611675 
0.9499999999999117, -0.5541016232869371 
0.9599999999999106, -0.5540554830813151 
0.9699999999999095, -0.5541052543249239 
0.9799999999999084, -0.5542329383073421 
0.9899999999999073, -0.5544284861388422 
0.9999999999999062, -0.5546886116830769 
1.0099999999999052, -0.5550153755864771 
1.019999999999904, -0.5554136999659007 
1.029999999999903, -0.5558869755685186 
1.039999999999902, -0.5564307212233982 
1.0499999999999008, -0.557026010376294 
1.0599999999998997, -0.5576363195732831 
1.0699999999998986, -0.5582116096581305 
1.0799999999998975, -0.5586999557131085 
1.0899999999998964, -0.5590613541993913 
1.0999999999998953, -0.559275954045175 
1.1099999999998942, -0.559343106339649 
1.119999999999893, -0.559274005207109 
1.129999999999892, -0.5590831669923955 
1.1399999999998909, -0.558782098934713 
1.1499999999998898, -0.5583756934943125 
1.1599999999998887, -0.5578603732407241 
1.1699999999998876, -0.5572227240140317 
1.1799999999998865, -0.5564374291888107 
1.1899999999998854, -0.5554631205382035 
1.1999999999998843, -0.554234130141314 
1.2099999999998832, -0.5526460063081091 
1.219999999999882, -0.5505371614778755 
1.229999999999881, -0.5476867917839325 
1.2399999999998799, -0.5438796035517682 
1.2499999999998788, -0.5390777958514985 
1.2599999999998777, -0.5336053159753601 
1.2699999999998766, -0.5281103092914369 
1.2799999999998755, -0.523254972921394 
1.2899999999998744, -0.5194184192605897 
1.2999999999998733, -0.5166455471853592 
1.3099999999998722, -0.5147744355055043 
1.319999999999871, -0.5135784030056574 
1.32999999999987, -0.5128487164814353 
1.3399999999998689, -0.5124234301532842 
1.3499999999998678, -0.5121878207178582 
1.3599999999998666, -0.5120648189930468 
1.3699999999998655, -0.5120042689734808 
1.3799999999998644, -0.5119741389336558 
1.3899999999998633, -0.511954315924536 
1.3999999999998622, -0.5119327799180697 
1.4099999999998611, -0.5119037424731947 
1.41999999999986, -0.5118671850618898 
1.429999999999859, -0.5118289008254971 
1.4399999999998578, -0.5117997452483611 
1.4499999999998567, -0.5117928431594934 
1.4599999999998556, -0.5118184961179862 
1.4699999999998545, -0.5118782764996852 
1.4799999999998534, -0.5119611683238292 
1.4899999999998523, -0.5120443831899034 
1.4999999999998512, -0.5120992460346266 
1.5099999999998501, -0.5120994237186046 
1.519999999999849, -0.5120272204834675 
1.529999999999848, -0.5118752654916976 
1.5399999999998468, -0.5116441394431643 
1.5499999999998457, -0.5113384065126405 
1.5599999999998446, -0.5109632185796393 
1.5699999999998435, -0.5105223920379062 
1.5799999999998424, -0.5100178974802927 
1.5899999999998413, -0.5094502984415762 
1.5999999999998402, -0.5088194059592712 
1.6099999999998391, -0.508123651228374 
1.619999999999838, -0.5073547700831272 
1.629999999999837, -0.506481410171222 
1.6399999999998358, -0.5054151329202694 
1.6499999999998347, -0.5039684164754985 
1.6599999999998336, -0.5018616181105471 
1.6699999999998325, -0.49886997434820285 
1.6799999999998314, -0.4950783886652168 
1.6899999999998303, -0.4909701026049322 
1.6999999999998292, -0.4871696171621746 
1.709999999999828, -0.48409882787534747 
1.719999999999827, -0.48186535313442935 
1.729999999999826, -0.48036346392637047 
1.7399999999998248, -0.47941194413215155 
1.7499999999998237, -0.4788379456620346 
1.7599999999998226, -0.4785070943590558 
1.7699999999998215, -0.4783251069294332 
1.7799999999998204, -0.4782295432811489 
1.7899999999998193, -0.47818044810712024 
1.7999999999998182, -0.4781528536845279 
1.809999999999817, -0.4781316846884506 
1.819999999999816, -0.478108831945402 
1.8299999999998149, -0.4780819608623076 
1.8399999999998138, -0.4780544363009015 
1.8499999999998127, -0.47803538544782376 
1.8599999999998116, -0.47803857313040776 
1.8699999999998105, -0.47807895792624794 
1.8799999999998094, -0.47816693888563117 
1.8899999999998083, -0.47830205387561486 
1.8999999999998072, -0.4784691842449452 
1.909999999999806, -0.47864002218028806 
1.919999999999805, -0.4787801470085724 
1.9299999999998039, -0.47885854987313425 
1.9399999999998028, -0.4788546684468529 
1.9499999999998017, -0.47875991186730893 
1.9599999999998006, -0.47857443873917466 
1.9699999999997995, -0.4783020811879779 
1.9799999999997984, -0.47794578374173735 
1.9899999999997973, -0.47750431277760175 
1.9999999999997962, -0.476969762277731 
2.0099999999998173, -0.4763247577874473 
2.0199999999998384, -0.47553777184091556 
2.0299999999998595, -0.47455417184565957 
2.0399999999998806, -0.473279797415879 
2.0499999999999017, -0.47155566905119484 
2.059999999999923, -0.46913493421178265 
2.069999999999944, -0.4657061438351545 
2.079999999999965, -0.4610359387137727 
2.089999999999986, -0.45522348607496044 
2.100000000000007, -0.448837546239041 
2.1100000000000283, -0.4426930904938982 
2.1200000000000494, -0.4374365179375882 
2.1300000000000705, -0.4333300130392483 
2.1400000000000916, -0.4303199156257874 
2.1500000000001127, -0.4282049419662527 
2.160000000000134, -0.42676082336801413 
2.170000000000155, -0.4257967630051366 
2.180000000000176, -0.42516890542908126 
2.190000000000197, -0.42477564500728116 
2.2000000000002182, -0.4245482161696555 
2.2100000000002393, -0.4244419270551565 
2.2200000000002604, -0.42442953867631517 
2.2300000000002815, -0.42449683331631655 
2.2400000000003026, -0.424639968172576 
2.2500000000003237, -0.4248640470770121 
2.260000000000345, -0.42518213522797854 
2.270000000000366, -0.42561360388341607 
2.280000000000387, -0.4261803700931104 
2.290000000000408, -0.42689969026361263 
2.3000000000004293, -0.4277732984278092 
2.3100000000004504, -0.42877545601111067 
2.3200000000004715, -0.42984641029298476 
2.3300000000004926, -0.43089929821580775 
2.3400000000005137, -0.4318423051141849 
2.3500000000005348, -0.4326054720484911 
2.360000000000556, -0.43315595772700394 
2.370000000000577, -0.4334950131694706 
2.380000000000598, -0.4336435171171541 
2.390000000000619, -0.4336267016154226 
2.4000000000006403, -0.43346358522868245 
2.4100000000006614, -0.43316100589685086 
2.4200000000006825, -0.43270986271669526 
2.4300000000007036, -0.43208134687105665 
2.4400000000007247, -0.43122214306842704 
2.450000000000746, -0.43004972733344726 
2.460000000000767, -0.4284529654646153 
2.470000000000788, -0.42630929949594193 
2.480000000000809, -0.4235319005074831 
2.49000000000083, -0.42014268718431136 
2.5000000000008513, -0.4163251950759864 
2.5100000000008724, -0.41239286090280014 
2.5200000000008935, -0.4086732031692587 
2.5300000000009146, -0.40539469042690496 
2.5400000000009357, -0.40264994277516086 
2.550000000000957, -0.4004269985644339 
2.560000000000978, -0.3986605395678894 
2.570000000000999, -0.39727127580608895 
2.58000000000102, -0.39618711665069045 
2.5900000000010412, -0.39535132929434047 
2.6000000000010624, -0.39472401224664233 
2.6100000000010835, -0.39428110069458555 
2.6200000000011046, -0.39401312179873105 
2.6300000000011257, -0.39392471579268273 
2.6400000000011468, -0.3940353482485287 
2.650000000001168, -0.3943813483911453 
2.660000000001189, -0.39501912177529847 
2.67000000000121, -0.39602875600688614 
2.680000000001231, -0.39751575369683473 
2.6900000000012523, -0.39960563414271527 
2.7000000000012734, -0.40242160796756654 
2.7100000000012945, -0.4060328431932237 
2.7200000000013156, -0.41037163494082485 
2.7300000000013367, -0.41515747348377474 
2.740000000001358, -0.4199149055506569 
2.750000000001379, -0.4241385128293004 
2.7600000000014, -0.42750564930601886 
2.770000000001421, -0.4299602648468067 
2.780000000001442, -0.43163378053501383 
2.7900000000014633, -0.43271838649414907 
2.8000000000014844, -0.4333862811351385 
2.8100000000015055, -0.433763768291918 
2.8200000000015266, -0.43393385540590285 
2.8300000000015477, -0.4339465536768642 
2.840000000001569, -0.43382824076075244 
2.85000000000159, -0.43358835422699915 
2.860000000001611, -0.4332243106032605 
2.870000000001632, -0.4327263695925737 
2.8800000000016532, -0.4320842104278847 
2.8900000000016743, -0.43129596283786953 
2.9000000000016954, -0.4303777405584658 
2.9100000000017165, -0.4293684441895772 
2.9200000000017377, -0.4283245789557779 
2.9300000000017588, -0.4273056994005035 
2.94000000000178, -0.42635830218092724 
2.950000000001801, -0.4255067353505669 
2.960000000001822, -0.4247537310893869 
2.970000000001843, -0.4240873285761483 
2.9800000000018643, -0.4234893848994211 
2.9900000000018854, -0.4229423766537194 
3.0000000000019065, -0.4224333718548679 
3.0100000000019276, -0.421955661674529 
3.0200000000019487, -0.42150926324835314 
3.03000000000197, -0.4211015060635307 
3.040000000001991, -0.42074860541252573 
3.050000000002012, -0.4204788467422838 
3.060000000002033, -0.42033782003502057 
3.070000000002054, -0.42039579647361025 
3.0800000000020753, -0.42075614499831565 
3.0900000000020964, -0.42156025403804104 
3.1000000000021175, -0.422976732941062 
3.1100000000021386, -0.42515102053384257 
3.1200000000021597, -0.4280900027519725 
3.130000000002181, -0.4315078338180386 
3.140000000002202, -0.43478884950507785 
3.150000000002223, -0.43725958080710037 
3.160000000002244, -0.4386250823124328 
3.1700000000022652, -0.43909321521306677 
3.1800000000022863, -0.4390866684091589 
3.1900000000023074, -0.4389383889752084 
3.2000000000023285, -0.4388081605118777 
3.2100000000023496, -0.4387367915897239 
3.2200000000023707, -0.4387137069146469 
3.230000000002392, -0.4387158818242004 
3.240000000002413, -0.43872288486322486 
3.250000000002434, -0.4387201476613757 
3.260000000002455, -0.4386981172993771 
3.2700000000024763, -0.4386507367205194 
3.2800000000024974, -0.43857454552326025 
3.2900000000025185, -0.43846881123863424 
3.3000000000025396, -0.43833665259512655 
3.3100000000025607, -0.4381866067092629 
3.3200000000025818, -0.43803345273642097 
3.330000000002603, -0.43789679017239214 
3.340000000002624, -0.4377965560892303 
3.350000000002645, -0.4377463823431319 
3.360000000002666, -0.4377474055604244 
3.3700000000026873, -0.4377856217380861 
3.3800000000027084, -0.4378346539145723 
3.3900000000027295, -0.4378631769192876 
3.4000000000027506, -0.43784350421657725 
3.4100000000027717, -0.4377571735139162 
3.420000000002793, -0.43759561276984205 
3.430000000002814, -0.43735703770830436 
3.440000000002835, -0.4370420320843517 
3.450000000002856, -0.43664952961679615 
3.460000000002877, -0.4361735344548186 
3.4700000000028983, -0.43559987312063597 
3.4800000000029194, -0.4349015775973003 
3.4900000000029405, -0.43403076045801103 
3.5000000000029616, -0.432904005910383 
3.5100000000029827, -0.43137891859802824 
3.520000000003004, -0.42922733427741144 
3.530000000003025, -0.4261363170593359 
3.540000000003046, -0.4218056290428788 
3.550000000003067, -0.4161824001046489 
3.5600000000030882, -0.4096820824331709 
3.5700000000031094, -0.4030977016417456 
3.5800000000031305, -0.3971969678078141 
3.5900000000031516, -0.3923972573912601 
3.6000000000031727, -0.38874827908405024 
3.6100000000031938, -0.3860904637464637 
3.620000000003215, -0.38420395145113345 
3.630000000003236, -0.38288734197572094 
3.640000000003257, -0.3819831031449117 
3.650000000003278, -0.3813776190183138 
3.6600000000032993, -0.3809931369259444 
3.6700000000033204, -0.38077913176222694 
3.6800000000033415, -0.3807055208659144 
3.6900000000033626, -0.38075811121045944 
3.7000000000033837, -0.38093598957241703 
3.710000000003405, -0.38125035518488776 
3.720000000003426, -0.38172409336079066 
3.730000000003447, -0.3823909707216826 
3.740000000003468, -0.3832926149546708 
3.750000000003489, -0.38447059693620705 
3.7600000000035103, -0.3859507859838997 
3.7700000000035314, -0.3877197693328104 
3.7800000000035525, -0.38970108149786814 
3.7900000000035736, -0.3917498656373013 
3.8000000000035947, -0.39368397768590707 
3.810000000003616, -0.39534359636393923 
3.820000000003637, -0.3966407638045101 
3.830000000003658, -0.39756712224831137 
3.840000000003679, -0.39816645374079973 
3.8500000000037002, -0.3985000750270316 
3.8600000000037213, -0.39862351176008015 
3.8700000000037424, -0.3985763177542468 
3.8800000000037635, -0.3983796822931919 
3.8900000000037847, -0.3980369045517182 
3.9000000000038058, -0.397534419656008 
3.910000000003827, -0.3968434831828711 
3.920000000003848, -0.3959246990353279 
3.930000000003869, -0.39473902452400994 
3.94000000000389, -0.39326764042457324 
3.9500000000039113, -0.39153602780278507 
3.9600000000039324, -0.3896269336463611 
3.9700000000039535, -0.38766604069511434 
3.9800000000039746, -0.3857833085859509 
3.9900000000039957, -0.384074624888303 
4.000000000004016, -0.38258573716188055 
4.010000000003993, -0.38131930672204767 
4.02000000000397, -0.3802522807209129 
4.030000000003946, -0.37935222039655625 
4.040000000003923, -0.3785881119548593 
4.0500000000039, -0.3779359192175594 
4.0600000000038765, -0.3773807904616911 
4.070000000003853, -0.3769178485653339 
4.08000000000383, -0.37655300564772953 
4.090000000003807, -0.37630477722390415 
4.100000000003783, -0.37620779211486444 
4.11000000000376, -0.3763185450389453 
4.120000000003737, -0.3767236406408991 
4.130000000003713, -0.37754966677699153 
4.14000000000369, -0.3789704899485847 
4.150000000003667, -0.38119982465052116 
4.1600000000036434, -0.38444337707070575 
4.17000000000362, -0.38877705468084556 
4.180000000003597, -0.3939595306521124 
4.1900000000035735, -0.39932567327706825 
4.20000000000355, -0.4040042368388422 
4.210000000003527, -0.40741300767920335 
4.220000000003504, -0.40953681894003546 
4.23000000000348, -0.41073152455903844 
4.240000000003457, -0.41138637397838573 
4.250000000003434, -0.41176278682100653 
4.26000000000341, -0.4119969271479838 
4.270000000003387, -0.4121497787482558 
4.280000000003364, -0.41224649456185203 
4.2900000000033405, -0.41229720293355443 
4.300000000003317, -0.41230602006517864 
4.310000000003294, -0.41227453506264117 
4.320000000003271, -0.4122032847473099 
4.330000000003247, -0.4120929189812932 
4.340000000003224, -0.4119458106746098 
4.350000000003201, -0.4117682098958976 
4.360000000003177, -0.4115723005560833 
4.370000000003154, -0.4113767895184556 
4.380000000003131, -0.41120457646820563 
4.390000000003107, -0.41107719735826614 
4.400000000003084, -0.41100766873750344 
4.410000000003061, -0.4109947371137711 
4.4200000000030375, -0.41102141294569805 
4.430000000003014, -0.4110590301395297 
4.440000000002991, -0.4110753924538952 
4.450000000002968, -0.4110431773516831 
4.460000000002944, -0.4109447034529642 
4.470000000002921, -0.41077175616201167 
4.480000000002898, -0.4105220092859404 
4.490000000002874, -0.41019442519274396 
4.500000000002851, -0.40978503751358425 
4.510000000002828, -0.40928312681994344 
4.520000000002804, -0.40866678097626136 
4.530000000002781, -0.40789610955795325 
4.540000000002758, -0.4069017351032437 
4.5500000000027345, -0.4055662644043715 
4.560000000002711, -0.4037005303132772 
4.570000000002688, -0.4010321427263042 
4.580000000002665, -0.3972552733101244 
4.590000000002641, -0.3922001947388408 
4.600000000002618, -0.38607085927254664 
4.610000000002595, -0.379504892581675 
4.620000000002571, -0.37329259120012465 
4.630000000002548, -0.36799744108184307 
4.640000000002525, -0.36381341147498314 
4.6500000000025015, -0.360664154674796 
4.660000000002478, -0.3583594458634838 
4.670000000002455, -0.35669895516566685 
4.6800000000024315, -0.35551575757583953 
4.690000000002408, -0.35468524723186545 
4.700000000002385, -0.35412041751601925 
4.710000000002362, -0.3537640992976666 
4.720000000002338, -0.3535822056414872 
4.730000000002315, -0.35355907186388513 
4.740000000002292, -0.35369490453287533 
4.750000000002268, -0.35400502279516616 
4.760000000002245, -0.3545203905652175 
4.770000000002222, -0.35528854204098786 
4.7800000000021985, -0.35637309361626857 
4.790000000002175, -0.3578483728942795 
4.800000000002152, -0.359783572176707 
4.810000000002129, -0.3622105233866303 
4.820000000002105, -0.3650767576069879 
4.830000000002082, -0.36820682767746643 
4.840000000002059, -0.3713165607420791 
4.850000000002035, -0.37410356700001635 
4.860000000002012, -0.37636272134719706 
4.870000000001989, -0.37803844733966746 
4.880000000001965, -0.3791907990189506 
