t, s[1].omega / s[0].omega 
0, -0.6199977201567111 
0.009999999999999995, -0.619766532854612 
0.019999999999999934, -0.6195252337463433 
0.029999999999999874, -0.61926445396738 
0.04000000000000012, -0.6189737150503544 
0.050000000000000405, -0.6186458909822414 
0.06000000000000069, -0.6182796836984756 
0.07000000000000098, -0.6178800051898257 
0.08000000000000126, -0.6174575449269304 
0.09000000000000155, -0.6170289882359054 
0.10000000000000184, -0.6166188169450451 
0.11000000000000212, -0.6162630650735401 
0.12000000000000241, -0.6160150498572682 
0.130000000000002, -0.6159527709325144 
0.1400000000000009, -0.6161870242456362 
0.1499999999999998, -0.6168678909260303 
0.1599999999999987, -0.6181846404266724 
0.1699999999999976, -0.6203499965786607 
0.1799999999999965, -0.6235556966974782 
0.1899999999999954, -0.6278891352283643 
0.1999999999999943, -0.6332246693297965 
0.2099999999999932, -0.6391539155345727 
0.2199999999999921, -0.6450520261775023 
0.229999999999991, -0.6502995168321282 
0.2399999999999899, -0.6545162305573532 
0.2499999999999888, -0.6576327387056283 
0.2599999999999877, -0.6597934230975312 
0.2699999999999866, -0.6612172782570845 
0.2799999999999855, -0.6621077639373643 
0.2899999999999844, -0.6626200815915052 
0.2999999999999833, -0.6628600459517641 
0.3099999999999822, -0.6628929916524756 
0.3199999999999811, -0.6627525645859668 
0.32999999999998, -0.6624462126147399 
0.3399999999999789, -0.661957050877088 
0.3499999999999778, -0.6612429618351671 
0.35999999999997667, -0.6602350944066885 
0.36999999999997557, -0.6588404075550794 
0.37999999999997447, -0.6569561732153545 
0.38999999999997337, -0.6545043296921025 
0.39999999999997227, -0.6514822718625763 
0.40999999999997117, -0.6480034468885564 
0.41999999999997006, -0.6442899966804119 
0.42999999999996896, -0.6406094397651797 
0.43999999999996786, -0.6371950819124967 
0.44999999999996676, -0.634197922418384 
0.45999999999996566, -0.6316827096643142 
0.46999999999996456, -0.6296499938567829 
0.47999999999996346, -0.6280626596437965 
0.48999999999996235, -0.6268661704529883 
0.49999999999996125, -0.6260009640957376 
0.5099999999999602, -0.6254091398348105 
0.519999999999959, -0.6250378427277509 
0.529999999999958, -0.6248409189760858 
0.5399999999999568, -0.6247796306662227 
0.5499999999999557, -0.6248227806419502 
0.5599999999999546, -0.6249464437902196 
0.5699999999999535, -0.6251334606210676 
0.5799999999999524, -0.6253727606202778 
0.5899999999999513, -0.6256583531182938 
0.5999999999999502, -0.6259875095951486 
0.6099999999999491, -0.6263575569813438 
0.619999999999948, -0.6267612496707846 
0.6299999999999469, -0.6271820363760818 
0.6399999999999458, -0.6275919531602779 
0.6499999999999447, -0.6279547627723386 
0.6599999999999436, -0.6282342291906332 
0.6699999999999425, -0.6284035479877867 
0.6799999999999414, -0.628450700358359 
0.6899999999999403, -0.6283775466125753 
0.6999999999999392, -0.6281947499636731 
0.7099999999999381, -0.6279162543107694 
0.719999999999937, -0.6275558445492643 
0.7299999999999359, -0.6271265587085078 
0.7399999999999348, -0.6266428907486403 
0.7499999999999337, -0.6261258068212917 
0.7599999999999326, -0.6256109561616039 
0.7699999999999315, -0.6251603498803019 
0.7799999999999304, -0.6248762122816414 
0.7899999999999293, -0.6249112220956905 
0.7999999999999282, -0.6254610194527057 
0.8099999999999271, -0.6267168038530045 
0.819999999999926, -0.6287656214019657 
0.8299999999999249, -0.6314787668672228 
0.8399999999999238, -0.6344992066787659 
0.8499999999999227, -0.6373993225756749 
0.8599999999999216, -0.6398900474900399 
0.8699999999999205, -0.6418887296896316 
0.8799999999999194, -0.6434394933184521 
0.8899999999999183, -0.6446189331727143 
0.8999999999999172, -0.6454950908579684 
0.9099999999999161, -0.6461223187120317 
0.919999999999915, -0.6465444388427763 
0.9299999999999139, -0.6467962872960281 
0.9399999999999128, -0.6469034696475916 
0.9499999999999117, -0.6468815965008669 
0.9599999999999106, -0.6467355264003276 
0.9699999999999095, -0.6464587345333233 
0.9799999999999084, -0.646033170891456 
0.9899999999999073, -0.6454307088168973 
0.9999999999999062, -0.6446181401749403 
1.0099999999999052, -0.643567628645848 
1.019999999999904, -0.6422719181238397 
1.029999999999903, -0.6407581571622729 
1.039999999999902, -0.63909047214466 
1.0499999999999008, -0.637356295956201 
1.0599999999998997, -0.6356433179205874 
1.0699999999998986, -0.6340204898489951 
1.0799999999998975, -0.6325311610028942 
1.0899999999998964, -0.6311967774041348 
1.0999999999998953, -0.6300249748727029 
1.1099999999998942, -0.6290170637420712 
1.119999999999893, -0.6281728828084646 
1.129999999999892, -0.6274930834233571 
1.1399999999998909, -0.6269796826752699 
1.1499999999998898, -0.6266357480875177 
1.1599999999998887, -0.6264648564770738 
1.1699999999998876, -0.6264707298099038 
1.1799999999998865, -0.6266572255215811 
1.1899999999998854, -0.6270286246166177 
1.1999999999998843, -0.6275898957814214 
1.2099999999998832, -0.6283463064564537 
1.219999999999882, -0.6293014325911742 
1.229999999999881, -0.630452470239278 
1.2399999999998799, -0.6317822669782437 
1.2499999999998788, -0.6332494154027041 
1.2599999999998777, -0.6347812536344544 
1.2699999999998766, -0.636277486464777 
1.2799999999998755, -0.6376293071732769 
1.2899999999998744, -0.6387480525922574 
1.2999999999998733, -0.6395872333563488 
1.3099999999998722, -0.6401452995478328 
1.319999999999871, -0.6404513621664067 
1.32999999999987, -0.6405459000485884 
1.3399999999998689, -0.6404660710830599 
1.3499999999998678, -0.6402379946742189 
1.3599999999998666, -0.6398739080476724 
1.3699999999998655, -0.6393713557278092 
1.3799999999998644, -0.6387124218558986 
1.3899999999998633, -0.6378619016639402 
1.3999999999998622, -0.6367637919092869 
1.4099999999998611, -0.6353357779638253 
1.41999999999986, -0.6334624809446757 
1.429999999999859, -0.6309928126847443 
1.4399999999998578, -0.6277589551391352 
1.4499999999998567, -0.6236489400668997 
1.4599999999998556, -0.6187431021707243 
1.4699999999998545, -0.6134249314954858 
1.4799999999998534, -0.6083043134410777 
1.4899999999998523, -0.6039480293568947 
1.4999999999998512, -0.600645951556322 
1.5099999999998501, -0.5983848918918518 
1.519999999999849, -0.5969704151820183 
1.529999999999848, -0.5961592945331424 
1.5399999999998468, -0.5957367890233964 
1.5499999999998457, -0.5955422204063402 
1.5599999999998446, -0.5954665025302783 
1.5699999999998435, -0.5954398691140848 
1.5799999999998424, -0.5954189412701888 
1.5899999999998413, -0.595376403354537 
1.5999999999998402, -0.595293881297949 
1.6099999999998391, -0.595157776685171 
1.619999999999838, -0.594957734589539 
1.629999999999837, -0.5946874083735405 
1.6399999999998358, -0.5943467578259963 
1.6499999999998347, -0.5939442278375824 
1.6599999999998336, -0.5934965619057422 
1.6699999999998325, -0.5930249289493459 
1.6799999999998314, -0.5925485571445798 
1.6899999999998303, -0.5920791841058797 
1.6999999999998292, -0.591619265877984 
1.709999999999828, -0.5911643865900384 
1.719999999999827, -0.5907079070527381 
1.729999999999826, -0.5902452880758433 
1.7399999999998248, -0.5897766698846851 
1.7499999999998237, -0.5893078966737004 
1.7599999999998226, -0.5888510702766252 
1.7699999999998215, -0.58842570016413 
1.7799999999998204, -0.5880610775813622 
1.7899999999998193, -0.5878000851703018 
1.7999999999998182, -0.5877043510543407 
1.809999999999817, -0.5878603041994751 
1.819999999999816, -0.5883849938976573 
1.8299999999998149, -0.5894290870818331 
1.8399999999998138, -0.5911717592775695 
1.8499999999998127, -0.5937982338373466 
1.8599999999998116, -0.5974479548695935 
1.8699999999998105, -0.6021283331263649 
1.8799999999998094, -0.6076193781507385 
1.8899999999998083, -0.6134440251216422 
1.8999999999998072, -0.618985065092529 
1.909999999999806, -0.6237181890037437 
1.919999999999805, -0.6273928795563951 
1.9299999999998039, -0.6300356692694293 
1.9399999999998028, -0.6318283638317789 
1.9499999999998017, -0.6329852981184345 
1.9599999999998006, -0.6336881267897236 
1.9699999999997995, -0.634068532198004 
1.9799999999997984, -0.6342127717852634 
1.9899999999997973, -0.6341711812766063 
1.9999999999997962, -0.6339658267413413 
2.0099999999998173, -0.633594664666011 
2.0199999999998384, -0.6330325834424826 
2.0299999999998595, -0.6322308306795531 
2.0399999999998806, -0.6311180073596125 
2.0499999999999017, -0.6296083878714018 
2.059999999999923, -0.6276247740865116 
2.069999999999944, -0.6251376708878407 
2.079999999999965, -0.6222059229824441 
2.089999999999986, -0.6189878280076366 
2.100000000000007, -0.6157031985182038 
2.1100000000000283, -0.6125663725567765 
2.1200000000000494, -0.6097331032169941 
2.1300000000000705, -0.6072847749829029 
2.1400000000000916, -0.6052417844970466 
2.1500000000001127, -0.6035865201183025 
2.160000000000134, -0.6022829166255683 
2.170000000000155, -0.6012888458648564 
2.180000000000176, -0.6005625615527469 
2.190000000000197, -0.6000655584741726 
2.2000000000002182, -0.5997637034784488 
2.2100000000002393, -0.5996277004077474 
2.2200000000002604, -0.5996333538125718 
2.2300000000002815, -0.5997617619656687 
2.2400000000003026, -0.5999994129279032 
2.2500000000003237, -0.6003380538876288 
2.260000000000345, -0.6007740431586277 
2.270000000000366, -0.6013066490505449 
2.280000000000387, -0.6019345933344088 
2.290000000000408, -0.602650461604116 
2.3000000000004293, -0.6034338841664229 
2.3100000000004504, -0.6042465154994547 
2.3200000000004715, -0.6050332914753912 
2.3300000000004926, -0.6057325734816512 
2.3400000000005137, -0.6062918813857016 
2.3500000000005348, -0.6066806310385726 
2.360000000000556, -0.6068929227643054 
2.370000000000577, -0.6069408493469852 
2.380000000000598, -0.6068441965917674 
2.390000000000619, -0.6066218691472025 
2.4000000000006403, -0.6062869266031071 
2.4100000000006614, -0.6058446144533531 
2.4200000000006825, -0.605292121696164 
2.4300000000007036, -0.6046191142266106 
2.4400000000007247, -0.603808463011817 
2.450000000000746, -0.6028364587142157 
2.460000000000767, -0.6016708517909759 
2.470000000000788, -0.6002636625856297 
2.480000000000809, -0.598537207085731 
2.49000000000083, -0.5963748509654024 
2.5000000000008513, -0.5936554522135502 
2.5100000000008724, -0.5903695503566737 
2.5200000000008935, -0.5867518426350382 
2.5300000000009146, -0.5832528391025465 
2.5400000000009357, -0.5803118577033628 
2.550000000000957, -0.5781473877862909 
2.560000000000978, -0.5767345798620852 
2.570000000000999, -0.575911544891621 
2.58000000000102, -0.5754883929270604 
2.5900000000010412, -0.5753054479550379 
2.6000000000010624, -0.5752485702126117 
2.6100000000010835, -0.5752435761130523 
2.6200000000011046, -0.5752447749901258 
2.6300000000011257, -0.5752243113594561 
2.6400000000011468, -0.5751642770400613 
2.650000000001168, -0.575051704818309 
2.660000000001189, -0.5748761497472824 
2.67000000000121, -0.5746296246702626 
2.680000000001231, -0.5743085436671616 
2.6900000000012523, -0.5739166629206364 
2.7000000000012734, -0.573467001503631 
2.7100000000012945, -0.572980472848566 
2.7200000000013156, -0.5724805946272039 
2.7300000000013367, -0.5719864882033664 
2.740000000001358, -0.5715079031610257 
2.750000000001379, -0.571044694466988 
2.7600000000014, -0.5705903220811499 
2.770000000001421, -0.5701369152482078 
2.780000000001442, -0.5696794235718932 
2.7900000000014633, -0.5692178247761175 
2.8000000000014844, -0.5687578985098278 
2.8100000000015055, -0.568311755018236 
2.8200000000015266, -0.5678991605707597 
2.8300000000015477, -0.5675502686923563 
2.840000000001569, -0.5673100206757093 
2.85000000000159, -0.5672442303597925 
2.860000000001611, -0.5674469822991314 
2.870000000001632, -0.5680480471134011 
2.8800000000016532, -0.5692169434220737 
2.8900000000016743, -0.5711563401752092 
2.9000000000016954, -0.5740719112515824 
2.9100000000017165, -0.5781030306162849 
2.9200000000017377, -0.5832127061939942 
2.9300000000017588, -0.5890831651726305 
2.94000000000178, -0.595123121564651 
2.950000000001801, -0.6006603349870635 
2.960000000001822, -0.6052158508731448 
2.970000000001843, -0.6086420265828665 
2.9800000000018643, -0.6110526858431287 
2.9900000000018854, -0.6126694659944125 
3.0000000000019065, -0.613710021247323 
3.0100000000019276, -0.614343873398264 
3.0200000000019487, -0.614688494000623 
3.03000000000197, -0.6148189263901934 
3.040000000001991, -0.6147781366765459 
3.050000000002012, -0.614584248192744 
3.060000000002033, -0.614234432783578 
3.070000000002054, -0.6137064950495315 
3.0800000000020753, -0.6129600825663014 
3.0900000000020964, -0.6119408014452243 
3.1000000000021175, -0.6105918050245653 
3.1100000000021386, -0.6088760562393881 
3.1200000000021597, -0.6068048369234175 
3.130000000002181, -0.6044563102697116 
3.140000000002202, -0.6019658397101351 
3.150000000002223, -0.5994882796652058 
3.160000000002244, -0.5971554395414164 
3.1700000000022652, -0.5950525537721414 
3.1800000000022863, -0.5932184358186567 
3.1900000000023074, -0.5916588841192931 
3.2000000000023285, -0.5903617869093749 
3.2100000000023496, -0.5893081699295245 
3.2200000000023707, -0.5884784071100272 
3.230000000002392, -0.5878549337061518 
3.240000000002413, -0.5874230474754508 
3.250000000002434, -0.5871709503741639 
3.260000000002455, -0.5870896873040217 
3.2700000000024763, -0.5871732624100401 
3.2800000000024974, -0.587418953078785 
3.2900000000025185, -0.587827636774144 
3.3000000000025396, -0.5884037233315367 
3.3100000000025607, -0.5891539923819903 
3.3200000000025818, -0.5900843239672221 
3.330000000002603, -0.5911932887540989 
3.340000000002624, -0.5924625036472676 
3.350000000002645, -0.5938462818202257 
3.360000000002666, -0.5952669030992377 
3.3700000000026873, -0.5966232468738684 
3.3800000000027084, -0.5978143914777524 
3.3900000000027295, -0.5987674694510662 
3.4000000000027506, -0.5994531064120016 
3.4100000000027717, -0.5998810998799045 
3.420000000002793, -0.600083550302102 
3.430000000002814, -0.600097356531941 
3.440000000002835, -0.5999525999944961 
3.450000000002856, -0.599666880594768 
3.460000000002877, -0.5992429010488853 
3.4700000000028983, -0.5986666228252557 
3.4800000000029194, -0.5979040908204697 
3.4900000000029405, -0.5968955885890721 
3.5000000000029616, -0.5955462994428575 
3.5100000000029827, -0.5937143954574756 
3.520000000003004, -0.5912035326131663 
3.530000000003025, -0.5877809168130235 
3.540000000003046, -0.583257897472904 
3.550000000003067, -0.5776479573587356 
3.5600000000030882, -0.5713122776494621 
3.5700000000031094, -0.5649136305180149 
3.5800000000031305, -0.559141871326315 
3.5900000000031516, -0.5544340662534916 
3.6000000000031727, -0.5508973198446986 
3.6100000000031938, -0.5484067038776084 
3.620000000003215, -0.5467410136041793 
3.630000000003236, -0.5456753270568917 
3.640000000003257, -0.5450222181241327 
3.650000000003278, -0.5446407752954123 
3.6600000000032993, -0.5444313018481505 
3.6700000000033204, -0.5443259051265141 
3.6800000000033415, -0.5442794620413746 
3.6900000000033626, -0.5442624736534382 
3.7000000000033837, -0.544256075173939 
3.710000000003405, -0.5442490328683097 
3.720000000003426, -0.5442363648335631 
3.730000000003447, -0.5442189469620836 
3.740000000003468, -0.5442030507125251 
3.750000000003489, -0.544198524446333 
3.7600000000035103, -0.5442148438767208 
3.7700000000035314, -0.5442557142641974 
3.7800000000035525, -0.5443145467415034 
3.7900000000035736, -0.5443735963979442 
3.8000000000035947, -0.5444080012201752 
3.810000000003616, -0.5443930311486553 
3.820000000003637, -0.5443107249121903 
3.830000000003658, -0.5441527591767154 
3.840000000003679, -0.543919239595257 
3.8500000000037002, -0.5436154374801276 
3.8600000000037213, -0.5432487787914783 
3.8700000000037424, -0.5428273844184024 
3.8800000000037635, -0.542360511480122 
3.8900000000037847, -0.5418608755006484 
3.9000000000038058, -0.5413487930773525 
3.910000000003827, -0.540857800577311 
3.920000000003848, -0.5404400618584942 
3.930000000003869, -0.540166397830985 
3.94000000000389, -0.5401099096074484 
3.9500000000039113, -0.5402992142387985 
3.9600000000039324, -0.5406456697808416 
3.9700000000039535, -0.5409071982761595 
3.9800000000039746, -0.5407934213420813 
3.9900000000039957, -0.5401920707720131 
4.000000000004016, -0.5392773496975806 
4.010000000003993, -0.538357041500479 
4.02000000000397, -0.5376523797168243 
4.030000000003946, -0.5372239641016413 
4.040000000003923, -0.5370250216854319 
4.0500000000039, -0.5369745942126409 
4.0600000000038765, -0.5369996092330632 
4.070000000003853, -0.5370476897654137 
4.08000000000383, -0.5370854817884555 
4.090000000003807, -0.5370927512774858 
4.100000000003783, -0.5370567539305638 
4.11000000000376, -0.5369682466826093 
4.120000000003737, -0.5368193764416439 
4.130000000003713, -0.5366034636681536 
4.14000000000369, -0.5363166228666619 
4.150000000003667, -0.5359607072352962 
4.1600000000036434, -0.5355460977937907 
4.17000000000362, -0.535092051657297 
4.180000000003597, -0.5346229852644192 
4.1900000000035735, -0.5341615697978662 
4.20000000000355, -0.5337220164250188 
4.210000000003527, -0.5333070471172837 
4.220000000003504, -0.5329096955453122 
4.23000000000348, -0.5325183285339986 
4.240000000003457, -0.5321220269168505 
4.250000000003434, -0.5317141592504636 
4.26000000000341, -0.531293712351691 
4.270000000003387, -0.5308653439603209 
4.280000000003364, -0.5304395176642678 
4.2900000000033405, -0.5300337697026732 
4.300000000003317, -0.5296757454763583 
4.310000000003294, -0.5294084194043952 
4.320000000003271, -0.5292977658181495 
4.330000000003247, -0.5294426817905598 
4.340000000003224, -0.5299854427700613 
4.350000000003201, -0.5311171888457995 
4.360000000003177, -0.5330656430502694 
4.370000000003154, -0.5360432066975271 
4.380000000003131, -0.5401358341705774 
4.390000000003107, -0.5451566249201826 
4.400000000003084, -0.5505805465118556 
4.410000000003061, -0.5557040282340602 
4.4200000000030375, -0.5599744359437901 
4.430000000003014, -0.5632011708300071 
4.440000000002991, -0.5654928425114767 
4.450000000002968, -0.5670708715811198 
4.460000000002944, -0.568141030322667 
4.470000000002921, -0.5688541304390978 
4.480000000002898, -0.5693110870165714 
4.490000000002874, -0.5695772182579294 
4.500000000002851, -0.5696935273441543 
4.510000000002828, -0.5696836114726078 
4.520000000002804, -0.5695575052391968 
4.530000000002781, -0.5693138641005915 
4.540000000002758, -0.5689417798977875 
4.5500000000027345, -0.5684236898088234 
4.560000000002711, -0.5677409778547474 
4.570000000002688, -0.5668830654311577 
4.580000000002665, -0.5658581024333782 
4.590000000002641, -0.5646997049144933 
4.600000000002618, -0.5634636029477138 
4.610000000002595, -0.5622138260692048 
4.620000000002571, -0.5610059574938879 
4.630000000002548, -0.5598766175359136 
4.640000000002525, -0.5588425557192686 
4.6500000000025015, -0.5579064140629414 
4.660000000002478, -0.5570643151045206 
4.670000000002455, -0.5563120480978151 
4.6800000000024315, -0.5556489403193073 
4.690000000002408, -0.5550799186226142 
4.700000000002385, -0.5546166455436933 
4.710000000002362, -0.5542784196409418 
4.720000000002338, -0.5540932065750862 
4.730000000002315, -0.5540989176975679 
4.740000000002292, -0.5543448693992264 
4.750000000002268, -0.5548931140954841 
4.760000000002245, -0.5558188376020393 
4.770000000002222, -0.5572080324949866 
4.7800000000021985, -0.5591490509203872 
4.790000000002175, -0.5617129157309584 
4.800000000002152, -0.5649177692884554 
4.810000000002129, -0.568680795614352 
4.820000000002105, -0.5727806408475435 
4.830000000002082, -0.5768731043009728 
4.840000000002059, -0.580585705601457 
4.850000000002035, -0.5836474950289898 
4.860000000002012, -0.5859625555801553 
4.870000000001989, -0.5875862252000916 
4.880000000001965, -0.5886487805325435 
4.890000000001942, -0.5892886351962204 
4.900000000001919, -0.5896185675944773 
4.9100000000018955, -0.5897171539991741 
4.920000000001872, -0.5896313039893071 
