t, s[1].omega / s[0].omega 
0, -0.3199977969942964 
0.009999999999999995, -0.31981232747989863 
0.019999999999999934, -0.3196881234753312 
0.029999999999999874, -0.3196045098628448 
0.04000000000000012, -0.31953386344359463 
0.050000000000000405, -0.31944884218354325 
0.06000000000000069, -0.31932782717451336 
0.07000000000000098, -0.31915672939161377 
0.08000000000000126, -0.31892739926163405 
0.09000000000000155, -0.3186341654587399 
0.10000000000000184, -0.3182698664816122 
0.11000000000000212, -0.31782179912520603 
0.12000000000000241, -0.3172671246912707 
0.130000000000002, -0.3165668118556226 
0.1400000000000009, -0.31565742016065523 
0.1499999999999998, -0.314441871332894 
0.1599999999999987, -0.31278585127714953 
0.1699999999999976, -0.3105365883640915 
0.1799999999999965, -0.3075860304918824 
0.1899999999999954, -0.3039725934800248 
0.1999999999999943, -0.29994629437396597 
0.2099999999999932, -0.2959025071445457 
0.2199999999999921, -0.2922111436405417 
0.229999999999991, -0.28908536075382024 
0.2399999999999899, -0.286569900555357 
0.2499999999999888, -0.28460395423050083 
0.2599999999999877, -0.2830876453428296 
0.2699999999999866, -0.2819224356314721 
0.2799999999999855, -0.28102789657848193 
0.2899999999999844, -0.28034537511608526 
0.2999999999999833, -0.2798364962502394 
0.3099999999999822, -0.27948069318450897 
0.3199999999999811, -0.2792736069895646 
0.32999999999998, -0.27922710302728315 
0.3399999999999789, -0.2793712302921231 
0.3499999999999778, -0.27975822184907645 
0.35999999999997667, -0.2804681171592509 
0.36999999999997557, -0.28161400970207495 
0.37999999999997447, -0.28334095632556167 
0.38999999999997337, -0.28580490613961884 
0.39999999999997227, -0.2891095670594203 
0.40999999999997117, -0.2931886338825821 
0.41999999999997006, -0.29768526144665836 
0.42999999999996896, -0.3019816406282141 
0.43999999999996786, -0.3054782684197595 
0.44999999999996676, -0.3079144153036443 
0.45999999999996566, -0.30940849981681234 
0.46999999999996456, -0.3102491272127181 
0.47999999999996346, -0.3107009246826282 
0.48999999999996235, -0.3109384317992302 
0.49999999999996125, -0.3110589264206887 
0.5099999999999602, -0.3111123125249629 
0.519999999999959, -0.3111236253179882 
0.529999999999958, -0.31110588864588024 
0.5399999999999568, -0.31106675736239203 
0.5499999999999557, -0.31101205295535095 
0.5599999999999546, -0.31094804388498026 
0.5699999999999535, -0.3108833453663468 
0.5799999999999524, -0.31083059207996466 
0.5899999999999513, -0.3108074248125517 
0.5999999999999502, -0.3108359005490594 
0.6099999999999491, -0.31093945290738645 
0.619999999999948, -0.311137172461149 
0.6299999999999469, -0.3114363278842907 
0.6399999999999458, -0.31182548075458294 
0.6499999999999447, -0.31227183846066575 
0.6599999999999436, -0.31272622374350406 
0.6699999999999425, -0.3131354354301331 
0.6799999999999414, -0.3134563030601001 
0.6899999999999403, -0.3136639186087073 
0.6999999999999392, -0.31375097366117777 
0.7099999999999381, -0.313721059339697 
0.719999999999937, -0.313580688301921 
0.7299999999999359, -0.3133328802557713 
0.7399999999999348, -0.3129726947334062 
0.7499999999999337, -0.3124839679086725 
0.7599999999999326, -0.31183675184811877 
0.7699999999999315, -0.31098623160344224 
0.7799999999999304, -0.30987608435151237 
0.7899999999999293, -0.3084514816596433 
0.7999999999999282, -0.3066856172664586 
0.8099999999999271, -0.30461312290835196 
0.819999999999926, -0.30234690154758787 
0.8299999999999249, -0.3000542076258657 
0.8399999999999238, -0.2978995321970178 
0.8499999999999227, -0.2959937883644065 
0.8599999999999216, -0.29437920832325126 
0.8699999999999205, -0.2930450238975796 
0.8799999999999194, -0.2919527401941052 
0.8899999999999183, -0.2910564022102575 
0.8999999999999172, -0.2903142422809429 
0.9099999999999161, -0.2896936712488476 
0.919999999999915, -0.28917257048420597 
0.9299999999999139, -0.2887391518465753 
0.9399999999999128, -0.28839179683701016 
0.9499999999999117, -0.28813967767065324 
0.9599999999999106, -0.2880045823692017 
0.9699999999999095, -0.2880240131697539 
0.9799999999999084, -0.28825488419384404 
0.9899999999999073, -0.28877517183830737 
0.9999999999999062, -0.2896762805929169 
1.0099999999999052, -0.2910309438686745 
1.019999999999904, -0.29281655384537586 
1.029999999999903, -0.2947994931754973 
1.039999999999902, -0.29648006264920246 
1.0499999999999008, -0.2972801810923414 
1.0599999999998997, -0.29694736458978915 
1.0699999999998986, -0.29574872628295834 
1.0799999999998975, -0.2942102217274044 
1.0899999999998964, -0.29275313990005214 
1.0999999999998953, -0.2915690625175224 
1.1099999999998942, -0.290684021252294 
1.119999999999893, -0.2900523000081948 
1.129999999999892, -0.28961371323552065 
1.1399999999998909, -0.2893168560500645 
1.1499999999998898, -0.2891247499692499 
1.1599999999998887, -0.2890139831119374 
1.1699999999998876, -0.28897246589765135 
1.1799999999998865, -0.28899766552720185 
1.1899999999998854, -0.2890957811407112 
1.1999999999998843, -0.28928173144148783 
1.2099999999998832, -0.2895794472850298 
1.219999999999882, -0.29002151448543867 
1.229999999999881, -0.29064662005794584 
1.2399999999998799, -0.2914926675800759 
1.2499999999998788, -0.29258351128735255 
1.2599999999998777, -0.2939096680851184 
1.2699999999998766, -0.2954099431265531 
1.2799999999998755, -0.2969689920703956 
1.2899999999998744, -0.29844366284944146 
1.2999999999998733, -0.2997097019487551 
1.3099999999998722, -0.30069866058087313 
1.319999999999871, -0.30140264762076574 
1.32999999999987, -0.30185335598311946 
1.3399999999998689, -0.3020962534727275 
1.3499999999998678, -0.3021731973454921 
1.3599999999998666, -0.30211483797798216 
1.3699999999998655, -0.3019390861830844 
1.3799999999998644, -0.30165227023702734 
1.3899999999998633, -0.30125150013512403 
1.3999999999998622, -0.3007283363692614 
1.4099999999998611, -0.30007462066500035 
1.41999999999986, -0.2992907968371751 
1.429999999999859, -0.2983947585356963 
1.4399999999998578, -0.29742624487071345 
1.4499999999998567, -0.2964416986428048 
1.4599999999998556, -0.29550001043765073 
1.4699999999998545, -0.2946466069083083 
1.4799999999998534, -0.29390424446663915 
1.4899999999998523, -0.29327312458749766 
1.4999999999998512, -0.29273730407206955 
1.5099999999998501, -0.29227295077231674 
1.519999999999849, -0.2918553413299664 
1.529999999999848, -0.29146321897813005 
1.5399999999998468, -0.29108042022549174 
1.5499999999998457, -0.29069547304555615 
1.5599999999998446, -0.2903000949185665 
1.5699999999998435, -0.28988723464612887 
1.5799999999998424, -0.28944873496960793 
1.5899999999998413, -0.2889719945929953 
1.5999999999998402, -0.28843411571385913 
1.6099999999998391, -0.2877908572164437 
1.619999999999838, -0.2869569920550744 
1.629999999999837, -0.2857780503829108 
1.6399999999998358, -0.2840100457072367 
1.6499999999998347, -0.28135907815218547 
1.6599999999998336, -0.27764381570990226 
1.6699999999998325, -0.2730229809689825 
1.6799999999998314, -0.2680374518462783 
1.6899999999998303, -0.2633369617983506 
1.6999999999998292, -0.25935582247008304 
1.709999999999828, -0.2562216924553976 
1.719999999999827, -0.2538579123937795 
1.729999999999826, -0.25211223755158485 
1.7399999999998248, -0.2508336948491993 
1.7499999999998237, -0.24990142392407297 
1.7599999999998226, -0.24922875025098984 
1.7699999999998215, -0.2487586395087817 
1.7799999999998204, -0.24845801528130607 
1.7899999999998193, -0.24831361601118784 
1.7999999999998182, -0.2483300967599776 
1.809999999999817, -0.2485304491842571 
1.819999999999816, -0.24895860437007528 
1.8299999999998149, -0.2496837097060535 
1.8399999999998138, -0.2508043720327059 
1.8499999999998127, -0.25244810237905835 
1.8599999999998116, -0.25475522987833454 
1.8699999999998105, -0.2578296202820499 
1.8799999999998094, -0.26164395806355467 
1.8899999999998083, -0.26593325785187655 
1.8999999999998072, -0.2701909322477085 
1.909999999999806, -0.2738654982972111 
1.919999999999805, -0.2766359764793068 
1.9299999999998039, -0.2785057639765179 
1.9399999999998028, -0.2796744967457966 
1.9499999999998017, -0.2803716915613934 
1.9599999999998006, -0.28077401728053564 
1.9699999999997995, -0.280995148512997 
1.9799999999997984, -0.2811023785085421 
1.9899999999997973, -0.28113442807458033 
1.9999999999997962, -0.2811137992627937 
2.0099999999998173, -0.28105433444231126 
2.0199999999998384, -0.280965932742155 
2.0299999999998595, -0.2808579110478822 
2.0399999999998806, -0.2807417554248967 
2.0499999999999017, -0.2806332685921814 
2.059999999999923, -0.2805534704063035 
2.069999999999944, -0.2805273156271303 
2.079999999999965, -0.2805796472892157 
2.089999999999986, -0.28072873977173424 
2.100000000000007, -0.28097892054639956 
2.1100000000000283, -0.28131487781321785 
2.1200000000000494, -0.28170103765856574 
2.1300000000000705, -0.28208841554065706 
2.1400000000000916, -0.2824273434758001 
2.1500000000001127, -0.28267986641511045 
2.160000000000134, -0.28282547139798897 
2.170000000000155, -0.2828588050820765 
2.180000000000176, -0.2827828318983356 
2.190000000000197, -0.2826015750460622 
2.2000000000002182, -0.2823144823191223 
2.2100000000002393, -0.28191247555846466 
2.2200000000002604, -0.28137511735888665 
2.2300000000002815, -0.2806689516683164 
2.2400000000003026, -0.27974866292881256 
2.2500000000003237, -0.2785647856511351 
2.260000000000345, -0.27708225729214 
2.270000000000366, -0.2753086332136493 
2.280000000000387, -0.2733173518941749 
2.290000000000408, -0.2712424600790213 
2.3000000000004293, -0.26923753048137006 
2.3100000000004504, -0.26742430989599736 
2.3200000000004715, -0.26586489638987365 
2.3300000000004926, -0.26456583300091513 
2.3400000000005137, -0.26349889886653277 
2.3500000000005348, -0.2626219689277417 
2.360000000000556, -0.26189285184925126 
2.370000000000577, -0.26127616938148207 
2.380000000000598, -0.26074567512475466 
2.390000000000619, -0.2602842927842634 
2.4000000000006403, -0.25988343803452624 
2.4100000000006614, -0.25954252810263456 
2.4200000000006825, -0.2592690715496602 
2.4300000000007036, -0.25907924184655096 
2.4400000000007247, -0.25899804189481573 
2.450000000000746, -0.25905641131793566 
2.460000000000767, -0.25927896959923646 
2.470000000000788, -0.2596506032240093 
2.480000000000809, -0.26004974264709296 
2.49000000000083, -0.2601660126362776 
2.5000000000008513, -0.2595071101669385 
2.5100000000008724, -0.2576492307665629 
2.5200000000008935, -0.2546321794310738 
2.5300000000009146, -0.25103036275344104 
2.5400000000009357, -0.2475482326482028 
2.550000000000957, -0.2446240930310637 
2.560000000000978, -0.24237191892564797 
2.570000000000999, -0.24071850418279278 
2.58000000000102, -0.2395335923382758 
2.5900000000010412, -0.23869543620553735 
2.6000000000010624, -0.23811107957285244 
2.6100000000010835, -0.23771691918464385 
2.6200000000011046, -0.2374737003239049 
2.6300000000011257, -0.23736158820002223 
2.6400000000011468, -0.23737700866730677 
2.650000000001168, -0.23753151452251947 
2.660000000001189, -0.23785247320223898 
2.67000000000121, -0.23838507506229728 
2.680000000001231, -0.23919450875579282 
2.6900000000012523, -0.24036560609522203 
2.7000000000012734, -0.2419943323669392 
2.7100000000012945, -0.24416191953658398 
2.7200000000013156, -0.2468835771796299 
2.7300000000013367, -0.2500421481683586 
2.740000000001358, -0.2533571581175192 
2.750000000001379, -0.25645555775612316 
2.7600000000014, -0.2590294627205413 
2.770000000001421, -0.26095455024460457 
2.780000000001442, -0.262279343643286 
2.7900000000014633, -0.2631350961012659 
2.8000000000014844, -0.2636573698818422 
2.8100000000015055, -0.2639518336699204 
2.8200000000015266, -0.26409046761525334 
2.8300000000015477, -0.2641189242102847 
2.840000000001569, -0.26406503755075794 
2.85000000000159, -0.2639456095621252 
2.860000000001611, -0.263771558805885 
2.870000000001632, -0.2635521775341351 
2.8800000000016532, -0.2632989320606963 
2.8900000000016743, -0.26302850071594197 
2.9000000000016954, -0.2627639944016605 
2.9100000000017165, -0.2625331935269596 
2.9200000000017377, -0.262363597107402 
2.9300000000017588, -0.26227559997657524 
2.94000000000178, -0.2622760766964121 
2.950000000001801, -0.2623546805885167 
2.960000000001822, -0.26248468031707406 
2.970000000001843, -0.26262896085145304 
2.9800000000018643, -0.2627493861089828 
2.9900000000018854, -0.2628153711102811 
3.0000000000019065, -0.2628078373577015 
3.0100000000019276, -0.2627178055975883 
3.0200000000019487, -0.2625417135355963 
3.03000000000197, -0.2622759964515678 
3.040000000001991, -0.2619122413312255 
3.050000000002012, -0.26143299165254713 
3.060000000002033, -0.26080792710416967 
3.070000000002054, -0.2599908984268645 
3.0800000000020753, -0.2589203493385755 
3.0900000000020964, -0.25752873310046576 
3.1000000000021175, -0.25576767703775266 
3.1100000000021386, -0.2536474764633829 
3.1200000000021597, -0.25126860910177007 
3.130000000002181, -0.24881017436274258 
3.140000000002202, -0.24646847937986616 
3.150000000002223, -0.24438816192182106 
3.160000000002244, -0.24263240861531585 
3.1700000000022652, -0.24119617884156136 
3.1800000000022863, -0.2400366178224287 
3.1900000000023074, -0.23909911317347113 
3.2000000000023285, -0.2383325194447361 
3.2100000000023496, -0.23769563314359754 
3.2200000000023707, -0.23715869612346507 
3.230000000002392, -0.23670278248019488 
3.240000000002413, -0.23631875451846204 
3.250000000002434, -0.23600664469019836 
3.260000000002455, -0.23577576776190984 
3.2700000000024763, -0.23564533799161652 
3.2800000000024974, -0.23564441442478773 
3.2900000000025185, -0.23580782135387662 
3.3000000000025396, -0.23616021696792963 
3.3100000000025607, -0.23667431334845296 
3.3200000000025818, -0.23719161134431324 
3.330000000002603, -0.2373372276871218 
3.340000000002624, -0.23656555324316483 
3.350000000002645, -0.2344875919799753 
3.360000000002666, -0.2312730521135966 
3.3700000000026873, -0.22760190071698636 
3.3800000000027084, -0.2241753100048458 
3.3900000000027295, -0.2213663313184051 
3.4000000000027506, -0.21923290652922128 
3.4100000000027717, -0.21767632364112796 
3.420000000002793, -0.21656199891642247 
3.430000000002814, -0.21577289533181582 
3.440000000002835, -0.21522303703417506 
3.450000000002856, -0.21485556587031268 
3.460000000002877, -0.21463732907324515 
3.4700000000028983, -0.21455438457103287 
3.4800000000029194, -0.21460960880886776 
3.4900000000029405, -0.2148225235169038 
3.5000000000029616, -0.21523111800303335 
3.5100000000029827, -0.21589507303475597 
3.520000000003004, -0.21689876681339854 
3.530000000003025, -0.21834995147809888 
3.540000000003046, -0.22036534153220827 
3.550000000003067, -0.22302944674340308 
3.5600000000030882, -0.22631848425310058 
3.5700000000031094, -0.23001752454548852 
3.5800000000031305, -0.23371828059382865 
3.5900000000031516, -0.23696924478308734 
3.6000000000031727, -0.2394883931828522 
3.6100000000031938, -0.24124683823288104 
3.620000000003215, -0.24238381976974416 
3.630000000003236, -0.2430801188314664 
3.640000000003257, -0.24348590635981368 
3.650000000003278, -0.24370444124025975 
3.6600000000032993, -0.24380059973800594 
3.6700000000033204, -0.24381367856738953 
3.6800000000033415, -0.24376755185892676 
3.6900000000033626, -0.24367762298768056 
3.7000000000033837, -0.24355567055102098 
3.710000000003405, -0.24341358899637583 
3.720000000003426, -0.2432664159239209 
3.730000000003447, -0.24313432229017887 
3.740000000003468, -0.24304272261455218 
3.750000000003489, -0.2430197072140033 
3.7600000000035103, -0.24309070134536181 
3.7700000000035314, -0.243271235824894 
3.7800000000035525, -0.24355965075901453 
3.7900000000035736, -0.2439325836075641 
3.8000000000035947, -0.2443467100492783 
3.810000000003616, -0.24474839090596245 
3.820000000003637, -0.24508789679261994 
3.830000000003658, -0.2453308437945662 
3.840000000003679, -0.2454613711438302 
3.8500000000037002, -0.24547764472090522 
3.8600000000037213, -0.2453841628597611 
3.8700000000037424, -0.24518473949888925 
3.8800000000037635, -0.2448775735353026 
3.8900000000037847, -0.24445220193762393 
3.9000000000038058, -0.2438880261531157 
3.910000000003827, -0.2431550844411854 
3.920000000003848, -0.2422192051555437 
3.930000000003869, -0.24105432741751237 
3.94000000000389, -0.2396619276905064 
3.9500000000039113, -0.23808932359181587 
3.9600000000039324, -0.23643108374821525 
3.9700000000039535, -0.2348045336975519 
3.9800000000039746, -0.23331187748356275 
3.9900000000039957, -0.23201346121046593 
4.000000000004016, -0.23092421398242674 
4.010000000003993, -0.23002636653544406 
4.02000000000397, -0.22928586662018388 
4.030000000003946, -0.22866506316554863 
4.040000000003923, -0.2281300576072051 
4.0500000000039, -0.2276537716347043 
4.0600000000038765, -0.2272162813141128 
4.070000000003853, -0.22680371501315505 
4.08000000000383, -0.2264065515532155 
4.090000000003807, -0.22601760099638266 
4.100000000003783, -0.22562928800568677 
4.11000000000376, -0.22522893573161276 
4.120000000003737, -0.22478930566170424 
4.130000000003713, -0.2242498021604586 
4.14000000000369, -0.22348393738214772 
4.150000000003667, -0.22226004157951262 
4.1600000000036434, -0.22024018205262325 
4.17000000000362, -0.21710889747375445 
4.180000000003597, -0.21285101770467896 
4.1900000000035735, -0.20793066650958938 
4.20000000000355, -0.20307696277398715 
4.210000000003527, -0.19886419339852027 
4.220000000003504, -0.19551525910366088 
4.23000000000348, -0.19298557946928271 
4.240000000003457, -0.19111978459789403 
4.250000000003434, -0.18975347695184136 
4.26000000000341, -0.188753179020005 
4.270000000003387, -0.1880231929571095 
4.280000000003364, -0.1875008218839604 
4.2900000000033405, -0.18714989075861235 
4.300000000003317, -0.18695605902727302 
4.310000000003294, -0.1869248538563951 
4.320000000003271, -0.1870826000936565 
4.330000000003247, -0.1874802391861274 
4.340000000003224, -0.18819960248817336 
4.350000000003201, -0.18935997430494275 
4.360000000003177, -0.19111777775575023 
4.370000000003154, -0.19364142963555106 
4.380000000003131, -0.19702990087417813 
4.390000000003107, -0.20115593721660682 
4.400000000003084, -0.2055164061242556 
4.410000000003061, -0.2093272767796998 
4.4200000000030375, -0.21196596334674175 
4.430000000003014, -0.21335005187442385 
4.440000000002991, -0.21383083384346485 
4.450000000002968, -0.2138347108196838 
4.460000000002944, -0.21365475692170927 
4.470000000002921, -0.21343832020157855 
4.480000000002898, -0.21324315009935874 
4.490000000002874, -0.21308557898622266 
4.500000000002851, -0.21296712554220293 
4.510000000002828, -0.2128865359642323 
4.520000000002804, -0.2128447649227049 
4.530000000002781, -0.21284721744174528 
4.540000000002758, -0.21290525419919315 
4.5500000000027345, -0.21303769637893238 
4.560000000002711, -0.21327232446358604 
4.570000000002688, -0.2136467492404793 
4.580000000002665, -0.2142073150490162 
4.590000000002641, -0.21500379060891336 
4.600000000002618, -0.21607687415233942 
4.610000000002595, -0.2174367047022893 
4.620000000002571, -0.21903699939257687 
4.630000000002548, -0.22076151059414406 
4.640000000002525, -0.22244463960186617 
4.6500000000025015, -0.2239267415027862 
4.660000000002478, -0.22510891335639305 
4.670000000002455, -0.2259694192178665 
4.6800000000024315, -0.2265415468391423 
4.690000000002408, -0.22688027529197638 
4.700000000002385, -0.2270387243176249 
4.710000000002362, -0.2270580229913787 
4.720000000002338, -0.22696576622859244 
4.730000000002315, -0.2267782069277914 
4.740000000002292, -0.22650374662046655 
4.750000000002268, -0.2261471124853463 
4.760000000002245, -0.22571426190330057 
4.770000000002222, -0.22521760562061663 
4.7800000000021985, -0.2246799343143997 
4.790000000002175, -0.22413456823563593 
4.800000000002152, -0.22362027386790317 
4.810000000002129, -0.2231724544217318 
4.820000000002105, -0.2228145069992038 
4.830000000002082, -0.22255277745966925 
4.840000000002059, -0.2223762517266039 
4.850000000002035, -0.22226038970617648 
