t, s[1].omega / s[0].omega 
0, -0.5599977396653475 
0.009999999999999995, -0.5597801530684086 
0.019999999999999934, -0.5595734814762122 
0.029999999999999874, -0.5593628929715754 
0.04000000000000012, -0.5591306040799956 
0.050000000000000405, -0.5588621316786853 
0.06000000000000069, -0.5585499343852733 
0.07000000000000098, -0.5581939167534191 
0.08000000000000126, -0.5578002655582067 
0.09000000000000155, -0.5573805820139872 
0.10000000000000184, -0.556952709049543 
0.11000000000000212, -0.5565440248608738 
0.12000000000000241, -0.5561977422564431 
0.130000000000002, -0.5559827525970562 
0.1400000000000009, -0.5560072439400046 
0.1499999999999998, -0.5564347460199164 
0.1599999999999987, -0.5574967064093805 
0.1699999999999976, -0.5594859443419384 
0.1799999999999965, -0.5627010865540953 
0.1899999999999954, -0.5673088099899111 
0.1999999999999943, -0.5731417169798532 
0.2099999999999932, -0.5795810337487002 
0.2199999999999921, -0.585739111145024 
0.229999999999991, -0.590897027290809 
0.2399999999999899, -0.5947996074409282 
0.2499999999999888, -0.5975767019961014 
0.2599999999999877, -0.5994980767121104 
0.2699999999999866, -0.6008109306550049 
0.2799999999999855, -0.6016948027810347 
0.2899999999999844, -0.6022701611441115 
0.2999999999999833, -0.6026159792343114 
0.3099999999999822, -0.6027827026485288 
0.3199999999999811, -0.602799911587241 
0.32999999999998, -0.6026804426244714 
0.3399999999999789, -0.6024225035345786 
0.3499999999999778, -0.6020111339890798 
0.35999999999997667, -0.6014207345036237 
0.36999999999997557, -0.6006209851731789 
0.37999999999997447, -0.5995881518871319 
0.38999999999997337, -0.5983207305768571 
0.39999999999997227, -0.5968525553041493 
0.40999999999997117, -0.5952531209260723 
0.41999999999997006, -0.5936111001912228 
0.42999999999996896, -0.5920098512142066 
0.43999999999996786, -0.5905093408101779 
0.44999999999996676, -0.5891417389863769 
0.45999999999996566, -0.5879176537727021 
0.46999999999996456, -0.586835999644748 
0.47999999999996346, -0.5858924472152064 
0.48999999999996235, -0.5850847462921229 
0.49999999999996125, -0.5844153166564108 
0.5099999999999602, -0.5838921382598985 
0.519999999999959, -0.5835288246346699 
0.529999999999958, -0.5833444313707288 
0.5399999999999568, -0.583363299246604 
0.5499999999999557, -0.5836150686943988 
0.5599999999999546, -0.5841348258804901 
0.5699999999999535, -0.5849630200465474 
0.5799999999999524, -0.5861442043292773 
0.5899999999999513, -0.5877227465200248 
0.5999999999999502, -0.5897326716370862 
0.6099999999999491, -0.5921787786589527 
0.619999999999948, -0.5950095283211223 
0.6299999999999469, -0.5980915947112126 
0.6399999999999458, -0.601208328471533 
0.6499999999999447, -0.6041033478543567 
0.6599999999999436, -0.6065594289453354 
0.6699999999999425, -0.6084639844112688 
0.6799999999999414, -0.6098183422927711 
0.6899999999999403, -0.6106978093541845 
0.6999999999999392, -0.6112011878669323 
0.7099999999999381, -0.6114168439458213 
0.719999999999937, -0.6114084519230609 
0.7299999999999359, -0.6112122191107673 
0.7399999999999348, -0.6108375598846534 
0.7499999999999337, -0.610266474983843 
0.7599999999999326, -0.6094492995057906 
0.7699999999999315, -0.6082959146643238 
0.7799999999999304, -0.6066636327585264 
0.7899999999999293, -0.6043486529251003 
0.7999999999999282, -0.6011001405636621 
0.8099999999999271, -0.5966893887499731 
0.819999999999926, -0.5910517444847969 
0.8299999999999249, -0.5844382391205195 
0.8399999999999238, -0.5774253267430873 
0.8499999999999227, -0.5707094055629914 
0.8599999999999216, -0.5648345364288814 
0.8699999999999205, -0.5600577273500668 
0.8799999999999194, -0.5563851261642478 
0.8899999999999183, -0.5536798787474605 
0.8999999999999172, -0.5517558246965415 
0.9099999999999161, -0.5504315789754384 
0.919999999999915, -0.5495530773952535 
0.9299999999999139, -0.5489985967143096 
0.9399999999999128, -0.5486761245905949 
0.9499999999999117, -0.5485182916067546 
0.9599999999999106, -0.548477183663367 
0.9699999999999095, -0.5485199326328786 
0.9799999999999084, -0.5486253704543972 
0.9899999999999073, -0.5487817421487008 
0.9999999999999062, -0.5489852116755275 
1.0099999999999052, -0.5492385217479511 
1.019999999999904, -0.5495487665421738 
1.029999999999903, -0.5499231867516094 
1.039999999999902, -0.5503627170710661 
1.0499999999999008, -0.5508548433216339 
1.0599999999998997, -0.5513693617408905 
1.0699999999998986, -0.551861030320075 
1.0799999999998975, -0.5522800301718006 
1.0899999999998964, -0.5525855996782807 
1.0999999999998953, -0.552755208996985 
1.1099999999998942, -0.5527849772808083 
1.119999999999893, -0.5526833224246956 
1.129999999999892, -0.5524628636196487 
1.1399999999998909, -0.552134169584454 
1.1499999999998898, -0.5517022184467553 
1.1599999999998887, -0.5511648265045117 
1.1699999999998876, -0.5505119252239172 
1.1799999999998865, -0.5497245542649345 
1.1899999999998854, -0.548771969611079 
1.1999999999998843, -0.5476037545604702 
1.2099999999998832, -0.5461315901344268 
1.219999999999882, -0.5441968785988507 
1.229999999999881, -0.5415401817814832 
1.2399999999998799, -0.5378405417317371 
1.2499999999998788, -0.5329199251228113 
1.2599999999998777, -0.5270427791942516 
1.2699999999998766, -0.5209606690084306 
1.2799999999998755, -0.5155245871783574 
1.2899999999998744, -0.5112463766546262 
1.2999999999998733, -0.5082000170937695 
1.3099999999998722, -0.5061893222380708 
1.319999999999871, -0.5049389014054352 
1.32999999999987, -0.504200719364254 
1.3399999999998689, -0.5037875179607849 
1.3499999999998678, -0.5035703183722201 
1.3599999999998666, -0.5034648040041327 
1.3699999999998655, -0.5034174742731838 
1.3799999999998644, -0.5033949097506462 
1.3899999999998633, -0.5033765038744018 
1.3999999999998622, -0.5033501725704392 
1.4099999999998611, -0.50331043282426 
1.41999999999986, -0.5032581410152429 
1.429999999999859, -0.5032008182786613 
1.4399999999998578, -0.5031520206485063 
1.4499999999998567, -0.5031282657391656 
1.4599999999998556, -0.5031432091414363 
1.4699999999998545, -0.5032007721917957 
1.4799999999998534, -0.5032904597021157 
1.4899999999998523, -0.5033878804723327 
1.4999999999998512, -0.5034611013703683 
1.5099999999998501, -0.5034799730071595 
1.519999999999849, -0.5034235835789517 
1.529999999999848, -0.503282562572088 
1.5399999999998468, -0.5030566284461866 
1.5499999999998457, -0.5027501378104726 
1.5599999999998446, -0.5023681618186819 
1.5699999999998435, -0.5019141623302579 
1.5799999999998424, -0.5013891958889852 
1.5899999999998413, -0.5007920655205328 
1.5999999999998402, -0.5001194655909422 
1.6099999999998391, -0.4993641253051065 
1.619999999999838, -0.4985063555986583 
1.629999999999837, -0.49749020694345364 
1.6399999999998358, -0.4961750319927412 
1.6499999999998347, -0.49427668083266224 
1.6599999999998336, -0.49138434179481116 
1.6699999999998325, -0.487190563049955 
1.6799999999998314, -0.48187049165469864 
1.6899999999998303, -0.4761728681791856 
1.6999999999998292, -0.4709905029375509 
1.709999999999828, -0.46686912888969057 
1.719999999999827, -0.46390281546672113 
1.729999999999826, -0.46191365512459115 
1.7399999999998248, -0.46064614561694633 
1.7499999999998237, -0.4598707564916582 
1.7599999999998226, -0.4594146927762474 
1.7699999999998215, -0.45915889741939153 
1.7799999999998204, -0.45902532180816086 
1.7899999999998193, -0.4589644005692133 
1.7999999999998182, -0.45894555753033534 
1.809999999999817, -0.4589509165294439 
1.819999999999816, -0.45897167551666185 
1.8299999999998149, -0.4590064774783399 
1.8399999999998138, -0.4590609700811534 
1.8499999999998127, -0.45914741039782275 
1.8599999999998116, -0.4592828560318087 
1.8699999999998105, -0.45948471480985936 
1.8799999999998094, -0.4597636094701203 
1.8899999999998083, -0.46011543803406474 
1.8999999999998072, -0.4605163056973279 
1.909999999999806, -0.46092429494445997 
1.919999999999805, -0.46128930737217333 
1.9299999999998039, -0.46156692070861693 
1.9399999999998028, -0.46172876485630965 
1.9499999999998017, -0.461764477994581 
1.9599999999998006, -0.46167637797954386 
1.9699999999997995, -0.4614714484007442 
1.9799999999997984, -0.4611542382868136 
1.9899999999997973, -0.46072156033768996 
1.9999999999997962, -0.46015793227507584 
2.0099999999998173, -0.4594298368329137 
2.0199999999998384, -0.45847639441246824 
2.0299999999998595, -0.4571937047682203 
2.0399999999998806, -0.4554113856034291 
2.0499999999999017, -0.45286804835372196 
2.059999999999923, -0.44921711132531855 
2.069999999999944, -0.44413068688384694 
2.079999999999965, -0.43754599120599813 
2.089999999999986, -0.4299112776984476 
2.100000000000007, -0.4221141353827414 
2.1100000000000283, -0.41504976514608777 
2.1200000000000494, -0.4092354951428037 
2.1300000000000705, -0.40476240234235383 
2.1400000000000916, -0.4014651349425925 
2.1500000000001127, -0.3990958001623858 
2.160000000000134, -0.39742055781517777 
2.170000000000155, -0.39625316237197644 
2.180000000000176, -0.3954572364535039 
2.190000000000197, -0.39493792243344344 
2.2000000000002182, -0.39463221297999196 
2.2100000000002393, -0.3945011159664536 
2.2200000000002604, -0.3945242652802138 
2.2300000000002815, -0.39469674398226473 
2.2400000000003026, -0.39502765152687996 
2.2500000000003237, -0.39553978685425034 
2.260000000000345, -0.3962694460538678 
2.270000000000366, -0.3972645712603574 
2.280000000000387, -0.39857833164499445 
2.290000000000408, -0.4002542174820197 
2.3000000000004293, -0.40229987823929864 
2.3100000000004504, -0.4046541321087657 
2.3200000000004715, -0.40716631837580997 
2.3300000000004926, -0.40961672161589124 
2.3400000000005137, -0.4117852977848938 
2.3500000000005348, -0.41352836401643867 
2.360000000000556, -0.41480870788068336 
2.370000000000577, -0.4156698580504015 
2.380000000000598, -0.41618931590426156 
2.390000000000619, -0.4164428769409542 
2.4000000000006403, -0.4164878284188795 
2.4100000000006614, -0.4163586443801942 
2.4200000000006825, -0.4160676225416117 
2.4300000000007036, -0.4156062935528556 
2.4400000000007247, -0.4149467143718944 
2.450000000000746, -0.41404441038269824 
2.460000000000767, -0.41284710097462496 
2.470000000000788, -0.41131405041232194 
2.480000000000809, -0.4094457294747942 
2.49000000000083, -0.4073101415217809 
2.5000000000008513, -0.4050418654254508 
2.5100000000008724, -0.4028036897249366 
2.5200000000008935, -0.40073347486572786 
2.5300000000009146, -0.3989110863489468 
2.5400000000009357, -0.3973577826647038 
2.550000000000957, -0.396055331091754 
2.560000000000978, -0.39496776109419296 
2.570000000000999, -0.3940570535793077 
2.58000000000102, -0.3932917346921688 
2.5900000000010412, -0.3926505210269561 
2.6000000000010624, -0.39212352909287185 
2.6100000000010835, -0.3917129753914165 
2.6200000000011046, -0.3914346488974133 
2.6300000000011257, -0.39132103072482116 
2.6400000000011468, -0.39142677536414155 
2.650000000001168, -0.3918371761861698 
2.660000000001189, -0.3926797750726641 
2.67000000000121, -0.39413742533901086 
2.680000000001231, -0.3964557333471275 
2.6900000000012523, -0.39992566789410533 
2.7000000000012734, -0.4048037074859847 
2.7100000000012945, -0.41112988034771314 
2.7200000000013156, -0.41848571026038117 
2.7300000000013367, -0.4259284013049508 
2.740000000001358, -0.4323697052997809 
2.750000000001379, -0.4371789672995467 
2.7600000000014, -0.44039175888517956 
2.770000000001421, -0.4424145743434904 
2.780000000001442, -0.44367259417523286 
2.7900000000014633, -0.44446499012975654 
2.8000000000014844, -0.4449692297064874 
2.8100000000015055, -0.4452840751297661 
2.8200000000015266, -0.44546406855013077 
2.8300000000015477, -0.4455394244204324 
2.840000000001569, -0.4455262198445227 
2.85000000000159, -0.44543163899723937 
2.860000000001611, -0.44525725892319734 
2.870000000001632, -0.445002161763197 
2.8800000000016532, -0.4446668608263196 
2.8900000000016743, -0.44425802558895056 
2.9000000000016954, -0.44379251029529543 
2.9100000000017165, -0.4432979933540272 
2.9200000000017377, -0.4428082531875148 
2.9300000000017588, -0.4423542000738715 
2.94000000000178, -0.4419548667127101 
2.950000000001801, -0.441612727479513 
2.960000000001822, -0.4413150920844265 
2.970000000001843, -0.4410402430592292 
2.9800000000018643, -0.4407651191144474 
2.9900000000018854, -0.4404712556202089 
3.0000000000019065, -0.44014728116750834 
3.0100000000019276, -0.43978841178408234 
3.0200000000019487, -0.4393946063561952 
3.03000000000197, -0.4389689463473407 
3.040000000001991, -0.43851707404399204 
3.050000000002012, -0.43804786995491246 
3.060000000002033, -0.4375750624489645 
3.070000000002054, -0.4371186556116803 
3.0800000000020753, -0.4367029446259757 
3.0900000000020964, -0.43634308565176666 
3.1000000000021175, -0.4360048715491797 
3.1100000000021386, -0.43552282925012137 
3.1200000000021597, -0.4345055778730978 
3.130000000002181, -0.43237549949998166 
3.140000000002202, -0.4287290545641258 
3.150000000002223, -0.42382111299153785 
3.160000000002244, -0.4185431669012396 
3.1700000000022652, -0.4138183620122674 
3.1800000000022863, -0.4101211262669621 
3.1900000000023074, -0.40747925446567335 
3.2000000000023285, -0.40569899310724555 
3.2100000000023496, -0.4045446260642659 
3.2200000000023707, -0.40381749304413966 
3.230000000002392, -0.40337294181235117 
3.240000000002413, -0.40311318192759044 
3.250000000002434, -0.4029750595395548 
3.260000000002455, -0.402919481117385 
3.2700000000024763, -0.4029239467348301 
3.2800000000024974, -0.4029779377218975 
3.2900000000025185, -0.4030805031855066 
3.3000000000025396, -0.40323927767018974 
3.3100000000025607, -0.4034699450328946 
3.3200000000025818, -0.4037948156184067 
3.330000000002603, -0.40423897028115807 
3.340000000002624, -0.4048227826153359 
3.350000000002645, -0.4055510027770482 
3.360000000002666, -0.40640128673708703 
3.3700000000026873, -0.4073184926151689 
3.3800000000027084, -0.4082219753056725 
3.3900000000027295, -0.40902680040547584 
3.4000000000027506, -0.4096684070094082 
3.4100000000027717, -0.4101159710080996 
3.420000000002793, -0.41036902783785356 
3.430000000002814, -0.4104440123674074 
3.440000000002835, -0.41036020400522694 
3.450000000002856, -0.4101297264109197 
3.460000000002877, -0.40975124901591514 
3.4700000000028983, -0.40920504411361236 
3.4800000000029194, -0.4084472496434192 
3.4900000000029405, -0.4074025826423512 
3.5000000000029616, -0.40595788557250356 
3.5100000000029827, -0.40396542898524723 
3.520000000003004, -0.40127393055539873 
3.530000000003025, -0.39780403844489826 
3.540000000003046, -0.39364803999165915 
3.550000000003067, -0.38911048026830397 
3.5600000000030882, -0.38461496705862863 
3.5700000000031094, -0.3805315456837771 
3.5800000000031305, -0.37706306724813177 
3.5900000000031516, -0.3742467783181984 
3.6000000000031727, -0.37201904886877857 
3.6100000000031938, -0.37027921018156645 
3.620000000003215, -0.36892807317451004 
3.630000000003236, -0.3678843137380619 
3.640000000003257, -0.36708845563658155 
3.650000000003278, -0.3665017943805121 
3.6600000000032993, -0.366104256441652 
3.6700000000033204, -0.36589303651149174 
3.6800000000033415, -0.36588281287914654 
3.6900000000033626, -0.36610793807341263 
3.7000000000033837, -0.3666268398563789 
3.710000000003405, -0.3675285652761139 
3.720000000003426, -0.3689403758921622 
3.730000000003447, -0.3710324703943624 
3.740000000003468, -0.3740096240772716 
3.750000000003489, -0.37806937316996947 
3.7600000000035103, -0.3833007947676347 
3.7700000000035314, -0.3895273373248279 
3.7800000000035525, -0.39619488398493774 
3.7900000000035736, -0.40249017884506405 
3.8000000000035947, -0.4077116211755637 
3.810000000003616, -0.41158022748871115 
3.820000000003637, -0.41422013153851356 
3.830000000003658, -0.4159320463928868 
3.840000000003679, -0.41700815831184135 
3.8500000000037002, -0.4176638090952121 
3.8600000000037213, -0.41803873449680723 
3.8700000000037424, -0.41821779320962216 
3.8800000000037635, -0.418249801199051 
3.8900000000037847, -0.4181602550347999 
3.9000000000038058, -0.41795935964825437 
3.910000000003827, -0.4176477342016927 
3.920000000003848, -0.41722191584840534 
3.930000000003869, -0.41668103470399676 
3.94000000000389, -0.4160344096488321 
3.9500000000039113, -0.41530733109679047 
3.9600000000039324, -0.4145407765577239 
3.9700000000039535, -0.4137830113715647 
3.9800000000039746, -0.41307647383250756 
3.9900000000039957, -0.412446868021249 
4.000000000004016, -0.41189939786403207 
4.010000000003993, -0.4114222528796373 
4.02000000000397, -0.4109941891996929 
4.030000000003946, -0.4105924530511838 
4.040000000003923, -0.4101983723953956 
4.0500000000039, -0.40979974081425796 
4.0600000000038765, -0.4093907512231052 
4.070000000003853, -0.4089709652865037 
4.08000000000383, -0.408544612308091 
4.090000000003807, -0.4081209510260918 
4.100000000003783, -0.40771592861458295 
4.11000000000376, -0.40735487191314085 
4.120000000003737, -0.40707484874308025 
4.130000000003713, -0.4069223955472503 
4.14000000000369, -0.4069357489369182 
4.150000000003667, -0.40709116467650325 
4.1600000000036434, -0.4071957067332068 
4.17000000000362, -0.406772794041804 
4.180000000003597, -0.4051383248517043 
4.1900000000035735, -0.4018644979783235 
4.20000000000355, -0.3972960402268833 
4.210000000003527, -0.39240323587136283 
4.220000000003504, -0.38808698843222605 
4.23000000000348, -0.38475414654750517 
4.240000000003457, -0.38239164724836583 
4.250000000003434, -0.3808031697318528 
4.26000000000341, -0.3797703673195493 
4.270000000003387, -0.37911588051315087 
4.280000000003364, -0.3787132124992699 
4.2900000000033405, -0.37847809964710116 
4.300000000003317, -0.37835702303883484 
4.310000000003294, -0.378317898723445 
4.320000000003271, -0.37834379968442594 
4.330000000003247, -0.37842930143723397 
4.340000000003224, -0.37857876256151507 
4.350000000003201, -0.3788057156863535 
4.360000000003177, -0.3791322658522943 
4.370000000003154, -0.379587004818093 
4.380000000003131, -0.3801997283713727 
4.390000000003107, -0.3809916516808459 
4.400000000003084, -0.3819615501253558 
4.410000000003061, -0.38307205611595774 
4.4200000000030375, -0.38424515750537463 
4.430000000003014, -0.38537603858255837 
4.440000000002991, -0.3863634433724904 
4.450000000002968, -0.38713943201818113 
4.460000000002944, -0.3876803471127538 
4.470000000002921, -0.38799699492426837 
4.480000000002898, -0.38811597396752906 
4.490000000002874, -0.3880635698214637 
4.500000000002851, -0.38785589236051854 
4.510000000002828, -0.387493550500605 
4.520000000002804, -0.3869580080670378 
4.530000000002781, -0.38620789977621905 
4.540000000002758, -0.3851758486086632 
4.5500000000027345, -0.3837700316273478 
4.560000000002711, -0.3818897597471818 
4.570000000002688, -0.37946571843900007 
4.580000000002665, -0.3765208653780521 
4.590000000002641, -0.37321381477627436 
4.600000000002618, -0.36981166507005947 
4.610000000002595, -0.36659245432955384 
4.620000000002571, -0.36374937041463634 
4.630000000002548, -0.3613592134767657 
4.640000000002525, -0.35940903566190313 
4.6500000000025015, -0.3578402817785537 
4.660000000002478, -0.356583029973273 
4.670000000002455, -0.3555746216790809 
4.6800000000024315, -0.3547670302402957 
4.690000000002408, -0.3541284408812817 
4.700000000002385, -0.35364283251567624 
4.710000000002362, -0.35330971654462057 
4.720000000002338, -0.35314521209610306 
4.730000000002315, -0.35318521522933183 
4.740000000002292, -0.353491308036743 
4.750000000002268, -0.35415992725198436 
4.760000000002245, -0.35533455717081375 
4.770000000002222, -0.35721795034003356 
4.7800000000021985, -0.36007385642858325 
4.790000000002175, -0.36419220102761407 
4.800000000002152, -0.3697732227065347 
4.810000000002129, -0.3767043172038288 
4.820000000002105, -0.3843384750305237 
4.830000000002082, -0.3915827186766928 
4.840000000002059, -0.39744581582900584 
4.850000000002035, -0.40157003594089213 
4.860000000002012, -0.404204463214327 
4.870000000001989, -0.40581466378693126 
4.880000000001965, -0.4067957866697808 
