t, s[1].omega / s[0].omega 
0, -0.6399977131689053 
0.009999999999999995, -0.6397612735223215 
0.019999999999999934, -0.6395068477449735 
0.029999999999999874, -0.6392280287550868 
0.04000000000000012, -0.6389180477281842 
0.050000000000000405, -0.6385731316014418 
0.06000000000000069, -0.6381943418457985 
0.07000000000000098, -0.6377878925122057 
0.08000000000000126, -0.637364966058817 
0.09000000000000155, -0.6369421286459744 
0.10000000000000184, -0.6365429862508143 
0.11000000000000212, -0.6362012340811097 
0.12000000000000241, -0.6359648925443709 
0.130000000000002, -0.6359011667540714 
0.1400000000000009, -0.6361008057317783 
0.1499999999999998, -0.6366798737470513 
0.1599999999999987, -0.6377753343336552 
0.1699999999999976, -0.6395289537558346 
0.1799999999999965, -0.6420531011369884 
0.1899999999999954, -0.6453760632073356 
0.1999999999999943, -0.6493797787061418 
0.2099999999999932, -0.6537687802118992 
0.2199999999999921, -0.6581198897741718 
0.229999999999991, -0.6620168698113877 
0.2399999999999899, -0.665191323776213 
0.2499999999999888, -0.6675739784920647 
0.2599999999999877, -0.6692448889402863 
0.2699999999999866, -0.670347759329238 
0.2799999999999855, -0.6710261912369166 
0.2899999999999844, -0.6713950506168651 
0.2999999999999833, -0.6715349167751399 
0.3099999999999822, -0.6714958147353016 
0.3199999999999811, -0.6713023065699669 
0.32999999999998, -0.6709567599776622 
0.3399999999999789, -0.6704399925310792 
0.3499999999999778, -0.6697096636866159 
0.35999999999997667, -0.6686980379807694 
0.36999999999997557, -0.6673130520356885 
0.37999999999997447, -0.6654499670765314 
0.38999999999997337, -0.6630221491679007 
0.39999999999997227, -0.6600110965541192 
0.40999999999997117, -0.6565137555773075 
0.41999999999997006, -0.6527477046033637 
0.42999999999996896, -0.6489950835848408 
0.43999999999996786, -0.6455165531372226 
0.44999999999996676, -0.6424887369186318 
0.45999999999996566, -0.639989552307404 
0.46999999999996456, -0.6380181715288897 
0.47999999999996346, -0.636525441083304 
0.48999999999996235, -0.6354397183039717 
0.49999999999996125, -0.6346839988568371 
0.5099999999999602, -0.63418563768316 
0.519999999999959, -0.6338811063294625 
0.529999999999958, -0.6337177193573559 
0.5399999999999568, -0.6336535750944957 
0.5499999999999557, -0.6336565170187238 
0.5599999999999546, -0.6337026974332305 
0.5699999999999535, -0.6337751766886558 
0.5799999999999524, -0.6338628001138183 
0.5899999999999513, -0.6339592927692175 
0.5999999999999502, -0.6340621412290048 
0.6099999999999491, -0.6341706359391255 
0.619999999999948, -0.6342828079636792 
0.6299999999999469, -0.6343920156519217 
0.6399999999999458, -0.6344849864479427 
0.6499999999999447, -0.6345430511673706 
0.6599999999999436, -0.6345465953688113 
0.6699999999999425, -0.6344805014271815 
0.6799999999999414, -0.6343376446201697 
0.6899999999999403, -0.6341191003390326 
0.6999999999999392, -0.6338320284177636 
0.7099999999999381, -0.6334872599032929 
0.719999999999937, -0.6330981886138464 
0.7299999999999359, -0.6326817035319471 
0.7399999999999348, -0.6322613832208019 
0.7499999999999337, -0.6318730536129353 
0.7599999999999326, -0.6315727064591143 
0.7699999999999315, -0.6314461717094825 
0.7799999999999304, -0.6316182091000511 
0.7899999999999293, -0.6322551840027827 
0.7999999999999282, -0.6335503332579894 
0.8099999999999271, -0.6356771256745435 
0.819999999999926, -0.638704520886112 
0.8299999999999249, -0.6425014893108865 
0.8399999999999238, -0.6467059619075002 
0.8499999999999227, -0.6508278566605685 
0.8599999999999216, -0.6544441835368484 
0.8699999999999205, -0.6573389094257565 
0.8799999999999194, -0.6595012065779977 
0.8899999999999183, -0.6610365743027244 
0.8999999999999172, -0.6620817925078761 
0.9099999999999161, -0.6627596281599845 
0.919999999999915, -0.6631646545499856 
0.9299999999999139, -0.6633634283889798 
0.9399999999999128, -0.6633987326745389 
0.9499999999999117, -0.6632936103532803 
0.9599999999999106, -0.6630539022517661 
0.9699999999999095, -0.6626692399787616 
0.9799999999999084, -0.6621131750876843 
0.9899999999999073, -0.6613440595471323 
0.9999999999999062, -0.6603096055474651 
1.0099999999999052, -0.6589588865585901 
1.019999999999904, -0.6572634293713104 
1.029999999999903, -0.6552416605688205 
1.039999999999902, -0.6529719991849497 
1.0499999999999008, -0.6505811068251772 
1.0599999999998997, -0.6482105314238948 
1.0699999999998986, -0.6459815084425296 
1.0799999999998975, -0.6439757283867289 
1.0899999999998964, -0.6422347232725605 
1.0999999999998953, -0.6407696807505875 
1.1099999999998942, -0.6395729466909004 
1.119999999999893, -0.6386268050520283 
1.129999999999892, -0.6379088495253615 
1.1399999999998909, -0.6373948962169559 
1.1499999999998898, -0.6370605857940578 
1.1599999999998887, -0.6368824593522044 
1.1699999999998876, -0.6368388671334357 
1.1799999999998865, -0.636910774262514 
1.1899999999998854, -0.6370823854330592 
1.1999999999998843, -0.6373414592532517 
1.2099999999998832, -0.6376791298669235 
1.219999999999882, -0.6380889403881136 
1.229999999999881, -0.6385646892575279 
1.2399999999998799, -0.6390968594999018 
1.2499999999998788, -0.639668178215128 
1.2599999999998777, -0.6402502040053336 
1.2699999999998766, -0.6408038114010526 
1.2799999999998755, -0.6412853905212859 
1.2899999999998744, -0.6416570071225987 
1.2999999999998733, -0.641895285660589 
1.3099999999998722, -0.6419942325908563 
1.319999999999871, -0.6419615672430082 
1.32999999999987, -0.6418119897859552 
1.3399999999998689, -0.6415611743866437 
1.3499999999998678, -0.6412223397935534 
1.3599999999998666, -0.6408055055113249 
1.3699999999998655, -0.6403189675881865 
1.3799999999998644, -0.6397727573196647 
1.3899999999998633, -0.6391842178244941 
1.3999999999998622, -0.6385857567745321 
1.4099999999998611, -0.6380336137615427 
1.41999999999986, -0.6376133023316229 
1.429999999999859, -0.6374324505753164 
1.4399999999998578, -0.6375896479368641 
1.4499999999998567, -0.6381203000535582 
1.4599999999998556, -0.6389537386931062 
1.4699999999998545, -0.6399357433983636 
1.4799999999998534, -0.6409164844266794 
1.4899999999998523, -0.6418190239089123 
1.4999999999998512, -0.6426286875221552 
1.5099999999998501, -0.6433461340661619 
1.519999999999849, -0.6439638677660083 
1.529999999999848, -0.6444701500326625 
1.5399999999998468, -0.6448580938956726 
1.5499999999998457, -0.6451285359924652 
1.5599999999998446, -0.6452875547587089 
1.5699999999998435, -0.6453423220981228 
1.5799999999998424, -0.6452974332641005 
1.5899999999998413, -0.645152272974286 
1.5999999999998402, -0.6448993797001482 
1.6099999999998391, -0.6445239320376733 
1.619999999999838, -0.6440050308192177 
1.629999999999837, -0.6433199406117821 
1.6399999999998358, -0.642452086995623 
1.6499999999998347, -0.6414014722656305 
1.6599999999998336, -0.6401927629709037 
1.6699999999998325, -0.6388749671323946 
1.6799999999998314, -0.6375108404563512 
1.6899999999998303, -0.6361614759460681 
1.6999999999998292, -0.6348745229191481 
1.709999999999828, -0.6336804861380619 
1.719999999999827, -0.632595686034594 
1.729999999999826, -0.6316278664215764 
1.7399999999998248, -0.6307812803450619 
1.7499999999998237, -0.6300599836810247 
1.7599999999998226, -0.6294693890561709 
1.7699999999998215, -0.6290166218957804 
1.7799999999998204, -0.6287102305728909 
1.7899999999998193, -0.6285596691323171 
1.7999999999998182, -0.6285748303482539 
1.809999999999817, -0.6287657598680056 
1.819999999999816, -0.6291424912342036 
1.8299999999998149, -0.6297146823191259 
1.8399999999998138, -0.630490416236546 
1.8499999999998127, -0.6314732422226544 
1.8599999999998116, -0.6326565468517069 
1.8699999999998105, -0.6340152202519844 
1.8799999999998094, -0.6354969225367131 
1.8899999999998083, -0.6370186250050411 
1.8999999999998072, -0.6384754244891497 
1.909999999999806, -0.6397632990624815 
1.919999999999805, -0.6408062979090964 
1.9299999999998039, -0.6415724854653805 
1.9399999999998028, -0.6420707485734467 
1.9499999999998017, -0.6423344880871074 
1.9599999999998006, -0.6424038230496965 
1.9699999999997995, -0.6423134260211574 
1.9799999999997984, -0.6420866633832267 
1.9899999999997973, -0.6417336210813666 
1.9999999999997962, -0.6412504827410317 
2.0099999999998173, -0.6406186160122066 
2.0199999999998384, -0.6398025147684575 
2.0299999999998595, -0.6387463021468962 
2.0399999999998806, -0.6373692704446909 
2.0499999999999017, -0.6355630105837851 
2.059999999999923, -0.6331978640596487 
2.069999999999944, -0.6301546804051542 
2.079999999999965, -0.6263981744786369 
2.089999999999986, -0.6220741339888518 
2.100000000000007, -0.6175473273636766 
2.1100000000000283, -0.6132971404229368 
2.1200000000000494, -0.6097209626665658 
2.1300000000000705, -0.6070002707445256 
2.1400000000000916, -0.6051057348642779 
2.1500000000001127, -0.6038857903746452 
2.160000000000134, -0.6031556488147903 
2.170000000000155, -0.6027499226120615 
2.180000000000176, -0.602541525327817 
2.190000000000197, -0.6024413130729644 
2.2000000000002182, -0.6023901809688301 
2.2100000000002393, -0.6023499795726849 
2.2200000000002604, -0.6022958654276308 
2.2300000000002815, -0.6022108173348907 
2.2400000000003026, -0.6020823486774807 
2.2500000000003237, -0.6019012751030607 
2.260000000000345, -0.6016622641688854 
2.270000000000366, -0.6013654698385485 
2.280000000000387, -0.6010178725654327 
2.290000000000408, -0.600632637965107 
2.3000000000004293, -0.6002257118051599 
2.3100000000004504, -0.5998108348996943 
2.3200000000004715, -0.5993956001426104 
2.3300000000004926, -0.5989806462644097 
2.3400000000005137, -0.5985620290805179 
2.3500000000005348, -0.59813502145953 
2.360000000000556, -0.5976973461869408 
2.370000000000577, -0.5972509319873215 
2.380000000000598, -0.5968025542955917 
2.390000000000619, -0.5963643046465023 
2.4000000000006403, -0.5959547061959858 
2.4100000000006614, -0.5956008979234293 
2.4200000000006825, -0.5953419624865155 
2.4300000000007036, -0.595233193684911 
2.4400000000007247, -0.5953507284694528 
2.450000000000746, -0.595795264420693 
2.460000000000767, -0.5966922546010288 
2.470000000000788, -0.5981838083025195 
2.480000000000809, -0.6004050425089592 
2.49000000000083, -0.6034376885652939 
2.5000000000008513, -0.6072432798722365 
2.5100000000008724, -0.6116038817437885 
2.5200000000008935, -0.6161269515918931 
2.5300000000009146, -0.6203543732739673 
2.5400000000009357, -0.6239279589516918 
2.550000000000957, -0.6266942695921857 
2.560000000000978, -0.6286880474832204 
2.570000000000999, -0.630044337746302 
2.58000000000102, -0.6309173394385723 
2.5900000000010412, -0.6314378972077875 
2.6000000000010624, -0.6317017405473544 
2.6100000000010835, -0.6317719307945017 
2.6200000000011046, -0.6316847681148958 
2.6300000000011257, -0.6314546181307812 
2.6400000000011468, -0.6310764582226428 
2.650000000001168, -0.6305264299116085 
2.660000000001189, -0.629761711162951 
2.67000000000121, -0.6287224754241598 
2.680000000001231, -0.627340562092429 
2.6900000000012523, -0.6255597841165956 
2.7000000000012734, -0.623367306412804 
2.7100000000012945, -0.6208226598841575 
2.7200000000013156, -0.6180614565344136 
2.7300000000013367, -0.6152627169679765 
2.740000000001358, -0.6125974155926699 
2.750000000001379, -0.6101893795436977 
2.7600000000014, -0.6081041266007257 
2.770000000001421, -0.6063591108012105 
2.780000000001442, -0.6049411814004393 
2.7900000000014633, -0.6038217117586832 
2.8000000000014844, -0.6029664786540178 
2.8100000000015055, -0.6023410428521383 
2.8200000000015266, -0.6019133210504158 
2.8300000000015477, -0.6016547312155166 
2.840000000001569, -0.6015407251827638 
2.85000000000159, -0.6015510786624032 
2.860000000001611, -0.6016700516135755 
2.870000000001632, -0.6018863992892735 
2.8800000000016532, -0.6021931105312246 
2.8900000000016743, -0.6025865978802367 
2.9000000000016954, -0.6030648724427491 
2.9100000000017165, -0.603624186354961 
2.9200000000017377, -0.6042540813546775 
2.9300000000017588, -0.6049320383067689 
2.94000000000178, -0.6056206059020058 
2.950000000001801, -0.6062704458963915 
2.960000000001822, -0.6068302581075583 
2.970000000001843, -0.6072595785763224 
2.9800000000018643, -0.6075374387072852 
2.9900000000018854, -0.607662628224938 
3.0000000000019065, -0.6076472149528954 
3.0100000000019276, -0.6075081880389381 
3.0200000000019487, -0.6072609581178494 
3.03000000000197, -0.6069157730032348 
3.040000000001991, -0.6064764286572158 
3.050000000002012, -0.6059403149221306 
3.060000000002033, -0.6052991190307717 
3.070000000002054, -0.6045397696983338 
3.0800000000020753, -0.6036450669302054 
3.0900000000020964, -0.602592755715458 
3.1000000000021175, -0.6013511253662707 
3.1100000000021386, -0.5998712891434714 
3.1200000000021597, -0.598086215609496 
3.130000000002181, -0.5959415497500984 
3.140000000002202, -0.5934718140877691 
3.150000000002223, -0.5908669786791002 
3.160000000002244, -0.5884299749560402 
3.1700000000022652, -0.5864298074761685 
3.1800000000022863, -0.5849844388182437 
3.1900000000023074, -0.5840584531103744 
3.2000000000023285, -0.583533040374553 
3.2100000000023496, -0.5832747103213299 
3.2200000000023707, -0.583172037166723 
3.230000000002392, -0.5831452777333599 
3.240000000002413, -0.583142375531527 
3.250000000002434, -0.5831309528545807 
3.260000000002455, -0.5830907800189606 
3.2700000000024763, -0.5830081565797535 
3.2800000000024974, -0.582872392520854 
3.2900000000025185, -0.5826742937788096 
3.3000000000025396, -0.5824065692183853 
3.3100000000025607, -0.5820658940630421 
3.3200000000025818, -0.5816557029301216 
3.330000000002603, -0.5811878966472231 
3.340000000002624, -0.5806815293827173 
3.350000000002645, -0.5801580921129192 
3.360000000002666, -0.5796354657366447 
3.3700000000026873, -0.5791237660751454 
3.3800000000027084, -0.5786250006863023 
3.3900000000027295, -0.5781359909220103 
3.4000000000027506, -0.5776524524209993 
3.4100000000027717, -0.5771723040009933 
3.420000000002793, -0.5766975188517337 
3.430000000002814, -0.5762349796782417 
3.440000000002835, -0.5757972233888882 
3.450000000002856, -0.5754037910468277 
3.460000000002877, -0.5750835459764367 
3.4700000000028983, -0.5748780252078901 
3.4800000000029194, -0.5748456288100531 
3.4900000000029405, -0.5750660539924366 
3.5000000000029616, -0.5756435782385165 
3.5100000000029827, -0.5767062503181132 
3.520000000003004, -0.5783955615891245 
3.530000000003025, -0.5808385645485351 
3.540000000003046, -0.5840955346094983 
3.550000000003067, -0.5880894367576335 
3.5600000000030882, -0.5925538779894691 
3.5700000000031094, -0.5970615588204474 
3.5800000000031305, -0.6011593972839349 
3.5900000000031516, -0.6045347520877957 
3.6000000000031727, -0.6070913833064998 
3.6100000000031938, -0.6089036861992458 
3.620000000003215, -0.6101212649956851 
3.630000000003236, -0.6108960780900059 
3.640000000003257, -0.6113501559059279 
3.650000000003278, -0.6115698746146413 
3.6600000000032993, -0.6116106274862417 
3.6700000000033204, -0.61150303551808 
3.6800000000033415, -0.6112574824524449 
3.6900000000033626, -0.6108664558431918 
3.7000000000033837, -0.6103053846195653 
3.710000000003405, -0.609533655979696 
3.720000000003426, -0.6084988286186196 
3.730000000003447, -0.6071481405365488 
3.740000000003468, -0.6054497898866475 
3.750000000003489, -0.6034191380713836 
3.7600000000035103, -0.6011345778817506 
3.7700000000035314, -0.5987269768998419 
3.7800000000035525, -0.5963439925662326 
3.7900000000035736, -0.5941107304635879 
3.8000000000035947, -0.5921080583936406 
3.810000000003616, -0.5903725972917034 
3.820000000003637, -0.5889089613519176 
3.830000000003658, -0.5877037757518939 
3.840000000003679, -0.5867361555320506 
3.8500000000037002, -0.5859838295898493 
3.8600000000037213, -0.5854260559840054 
3.8700000000037424, -0.5850447317481665 
3.8800000000037635, -0.5848247202042548 
3.8900000000037847, -0.5847539704042204 
3.9000000000038058, -0.5848236658344224 
3.910000000003827, -0.5850284149662681 
3.920000000003848, -0.5853663279345718 
3.930000000003869, -0.585838644431538 
3.94000000000389, -0.5864483527465383 
3.9500000000039113, -0.5871970473319644 
3.9600000000039324, -0.5880794121675408 
3.9700000000039535, -0.5890757075166131 
3.9800000000039746, -0.5901448027767291 
3.9900000000039957, -0.5912227371424891 
4.000000000004016, -0.5922315930358774 
4.010000000003993, -0.5930978762316083 
4.02000000000397, -0.593771481128149 
4.030000000003946, -0.5942343727571519 
4.040000000003923, -0.5944957691376099 
4.0500000000039, -0.5945796820261081 
4.0600000000038765, -0.5945126607325224 
4.070000000003853, -0.5943156902124767 
4.08000000000383, -0.5940001026356013 
4.090000000003807, -0.5935656746330352 
4.100000000003783, -0.5929991226787188 
4.11000000000376, -0.5922717260751807 
4.120000000003737, -0.5913352367935734 
4.130000000003713, -0.5901157481733594 
4.14000000000369, -0.5885067687457495 
4.150000000003667, -0.5863674815885437 
4.1600000000036434, -0.5835418328242429 
4.17000000000362, -0.5799217416043325 
4.180000000003597, -0.575555936781017 
4.1900000000035735, -0.5707351304721012 
4.20000000000355, -0.5659413140687486 
4.210000000003527, -0.5616555995039634 
4.220000000003504, -0.5581751998462209 
4.23000000000348, -0.5555667451923723 
4.240000000003457, -0.5537343310420996 
4.250000000003434, -0.5525133771144446 
4.26000000000341, -0.5517362275982128 
4.270000000003387, -0.5512624625810545 
4.280000000003364, -0.5509860902540464 
4.2900000000033405, -0.5508319494588736 
4.300000000003317, -0.5507487727224373 
4.310000000003294, -0.5507023736750198 
4.320000000003271, -0.5506702217992601 
4.330000000003247, -0.5506376932018654 
4.340000000003224, -0.5505959161777657 
4.350000000003201, -0.5505409320144169 
4.360000000003177, -0.5504736104495856 
4.370000000003154, -0.5503993781563468 
4.380000000003131, -0.5503266591332069 
4.390000000003107, -0.5502634821028891 
4.400000000003084, -0.550213045517837 
4.410000000003061, -0.5501703283757219 
4.4200000000030375, -0.5501219036633181 
4.430000000003014, -0.5500495136483646 
4.440000000002991, -0.549935657525772 
4.450000000002968, -0.5497682470877295 
4.460000000002944, -0.5495423456348797 
4.470000000002921, -0.5492591467149284 
4.480000000002898, -0.5489237884399039 
4.490000000002874, -0.5485436137876167 
4.500000000002851, -0.548127767233728 
4.510000000002828, -0.5476884180975754 
4.520000000002804, -0.5472436764151754 
4.530000000002781, -0.5468221864950147 
4.540000000002758, -0.5464689883354693 
4.5500000000027345, -0.5462508785046901 
4.560000000002711, -0.5462564212211956 
4.570000000002688, -0.5465811275277419 
4.580000000002665, -0.547286673023119 
4.590000000002641, -0.5483374218749598 
4.600000000002618, -0.5495584735379638 
4.610000000002595, -0.5506889571142214 
4.620000000002571, -0.5515315543439063 
4.630000000002548, -0.5520615349358875 
4.640000000002525, -0.5523850574965382 
4.6500000000025015, -0.552621606154846 
4.660000000002478, -0.5528362913501778 
4.670000000002455, -0.5530422569007298 
4.6800000000024315, -0.5532279964070165 
4.690000000002408, -0.553377820707057 
4.700000000002385, -0.5534800481566717 
4.710000000002362, -0.5535277374354484 
4.720000000002338, -0.553516680713951 
4.730000000002315, -0.5534431177313627 
4.740000000002292, -0.5533021335811242 
4.750000000002268, -0.5530871427306511 
4.760000000002245, -0.5527907848877518 
4.770000000002222, -0.5524074709478911 
4.7800000000021985, -0.5519372641781899 
4.790000000002175, -0.5513896280268085 
4.800000000002152, -0.5507845613707607 
4.810000000002129, -0.5501492606659774 
4.820000000002105, -0.5495111492408526 
4.830000000002082, -0.5488908201442784 
4.840000000002059, -0.5482984925326384 
4.850000000002035, -0.5477350478610473 
4.860000000002012, -0.5471960517266806 
4.870000000001989, -0.5466762588425523 
4.880000000001965, -0.5461729058961037 
4.890000000001942, -0.5456874891232001 
4.900000000001919, -0.5452266802719294 
4.9100000000018955, -0.5448032591313542 
4.920000000001872, -0.5444377154381713 
