t, s[1].omega / s[0].omega 
0, -0.5099977544718717 
0.009999999999999995, -0.5097911194945333 
0.019999999999999934, -0.5096127436372067 
0.029999999999999874, -0.5094439280236197 
0.04000000000000012, -0.5092614905271167 
0.050000000000000405, -0.5090452191001835 
0.06000000000000069, -0.508782442466033 
0.07000000000000098, -0.5084687359422949 
0.08000000000000126, -0.5081061758122505 
0.09000000000000155, -0.5077013291437901 
0.10000000000000184, -0.5072645707573274 
0.11000000000000212, -0.5068115075365194 
0.12000000000000241, -0.50636691241541 
0.130000000000002, -0.505971512586565 
0.1400000000000009, -0.5056916202325492 
0.1499999999999998, -0.5056297446802852 
0.1599999999999987, -0.5059288221289111 
0.1699999999999976, -0.5067511956370662 
0.1799999999999965, -0.5082004603788774 
0.1899999999999954, -0.5101707381766699 
0.1999999999999943, -0.5122138762745259 
0.2099999999999932, -0.5136618463422619 
0.2199999999999921, -0.5140838734518856 
0.229999999999991, -0.513626266463923 
0.2399999999999899, -0.5128033041284579 
0.2499999999999888, -0.5120571869650385 
0.2599999999999877, -0.5115707430945753 
0.2699999999999866, -0.5113362562324223 
0.2799999999999855, -0.5112743348209071 
0.2899999999999844, -0.5113038889087738 
0.2999999999999833, -0.5113651257420362 
0.3099999999999822, -0.511419868329898 
0.3199999999999811, -0.5114451876780034 
0.32999999999998, -0.5114270048744054 
0.3399999999999789, -0.5113555933147496 
0.3499999999999778, -0.5112232831792998 
0.35999999999997667, -0.5110243404418869 
0.36999999999997557, -0.5107568583814934 
0.37999999999997447, -0.5104259228118054 
0.38999999999997337, -0.5100462137409262 
0.39999999999997227, -0.5096414731488186 
0.40999999999997117, -0.5092393430194554 
0.41999999999997006, -0.5088630491051014 
0.42999999999996896, -0.5085239589310181 
0.43999999999996786, -0.5082188112486873 
0.44999999999996676, -0.5079326994849535 
0.45999999999996566, -0.5076458285100331 
0.46999999999996456, -0.5073404934909921 
0.47999999999996346, -0.5070054061913983 
0.48999999999996235, -0.5066367146427841 
0.49999999999996125, -0.5062370495432714 
0.5099999999999602, -0.505814519087652 
0.519999999999959, -0.505383096761575 
0.529999999999958, -0.504965240702422 
0.5399999999999568, -0.5045973402010627 
0.5499999999999557, -0.504338575755651 
0.5599999999999546, -0.5042834105112275 
0.5699999999999535, -0.5045759759051546 
0.5799999999999524, -0.5054187197015484 
0.5899999999999513, -0.5070548863781358 
0.5999999999999502, -0.5096876445973516 
0.6099999999999491, -0.5133072040990794 
0.619999999999948, -0.5174978076322235 
0.6299999999999469, -0.5214723873942496 
0.6399999999999458, -0.5245040999811746 
0.6499999999999447, -0.5263913573993412 
0.6599999999999436, -0.5274287810914063 
0.6699999999999425, -0.5280244111820055 
0.6799999999999414, -0.5284436784548916 
0.6899999999999403, -0.5287932225367769 
0.6999999999999392, -0.5290942007501658 
0.7099999999999381, -0.5293398916905189 
0.719999999999937, -0.5295209421720953 
0.7299999999999359, -0.5296315700384508 
0.7399999999999348, -0.5296685893460097 
0.7499999999999337, -0.5296289682311521 
0.7599999999999326, -0.5295079983715022 
0.7699999999999315, -0.5292988300899572 
0.7799999999999304, -0.5289938672077019 
0.7899999999999293, -0.5285883365783464 
0.7999999999999282, -0.5280854964161026 
0.8099999999999271, -0.527501258323419 
0.819999999999926, -0.5268647045480016 
0.8299999999999249, -0.5262122902803801 
0.8399999999999238, -0.5255776536881702 
0.8499999999999227, -0.5249823863373873 
0.8599999999999216, -0.5244324016049535 
0.8699999999999205, -0.523920695900145 
0.8799999999999194, -0.5234338836879646 
0.8899999999999183, -0.5229589032671287 
0.8999999999999172, -0.5224874925581304 
0.9099999999999161, -0.5220180918470879 
0.919999999999915, -0.5215563437493433 
0.9299999999999139, -0.521115750608971 
0.9399999999999128, -0.5207197097610403 
0.9499999999999117, -0.5204057319301687 
0.9599999999999106, -0.5202324578694836 
0.9699999999999095, -0.5202899974030298 
0.9799999999999084, -0.5207136594958188 
0.9899999999999073, -0.5216993783051623 
0.9999999999999062, -0.5235142691574624 
1.0099999999999052, -0.526485256914706 
1.019999999999904, -0.5309330028828152 
1.029999999999903, -0.5370138246089344 
1.039999999999902, -0.5444882207318231 
1.0499999999999008, -0.552586292474191 
1.0599999999998997, -0.5602253900374191 
1.0699999999998986, -0.5665364358914515 
1.0799999999998975, -0.5712247139535854 
1.0899999999998964, -0.5744761225701775 
1.0999999999998953, -0.5766529417324813 
1.1099999999998942, -0.5780861975876959 
1.119999999999893, -0.5790146100105963 
1.129999999999892, -0.5795946801630854 
1.1399999999998909, -0.5799249914656913 
1.1499999999998898, -0.58006537277413 
1.1599999999998887, -0.5800487872332836 
1.1699999999998876, -0.5798879663005216 
1.1799999999998865, -0.5795789954305685 
1.1899999999998854, -0.5791039063542966 
1.1999999999998843, -0.578434659926408 
1.2099999999998832, -0.5775412755681915 
1.219999999999882, -0.576405730358041 
1.229999999999881, -0.5750387769480502 
1.2399999999998799, -0.5734904174059918 
1.2499999999998788, -0.5718438388746939 
1.2599999999998777, -0.5701929516674017 
1.2699999999998766, -0.5686168040932476 
1.2799999999998755, -0.5671652118740558 
1.2899999999998744, -0.5658591950644627 
1.2999999999998733, -0.5647003132770679 
1.3099999999998722, -0.563681485373431 
1.319999999999871, -0.5627951523276511 
1.32999999999987, -0.5620380021787978 
1.3399999999998689, -0.5614131571760962 
1.3499999999998678, -0.5609310138419719 
1.3599999999998666, -0.560609603686428 
1.3699999999998655, -0.560474951006758 
1.3799999999998644, -0.5605616416820732 
1.3899999999998633, -0.5609136481290486 
1.3999999999998622, -0.5615852387828164 
1.4099999999998611, -0.5626413441457531 
1.41999999999986, -0.5641558371259934 
1.429999999999859, -0.5662046724227269 
1.4399999999998578, -0.5688490827267227 
1.4499999999998567, -0.5721039808676835 
1.4599999999998556, -0.575893079630181 
1.4699999999998545, -0.5800099666858629 
1.4799999999998534, -0.5841254111388942 
1.4899999999998523, -0.5878714456333506 
1.4999999999998512, -0.590969053225393 
1.5099999999998501, -0.5933100494781917 
1.519999999999849, -0.5949422040658777 
1.529999999999848, -0.5959947356446065 
1.5399999999998468, -0.5966083284370225 
1.5499999999998457, -0.5968978929764851 
1.5599999999998446, -0.5969420167979095 
1.5699999999998435, -0.5967844889455158 
1.5799999999998424, -0.5964378553749295 
1.5899999999998413, -0.5958843718435096 
1.5999999999998402, -0.5950727989797342 
1.6099999999998391, -0.5939114381631978 
1.619999999999838, -0.5922610021071281 
1.629999999999837, -0.5899378025377345 
1.6399999999998358, -0.586747527407808 
1.6499999999998347, -0.5825694756132638 
1.6599999999998336, -0.5774737594471608 
1.6699999999998325, -0.571785420246396 
1.6799999999998314, -0.5660049775368907 
1.6899999999998303, -0.560620111219553 
1.6999999999998292, -0.5559518499601928 
1.709999999999828, -0.5521211019447099 
1.719999999999827, -0.5491025220054457 
1.729999999999826, -0.5467964740327 
1.7399999999998248, -0.5450813063158381 
1.7499999999998237, -0.5438410498985722 
1.7599999999998226, -0.5429763394422211 
1.7699999999998215, -0.542406660200476 
1.7799999999998204, -0.5420690301580398 
1.7899999999998193, -0.5419156697773287 
1.7999999999998182, -0.541911729969472 
1.809999999999817, -0.5420334461647425 
1.819999999999816, -0.5422667808966262 
1.8299999999998149, -0.5426064242310761 
1.8399999999998138, -0.5430547548374582 
1.8499999999998127, -0.5436199602254668 
1.8599999999998116, -0.5443121262486956 
1.8699999999998105, -0.5451362008862596 
1.8799999999998094, -0.5460820039140413 
1.8899999999998083, -0.5471142828381231 
1.8999999999998072, -0.5481691285443837 
1.909999999999806, -0.5491631903577396 
1.919999999999805, -0.5500152032633017 
1.9299999999998039, -0.5506687789230049 
1.9399999999998028, -0.5511028163808682 
1.9499999999998017, -0.5513257645707144 
1.9599999999998006, -0.5513611839464285 
1.9699999999997995, -0.5512338987403786 
1.9799999999997984, -0.5509609059809049 
1.9899999999997973, -0.5505463754771441 
1.9999999999997962, -0.5499782377993598 
2.0099999999998173, -0.5492238102033803 
2.0199999999998384, -0.5482220790977379 
2.0299999999998595, -0.5468701105461096 
2.0399999999998806, -0.5450015716203666 
2.0499999999999017, -0.5423606370703484 
2.059999999999923, -0.5385940253322671 
2.069999999999944, -0.5333225743893709 
2.079999999999965, -0.5263648306400636 
2.089999999999986, -0.5180431971611159 
2.100000000000007, -0.5092518108343302 
2.1100000000000283, -0.5010718382328672 
2.1200000000000494, -0.49425729468649654 
2.1300000000000705, -0.48904386783487713 
2.1400000000000916, -0.4852904931483911 
2.1500000000001127, -0.4827005764706035 
2.160000000000134, -0.48096898513821645 
2.170000000000155, -0.47984314453999477 
2.180000000000176, -0.4791343319155003 
2.190000000000197, -0.4787091571929677 
2.2000000000002182, -0.47847651734559865 
2.2100000000002393, -0.47837586193963244 
2.2200000000002604, -0.47836828898568234 
2.2300000000002815, -0.47843042346754583 
2.2400000000003026, -0.47855059543444234 
2.2500000000003237, -0.47872670989330224 
2.260000000000345, -0.4789650109275758 
2.270000000000366, -0.47927859346759083 
2.280000000000387, -0.4796842117207203 
2.290000000000408, -0.4801961513826985 
2.3000000000004293, -0.4808171733658145 
2.3100000000004504, -0.48152891853265034 
2.3200000000004715, -0.482286876154787 
2.3300000000004926, -0.4830255736897243 
2.3400000000005137, -0.48367490556446163 
2.3500000000005348, -0.48417994609862547 
2.360000000000556, -0.4845127258780382 
2.370000000000577, -0.4846707479559885 
2.380000000000598, -0.4846665684219856 
2.390000000000619, -0.4845159800511163 
2.4000000000006403, -0.4842290923401458 
2.4100000000006614, -0.483804416376875 
2.4200000000006825, -0.4832239272890181 
2.4300000000007036, -0.48244654830741884 
2.4400000000007247, -0.48139743708159577 
2.450000000000746, -0.4799507885414152 
2.460000000000767, -0.47790678787769 
2.470000000000788, -0.47497492884574594 
2.480000000000809, -0.47080327105120273 
2.49000000000083, -0.4651191629077741 
2.5000000000008513, -0.45798762911073065 
2.5100000000008724, -0.44999185542398773 
2.5200000000008935, -0.44205983192038534 
2.5300000000009146, -0.4350183710137691 
2.5400000000009357, -0.42928667946510146 
2.550000000000957, -0.42489247440669436 
2.560000000000978, -0.42164884339570297 
2.570000000000999, -0.41930942467818727 
2.58000000000102, -0.41764898383070587 
2.5900000000010412, -0.41648948255286805 
2.6000000000010624, -0.41570028435383516 
2.6100000000010835, -0.4151899225746341 
2.6200000000011046, -0.4148970981523211 
2.6300000000011257, -0.4147834689127429 
2.6400000000011468, -0.4148286983767546 
2.650000000001168, -0.41502753350546745 
2.660000000001189, -0.4153884691978691 
2.67000000000121, -0.4159333743417216 
2.680000000001231, -0.41669704351435694 
2.6900000000012523, -0.41772485623846584 
2.7000000000012734, -0.41906563473877395 
2.7100000000012945, -0.4207560581667386 
2.7200000000013156, -0.42279468735035913 
2.7300000000013367, -0.42511133280078395 
2.740000000001358, -0.4275513889696255 
2.750000000001379, -0.42990106531066774 
2.7600000000014, -0.43195541168594376 
2.770000000001421, -0.4335876200871116 
2.780000000001442, -0.4347713651419305 
2.7900000000014633, -0.43555290964033216 
2.8000000000014844, -0.4360068937205107 
2.8100000000015055, -0.4362039032865305 
2.8200000000015266, -0.43619542730632344 
2.8300000000015477, -0.4360097920544014 
2.840000000001569, -0.4356520762190253 
2.85000000000159, -0.43510420213804596 
2.860000000001611, -0.43432453254554104 
2.870000000001632, -0.43324928165645604 
2.8800000000016532, -0.4318014716298298 
2.8900000000016743, -0.4299152539709847 
2.9000000000016954, -0.427577550401801 
2.9100000000017165, -0.4248692307795193 
2.9200000000017377, -0.42196900054836306 
2.9300000000017588, -0.41910053559918714 
2.94000000000178, -0.41645493230984254 
2.950000000001801, -0.41414229333939606 
2.960000000001822, -0.4121915235721163 
2.970000000001843, -0.4105782138501299 
2.9800000000018643, -0.4092549241254235 
2.9900000000018854, -0.4081719304204266 
3.0000000000019065, -0.407287901782183 
3.0100000000019276, -0.4065740071109776 
3.0200000000019487, -0.4060149115457715 
3.03000000000197, -0.40560901019350004 
3.040000000001991, -0.4053692789537123 
3.050000000002012, -0.405325555754677 
3.060000000002033, -0.4055288207916335 
3.070000000002054, -0.4060579133302166 
3.0800000000020753, -0.4070287445880825 
3.0900000000020964, -0.40860471656038727 
3.1000000000021175, -0.41100327766331973 
3.1100000000021386, -0.41448509168593983 
3.1200000000021597, -0.4192987007674335 
3.130000000002181, -0.42554699489250314 
3.140000000002202, -0.4329847180491841 
3.150000000002223, -0.4408900601429715 
3.160000000002244, -0.44825000820296595 
3.1700000000022652, -0.4542478615941201 
3.1800000000022863, -0.45861761845227605 
3.1900000000023074, -0.461564438067957 
3.2000000000023285, -0.46346719549933246 
3.2100000000023496, -0.4646681971086005 
3.2200000000023707, -0.465409757542976 
3.230000000002392, -0.4658455494121198 
3.240000000002413, -0.46606790755703464 
3.250000000002434, -0.46612976220221203 
3.260000000002455, -0.46605852815197474 
3.2700000000024763, -0.4658643490958224 
3.2800000000024974, -0.46554554348921595 
3.2900000000025185, -0.4650937291161317 
3.3000000000025396, -0.4645005727901251 
3.3100000000025607, -0.4637667466915169 
3.3200000000025818, -0.46291082862303873 
3.330000000002603, -0.46197287834774314 
3.340000000002624, -0.4610080855618537 
3.350000000002645, -0.4600720533852171 
3.360000000002666, -0.45920574938523373 
3.3700000000026873, -0.45842793293042783 
3.3800000000027084, -0.4577368665783782 
3.3900000000027295, -0.4571178700413313 
3.4000000000027506, -0.45655202714130916 
3.4100000000027717, -0.45602284349716216 
3.420000000002793, -0.4555198573088336 
3.430000000002814, -0.4550399340540684 
3.440000000002835, -0.45458773022305216 
3.450000000002856, -0.45417673919471013 
3.460000000002877, -0.45383196758989613 
3.4700000000028983, -0.4535950543541614 
3.4800000000029194, -0.4535325925237541 
3.4900000000029405, -0.45374821283950606 
3.5000000000029616, -0.45439775785308856 
3.5100000000029827, -0.4557026567005346 
3.520000000003004, -0.4579459496270098 
3.530000000003025, -0.4614161995264217 
3.540000000003046, -0.4662513238724145 
3.550000000003067, -0.4721884181644328 
3.5600000000030882, -0.4784160576526818 
3.5700000000031094, -0.48386010849916594 
3.5800000000031305, -0.4878274017238513 
3.5900000000031516, -0.4903342496135329 
3.6000000000031727, -0.4918206173228404 
3.6100000000031938, -0.49272841780458043 
3.620000000003215, -0.49333147450696 
3.630000000003236, -0.49376114035483265 
3.640000000003257, -0.49407268591519393 
3.650000000003278, -0.4942893145570273 
3.6600000000032993, -0.49442206572386194 
3.6700000000033204, -0.4944767188592124 
3.6800000000033415, -0.4944555137428311 
3.6900000000033626, -0.494357447939828 
3.7000000000033837, -0.4941788315055625 
3.710000000003405, -0.49391500895939533 
3.720000000003426, -0.49356373483431637 
3.730000000003447, -0.49312984286605477 
3.740000000003468, -0.4926293458873349 
3.750000000003489, -0.49208990748533943 
3.7600000000035103, -0.49154561139505165 
3.7700000000035314, -0.4910274921581215 
3.7800000000035525, -0.4905545333066611 
3.7900000000035736, -0.4901296408908671 
3.8000000000035947, -0.4897419070682578 
3.810000000003616, -0.4893731468630003 
3.820000000003637, -0.48900516316035647 
3.830000000003658, -0.4886248071254993 
3.840000000003679, -0.48822589966950075 
3.8500000000037002, -0.48780900183001996 
3.8600000000037213, -0.4873807823895321 
3.8700000000037424, -0.4869544513973181 
3.8800000000037635, -0.486552192890328 
3.8900000000037847, -0.48621025703288 
3.9000000000038058, -0.48598732690087687 
3.910000000003827, -0.4859764561878291 
3.920000000003848, -0.48631915836904405 
3.930000000003869, -0.4872148614391367 
3.94000000000389, -0.48890672453366973 
3.9500000000039113, -0.4916070391708969 
3.9600000000039324, -0.49532756608022777 
3.9700000000039535, -0.49967067411256333 
3.9800000000039746, -0.5038261987263468 
3.9900000000039957, -0.5069938433475635 
4.000000000004016, -0.5089101063136539 
4.010000000003993, -0.5098760995573612 
4.02000000000397, -0.5103522105502258 
4.030000000003946, -0.5106516782077881 
4.040000000003923, -0.5109046980031391 
4.0500000000039, -0.5111374767052836 
4.0600000000038765, -0.5113399906512077 
4.070000000003853, -0.5114975750361824 
4.08000000000383, -0.5115998304114278 
4.090000000003807, -0.5116404511191851 
4.100000000003783, -0.511614845661015 
4.11000000000376, -0.511518146195903 
4.120000000003737, -0.5113445051475032 
4.130000000003713, -0.5110881245668477 
4.14000000000369, -0.5107462176852644 
4.150000000003667, -0.5103233436754072 
4.1600000000036434, -0.5098351377371737 
4.17000000000362, -0.5093084123624865 
4.180000000003597, -0.5087757489885022 
4.1900000000035735, -0.5082662260663235 
4.20000000000355, -0.5077969542372542 
4.210000000003527, -0.5073696790368564 
4.220000000003504, -0.5069734752921675 
4.23000000000348, -0.5065913212624038 
4.240000000003457, -0.5062070112395606 
4.250000000003434, -0.5058097125876309 
4.26000000000341, -0.5053955568343499 
4.270000000003387, -0.5049674377422755 
4.280000000003364, -0.5045347556676332 
4.2900000000033405, -0.5041144929912857 
4.300000000003317, -0.5037345145611989 
4.310000000003294, -0.5034397871985907 
4.320000000003271, -0.5033022042896227 
4.330000000003247, -0.5034343606073228 
4.340000000003224, -0.5040058214630256 
4.350000000003201, -0.5052549292507368 
4.360000000003177, -0.5074768028464565 
4.370000000003154, -0.5109498292279072 
4.380000000003131, -0.515761846980715 
4.390000000003107, -0.521578005557496 
4.400000000003084, -0.5275766085783906 
4.410000000003061, -0.5328013649590682 
4.4200000000030375, -0.536713466468665 
4.430000000003014, -0.5393648092521471 
4.440000000002991, -0.5411088904434402 
4.450000000002968, -0.5422841797559534 
4.460000000002944, -0.5431059950221268 
4.470000000002921, -0.5436899557987811 
4.480000000002898, -0.5440971022161896 
4.490000000002874, -0.544362386919459 
4.500000000002851, -0.5445073897922972 
4.510000000002828, -0.5445448590955351 
4.520000000002804, -0.5444800443969546 
4.530000000002781, -0.5443112095736482 
4.540000000002758, -0.5440306132071402 
4.5500000000027345, -0.5436270404831945 
4.560000000002711, -0.5430908197410651 
4.570000000002688, -0.5424212247449625 
4.580000000002665, -0.5416337955371595 
4.590000000002641, -0.5407628267889046 
4.600000000002618, -0.5398553560242627 
4.610000000002595, -0.5389584716445576 
4.620000000002571, -0.5381069190991336 
4.630000000002548, -0.5373173774685024 
4.640000000002525, -0.5365905946843625 
4.6500000000025015, -0.535918168746272 
4.660000000002478, -0.5352898455951686 
4.670000000002455, -0.5346987947537398 
4.6800000000024315, -0.5341444628480921 
4.690000000002408, -0.5336339904370984 
4.700000000002385, -0.533183507315748 
4.710000000002362, -0.5328203132149212 
4.720000000002338, -0.532586537710541 
4.730000000002315, -0.5325445963869038 
4.740000000002292, -0.5327845446484829 
4.750000000002268, -0.5334329733193727 
4.760000000002245, -0.5346618191643628 
4.770000000002222, -0.5366923762247372 
4.7800000000021985, -0.5397835915308926 
4.790000000002175, -0.5441846655815183 
4.800000000002152, -0.5500282617104759 
4.810000000002129, -0.5571679015667288 
4.820000000002105, -0.5650489806801748 
4.830000000002082, -0.5727872188760165 
4.840000000002059, -0.579516843651359 
4.850000000002035, -0.5847607273183956 
4.860000000002012, -0.5885104535099902 
4.870000000001989, -0.5910368210852062 
4.880000000001965, -0.5926706861833286 
4.890000000001942, -0.593687851758645 
4.900000000001919, -0.5942832052211424 
