t, s[1].omega / s[0].omega 
0, -0.70999768789722 
0.009999999999999995, -0.709750678023864 
0.019999999999999934, -0.7094697675200505 
0.029999999999999874, -0.7091489043817529 
0.04000000000000012, -0.708782733796802 
0.050000000000000405, -0.7083705594700602 
0.06000000000000069, -0.7079184678277484 
0.07000000000000098, -0.7074398450532968 
0.08000000000000126, -0.7069556280646871 
0.09000000000000155, -0.7064954279290714 
0.10000000000000184, -0.7060997868445852 
0.11000000000000212, -0.7058229795935168 
0.12000000000000241, -0.7057352178795193 
0.130000000000002, -0.7059229080946632 
0.1400000000000009, -0.7064857599212818 
0.1499999999999998, -0.7075299155272294 
0.1599999999999987, -0.7091564754917176 
0.1699999999999976, -0.7114444443548209 
0.1799999999999965, -0.7144265990355589 
0.1899999999999954, -0.718058213661643 
0.1999999999999943, -0.7221855550772494 
0.2099999999999932, -0.7265343772075048 
0.2199999999999921, -0.7307468570518585 
0.229999999999991, -0.7344748006142068 
0.2399999999999899, -0.7374862497937242 
0.2499999999999888, -0.7397163709471115 
0.2599999999999877, -0.7412374435505727 
0.2699999999999866, -0.7421872162700885 
0.2799999999999855, -0.742707049702821 
0.2899999999999844, -0.7429100836885706 
0.2999999999999833, -0.7428729070169966 
0.3099999999999822, -0.7426378927683838 
0.3199999999999811, -0.7422174409182223 
0.32999999999998, -0.7415961477539992 
0.3399999999999789, -0.7407296540580732 
0.3499999999999778, -0.7395402282440858 
0.35999999999997667, -0.737910262644364 
0.36999999999997557, -0.7356771606930644 
0.37999999999997447, -0.7326384534128352 
0.38999999999997337, -0.7285862668989057 
0.39999999999997227, -0.7234002030800839 
0.40999999999997117, -0.7172063287547216 
0.41999999999997006, -0.7105126319540964 
0.42999999999996896, -0.7041322750239967 
0.43999999999996786, -0.6988420747993487 
0.44999999999996676, -0.6950384841627159 
0.45999999999996566, -0.6926700517150384 
0.46999999999996456, -0.6914129094645474 
0.47999999999996346, -0.6908826367377258 
0.48999999999996235, -0.6907591038813448 
0.49999999999996125, -0.6908217461842473 
0.5099999999999602, -0.6909366980056626 
0.519999999999959, -0.6910297472469609 
0.529999999999958, -0.6910614681994008 
0.5399999999999568, -0.691009166247091 
0.5499999999999557, -0.690855242872045 
0.5599999999999546, -0.6905804942603405 
0.5699999999999535, -0.6901614900035813 
0.5799999999999524, -0.6895722382235328 
0.5899999999999513, -0.6887907264880755 
0.5999999999999502, -0.6878094114655209 
0.6099999999999491, -0.6866451781219809 
0.619999999999948, -0.6853417652331866 
0.6299999999999469, -0.6839608480142665 
0.6399999999999458, -0.6825661011606613 
0.6499999999999447, -0.6812095593416878 
0.6599999999999436, -0.6799264163134178 
0.6699999999999425, -0.6787376312000458 
0.6799999999999414, -0.6776559731854348 
0.6899999999999403, -0.6766916286269634 
0.6999999999999392, -0.6758556478851352 
0.7099999999999381, -0.6751611646829943 
0.719999999999937, -0.6746229915998156 
0.7299999999999359, -0.6742562878339619 
0.7399999999999348, -0.6740749340661171 
0.7499999999999337, -0.6740901701265882 
0.7599999999999326, -0.6743098998197451 
0.7699999999999315, -0.6747387815261577 
0.7799999999999304, -0.6753788211434248 
0.7899999999999293, -0.6762297424270955 
0.7999999999999282, -0.6772880263792824 
0.8099999999999271, -0.6785433649031333 
0.819999999999926, -0.6799717925106316 
0.8299999999999249, -0.6815266313841365 
0.8399999999999238, -0.6831318250524743 
0.8499999999999227, -0.6846852367504345 
0.8599999999999216, -0.6860771206063382 
0.8699999999999205, -0.6872184889356606 
0.8799999999999194, -0.688063449953437 
0.8899999999999183, -0.6886122599267785 
0.8999999999999172, -0.68889673211957 
0.9099999999999161, -0.6889602624497403 
0.919999999999915, -0.6888427158489281 
0.9299999999999139, -0.6885729428050761 
0.9399999999999128, -0.6881670194757603 
0.9499999999999117, -0.6876297054413489 
0.9599999999999106, -0.6869579150750343 
0.9699999999999095, -0.6861465030792798 
0.9799999999999084, -0.6851976307502444 
0.9899999999999073, -0.6841346146629614 
0.9999999999999062, -0.683017773437918 
1.0099999999999052, -0.681951608953144 
1.019999999999904, -0.6810635408446555 
1.029999999999903, -0.6804439635959464 
1.039999999999902, -0.6800882703463575 
1.0499999999999008, -0.6799244671953419 
1.0599999999998997, -0.6799197771424699 
1.0699999999998986, -0.6801176742395576 
1.0799999999998975, -0.6805511502166907 
1.0899999999998964, -0.6811694703458829 
1.0999999999998953, -0.6818619100643977 
1.1099999999998942, -0.6825197718713335 
1.119999999999893, -0.6830719146375495 
1.129999999999892, -0.683486548436512 
1.1399999999998909, -0.6837576938082841 
1.1499999999998898, -0.6838905699177794 
1.1599999999998887, -0.6838909419739322 
1.1699999999998876, -0.6837584140124029 
1.1799999999998865, -0.6834823728818734 
1.1899999999998854, -0.6830398489095473 
1.1999999999998843, -0.6823958867640284 
1.2099999999998832, -0.6815084920438824 
1.219999999999882, -0.6803406032731096 
1.229999999999881, -0.6788786361728223 
1.2399999999998799, -0.6771502810057437 
1.2499999999998788, -0.6752289770110843 
1.2599999999998777, -0.6732181447874829 
1.2699999999998766, -0.6712233322755027 
1.2799999999998755, -0.6693289981592815 
1.2899999999998744, -0.6675899387912924 
1.2999999999998733, -0.666035327888495 
1.3099999999998722, -0.6646778063867781 
1.319999999999871, -0.6635216656888605 
1.32999999999987, -0.6625678323309538 
1.3399999999998689, -0.6618158502758177 
1.3499999999998678, -0.661263980432228 
1.3599999999998666, -0.6609085681057673 
1.3699999999998655, -0.6607435330205985 
1.3799999999998644, -0.6607604590519027 
1.3899999999998633, -0.6609493845107675 
1.3999999999998622, -0.6613000691801918 
1.4099999999998611, -0.661803273035347 
1.41999999999986, -0.66245140469776 
1.429999999999859, -0.663237744424403 
1.4399999999998578, -0.6641533940433471 
1.4499999999998567, -0.6651815169185002 
1.4599999999998556, -0.6662898727994728 
1.4699999999998545, -0.6674252059275602 
1.4799999999998534, -0.6685150731319539 
1.4899999999998523, -0.6694807253826849 
1.4999999999998512, -0.6702571625360473 
1.5099999999998501, -0.6708092160457678 
1.519999999999849, -0.671134384585 
1.529999999999848, -0.671253222189798 
1.5399999999998468, -0.6711954849513725 
1.5499999999998457, -0.6709893000452067 
1.5599999999998446, -0.6706557607302082 
1.5699999999998435, -0.6702081070527758 
1.5799999999998424, -0.6696541733172297 
1.5899999999998413, -0.6690017498041178 
1.5999999999998402, -0.6682676535140863 
1.6099999999998391, -0.6674917546374186 
1.619999999999838, -0.666755667954009 
1.629999999999837, -0.6661999697234886 
1.6399999999998358, -0.6660219036654722 
1.6499999999998347, -0.6664243774794948 
1.6599999999998336, -0.6675045798384003 
1.6699999999998325, -0.6691470022797806 
1.6799999999998314, -0.6710537469157682 
1.6899999999998303, -0.6729306742867682 
1.6999999999998292, -0.6746325400758243 
1.709999999999828, -0.6761329486946296 
1.719999999999827, -0.6774305546683279 
1.729999999999826, -0.678513952649229 
1.7399999999998248, -0.6793738864793047 
1.7499999999998237, -0.6800155123294244 
1.7599999999998226, -0.6804570648161782 
1.7699999999998215, -0.68072184150928 
1.7799999999998204, -0.6808304141332958 
1.7899999999998193, -0.6807952570692692 
1.7999999999998182, -0.6806173727306853 
1.809999999999817, -0.6802840843060822 
1.819999999999816, -0.679767929353921 
1.8299999999998149, -0.6790279766315608 
1.8399999999998138, -0.67801638780925 
1.8499999999998127, -0.6766931246955445 
1.8599999999998116, -0.6750476998108736 
1.8699999999998105, -0.6731184867259573 
1.8799999999998094, -0.670994919985404 
1.8899999999998083, -0.6687964730733638 
1.8999999999998072, -0.6666401738839112 
1.909999999999806, -0.6646159941852392 
1.919999999999805, -0.6627795649048541 
1.9299999999998039, -0.661158182569745 
1.9399999999998028, -0.6597612741836223 
1.9499999999998017, -0.6585891953559193 
1.9599999999998006, -0.6576383913610859 
1.9699999999997995, -0.6569034482168095 
1.9799999999997984, -0.6563773458016361 
1.9899999999997973, -0.6560511216086545 
1.9999999999997962, -0.6559137557494218 
2.0099999999998173, -0.6559526498033186 
2.0199999999998384, -0.6561546892625375 
2.0299999999998595, -0.6565075986282074 
2.0399999999998806, -0.6570011212648217 
2.0499999999999017, -0.6576274253026516 
2.059999999999923, -0.6583799981196232 
2.069999999999944, -0.6592502543263852 
2.079999999999965, -0.6602215584681229 
2.089999999999986, -0.6612619042049802 
2.100000000000007, -0.6623190036446281 
2.1100000000000283, -0.6633231519159046 
2.1200000000000494, -0.6642006097427589 
2.1300000000000705, -0.6648927186832196 
2.1400000000000916, -0.6653698718162477 
2.1500000000001127, -0.6656325654839679 
2.160000000000134, -0.6657014866607722 
2.170000000000155, -0.6656046069142725 
2.180000000000176, -0.6653676091243137 
2.190000000000197, -0.6650094411582808 
2.2000000000002182, -0.6645421041588462 
2.2100000000002393, -0.6639735810843735 
2.2200000000002604, -0.6633137929355237 
2.2300000000002815, -0.6625844911317376 
2.2400000000003026, -0.6618341549117436 
2.2500000000003237, -0.6611567980654842 
2.260000000000345, -0.6607066745984467 
2.270000000000366, -0.6606882063752023 
2.280000000000387, -0.6612918312619758 
2.290000000000408, -0.6625738257239958 
2.3000000000004293, -0.6643640876634146 
2.3100000000004504, -0.6663346305283262 
2.3200000000004715, -0.6682052235718433 
2.3300000000004926, -0.6698639629340699 
2.3400000000005137, -0.6713077424659881 
2.3500000000005348, -0.672545418181789 
2.360000000000556, -0.6735708501946982 
2.370000000000577, -0.6743786187373215 
2.380000000000598, -0.6749760518189475 
2.390000000000619, -0.6753816562185266 
2.4000000000006403, -0.6756175929726229 
2.4100000000006614, -0.6757025600372739 
2.4200000000006825, -0.6756469042037861 
2.4300000000007036, -0.6754495187031888 
2.4400000000007247, -0.6750958512079505 
2.450000000000746, -0.6745571822104813 
2.460000000000767, -0.6737927231623566 
2.470000000000788, -0.6727573811652137 
2.480000000000809, -0.671417498138111 
2.49000000000083, -0.6697720516893838 
2.5000000000008513, -0.6678686665859573 
2.5100000000008724, -0.66580099628586 
2.5200000000008935, -0.6636850085970869 
2.5300000000009146, -0.6616281937264241 
2.5400000000009357, -0.6597092858092358 
2.550000000000957, -0.6579746344184038 
2.560000000000978, -0.6564456606571337 
2.570000000000999, -0.6551290717522154 
2.58000000000102, -0.6540247778116346 
2.5900000000010412, -0.6531302301309282 
2.6000000000010624, -0.65244192477272 
2.6100000000010835, -0.6519553440145495 
2.6200000000011046, -0.6516644369725888 
2.6300000000011257, -0.6515613660162474 
2.6400000000011468, -0.6516368534549408 
2.650000000001168, -0.6518811125503323 
2.660000000001189, -0.6522850685700539 
2.67000000000121, -0.6528413683250468 
2.680000000001231, -0.6535444966183859 
2.6900000000012523, -0.6543891484503707 
2.7000000000012734, -0.6553660215461863 
2.7100000000012945, -0.6564548848730729 
2.7200000000013156, -0.6576167055538111 
2.7300000000013367, -0.6587894541995417 
2.740000000001358, -0.6598934965156709 
2.750000000001379, -0.6608484746169545 
2.7600000000014, -0.6615946363660501 
2.770000000001421, -0.6621060891379985 
2.780000000001442, -0.6623890389418906 
2.7900000000014633, -0.6624692071367362 
2.8000000000014844, -0.6623776594609 
2.8100000000015055, -0.6621411100790925 
2.8200000000015266, -0.6617777000919003 
2.8300000000015477, -0.6612967958888908 
2.840000000001569, -0.6607014525665938 
2.85000000000159, -0.6599932773328818 
2.860000000001611, -0.6591804046806689 
2.870000000001632, -0.65828935128879 
2.8800000000016532, -0.6573793122364365 
2.8900000000016743, -0.6565510176022352 
2.9000000000016954, -0.6559321786626799 
2.9100000000017165, -0.6556206017823699 
2.9200000000017377, -0.6556035268464191 
2.9300000000017588, -0.6557430199240591 
2.94000000000178, -0.6558972628685411 
2.950000000001801, -0.6560579121736954 
2.960000000001822, -0.6563194339723789 
2.970000000001843, -0.6567411001541059 
2.9800000000018643, -0.6572871842420185 
2.9900000000018854, -0.6578693442537934 
3.0000000000019065, -0.6584046754385927 
3.0100000000019276, -0.6588414596992627 
3.0200000000019487, -0.6591575627506108 
3.03000000000197, -0.6593488552567167 
3.040000000001991, -0.6594179281886453 
3.050000000002012, -0.6593660689662214 
3.060000000002033, -0.659188224484877 
3.070000000002054, -0.6588701764741018 
3.0800000000020753, -0.6583879017623439 
3.0900000000020964, -0.6577102467902921 
3.1000000000021175, -0.656806730456612 
3.1100000000021386, -0.6556609632168285 
3.1200000000021597, -0.6542856690479901 
3.130000000002181, -0.6527301874729594 
3.140000000002202, -0.6510726263713142 
3.150000000002223, -0.6493992017101955 
3.160000000002244, -0.6477831090064552 
3.1700000000022652, -0.6462738019660655 
3.1800000000022863, -0.6448981029304016 
3.1900000000023074, -0.6436677287244383 
3.2000000000023285, -0.6425874043022727 
3.2100000000023496, -0.6416605610436129 
3.2200000000023707, -0.6408921661795738 
3.230000000002392, -0.6402894064652532 
3.240000000002413, -0.6398611471317364 
3.250000000002434, -0.6396169212881486 
3.260000000002455, -0.6395659976003716 
3.2700000000024763, -0.6397168774549009 
3.2800000000024974, -0.6400773396950232 
3.2900000000025185, -0.6406548462989322 
3.3000000000025396, -0.6414567434448964 
3.3100000000025607, -0.6424892631410472 
3.3200000000025818, -0.6437539651491642 
3.330000000002603, -0.6452403450780823 
3.340000000002624, -0.6469146952581811 
3.350000000002645, -0.648708797623705 
3.360000000002666, -0.65051677003164 
3.3700000000026873, -0.652209395753026 
3.3800000000027084, -0.6536660398578775 
3.3900000000027295, -0.6548083153917116 
3.4000000000027506, -0.6556146193505906 
3.4100000000027717, -0.6561095638968868 
3.420000000002793, -0.6563404689970953 
3.430000000002814, -0.6563561129011108 
3.440000000002835, -0.6561943033115845 
3.450000000002856, -0.6558769923701749 
3.460000000002877, -0.6554092295704628 
3.4700000000028983, -0.6547790409160881 
3.4800000000029194, -0.6539566820970389 
3.4900000000029405, -0.6528925671543876 
3.5000000000029616, -0.6515133907520246 
3.5100000000029827, -0.649715825006101 
3.520000000003004, -0.6473582441803719 
3.530000000003025, -0.6442586561476153 
3.540000000003046, -0.6402292364331543 
3.550000000003067, -0.6351978038696718 
3.5600000000030882, -0.6294023105039115 
3.5700000000031094, -0.6234678892117871 
3.5800000000031305, -0.6181700198000916 
3.5900000000031516, -0.6140458514963782 
3.6000000000031727, -0.6112147356078952 
3.6100000000031938, -0.609482995975301 
3.620000000003215, -0.608540756265116 
3.630000000003236, -0.608098041829824 
3.640000000003257, -0.6079367261667927 
3.650000000003278, -0.6079118351643584 
3.6600000000032993, -0.6079342146835025 
3.6700000000033204, -0.6079512984200554 
3.6800000000033415, -0.6079318424098539 
3.6900000000033626, -0.6078555000466261 
3.7000000000033837, -0.6077065927362224 
3.710000000003405, -0.607471417281432 
3.720000000003426, -0.6071387576481051 
3.730000000003447, -0.6067031464938764 
3.740000000003468, -0.6061693740775886 
3.750000000003489, -0.6055552366410136 
3.7600000000035103, -0.6048893862944229 
3.7700000000035314, -0.6042039064322975 
3.7800000000035525, -0.603525237944839 
3.7900000000035736, -0.6028684377683059 
3.8000000000035947, -0.6022371890484324 
3.810000000003616, -0.6016282467576862 
3.820000000003637, -0.6010371567449205 
3.830000000003658, -0.600462732616975 
3.840000000003679, -0.5999095893288608 
3.8500000000037002, -0.5993894543510345 
3.8600000000037213, -0.5989223619914015 
3.8700000000037424, -0.5985384921027987 
3.8800000000037635, -0.5982809033915236 
3.8900000000037847, -0.598209025442365 
3.9000000000038058, -0.5984025002970582 
3.910000000003827, -0.5989646333626293 
3.920000000003848, -0.6000240485384928 
3.930000000003869, -0.601731742563474 
3.94000000000389, -0.604248223894283 
3.9500000000039113, -0.6077122882135952 
3.9600000000039324, -0.612182783198456 
3.9700000000039535, -0.6175567054760511 
3.9800000000039746, -0.6235008421751976 
3.9900000000039957, -0.629472419382238 
4.000000000004016, -0.6348782340165997 
4.010000000003993, -0.639296136783239 
4.02000000000397, -0.6425941893250805 
4.030000000003946, -0.6448800945702118 
4.040000000003923, -0.6463688521594209 
4.0500000000039, -0.6472765501174272 
4.0600000000038765, -0.64777292501528 
4.070000000003853, -0.6479737387645315 
4.08000000000383, -0.647948405267887 
4.090000000003807, -0.647729042817851 
4.100000000003783, -0.6473157962803603 
4.11000000000376, -0.6466772602844518 
4.120000000003737, -0.6457464943490222 
4.130000000003713, -0.6444150089677565 
4.14000000000369, -0.6425314143420665 
4.150000000003667, -0.6399188308796254 
4.1600000000036434, -0.6364295744103603 
4.17000000000362, -0.6320388958714153 
4.180000000003597, -0.6269302710116452 
4.1900000000035735, -0.6214888096755888 
4.20000000000355, -0.6161765682094366 
4.210000000003527, -0.6113751132789094 
4.220000000003504, -0.6073004077302222 
4.23000000000348, -0.6040103447649829 
4.240000000003457, -0.6014583087474408 
4.250000000003434, -0.5995470609315816 
4.26000000000341, -0.5981649571835453 
4.270000000003387, -0.5972051598639341 
4.280000000003364, -0.59657390041799 
4.2900000000033405, -0.5961929692132328 
4.300000000003317, -0.595999512858476 
4.310000000003294, -0.5959446834849644 
4.320000000003271, -0.5959918845393848 
4.330000000003247, -0.5961150205364025 
4.340000000003224, -0.5962969938508453 
4.350000000003201, -0.5965284880545799 
4.360000000003177, -0.5968067226872468 
4.370000000003154, -0.5971334261760589 
4.380000000003131, -0.597511105858625 
4.390000000003107, -0.5979373339078892 
4.400000000003084, -0.5983984202967342 
4.410000000003061, -0.5988657338940832 
4.4200000000030375, -0.5992982354753588 
4.430000000003014, -0.5996518857078594 
4.440000000002991, -0.599891634589292 
4.450000000002968, -0.5999992523687845 
4.460000000002944, -0.5999734018343378 
4.470000000002921, -0.5998239128596664 
4.480000000002898, -0.5995648334485723 
4.490000000002874, -0.5992095774928959 
4.500000000002851, -0.5987691830195988 
4.510000000002828, -0.5982534743385953 
4.520000000002804, -0.5976749120967274 
4.530000000002781, -0.5970553566729796 
4.540000000002758, -0.5964359946252145 
4.5500000000027345, -0.5958891181730518 
4.560000000002711, -0.5955254645510804 
4.570000000002688, -0.5954811913119097 
4.580000000002665, -0.5958606409932193 
4.590000000002641, -0.5966316557566759 
4.600000000002618, -0.5975511370841369 
4.610000000002595, -0.5982669637474746 
4.620000000002571, -0.5985857470492365 
4.630000000002548, -0.5986116312184203 
4.640000000002525, -0.5985882323899743 
4.6500000000025015, -0.5986776296922859 
4.660000000002478, -0.5989015264267822 
4.670000000002455, -0.5992028281883297 
4.6800000000024315, -0.5995126694185927 
4.690000000002408, -0.599780828279872 
4.700000000002385, -0.599979123277331 
4.710000000002362, -0.6000944962201193 
4.720000000002338, -0.6001209953643791 
4.730000000002315, -0.6000536806720469 
4.740000000002292, -0.5998848344589764 
4.750000000002268, -0.5996023802991208 
4.760000000002245, -0.5991908028939845 
4.770000000002222, -0.5986352157362705 
4.7800000000021985, -0.5979286208473273 
4.790000000002175, -0.5970802054736901 
4.800000000002152, -0.5961198135220107 
4.810000000002129, -0.5950939356152556 
4.820000000002105, -0.5940537274601198 
4.830000000002082, -0.5930416489835295 
4.840000000002059, -0.5920839224968479 
4.850000000002035, -0.5911910248581558 
4.860000000002012, -0.5903634298593622 
4.870000000001989, -0.5895984462640536 
4.880000000001965, -0.5888954930672776 
4.890000000001942, -0.5882592357520823 
4.900000000001919, -0.5877012559612358 
4.9100000000018955, -0.5872411568877555 
4.920000000001872, -0.5869076882498792 
4.930000000001849, -0.586740087981124 
