t, s[1].omega / s[0].omega 
0, -0.6599977061795285 
0.009999999999999995, -0.6597580128144837 
0.019999999999999934, -0.659495552360191 
0.029999999999999874, -0.6592046938865905 
0.04000000000000012, -0.6588798092399292 
0.050000000000000405, -0.6585184716024781 
0.06000000000000069, -0.6581231907152634 
0.07000000000000098, -0.6577017452374668 
0.08000000000000126, -0.6572671316947748 
0.09000000000000155, -0.656838171057069 
0.10000000000000184, -0.6564413093525219 
0.11000000000000212, -0.6561136181566213 
0.12000000000000241, -0.6559065945700172 
0.130000000000002, -0.6558899809499092 
0.1400000000000009, -0.6561543355534584 
0.1499999999999998, -0.6568103849446517 
0.1599999999999987, -0.6579822187598117 
0.1699999999999976, -0.6597903083093846 
0.1799999999999965, -0.6623201789030035 
0.1899999999999954, -0.6655763117429723 
0.1999999999999943, -0.6694329254173224 
0.2099999999999932, -0.6736127011961228 
0.2199999999999921, -0.6777318896152789 
0.229999999999991, -0.6814148963145167 
0.2399999999999899, -0.6844158055795801 
0.2499999999999888, -0.6866667384015079 
0.2599999999999877, -0.6882381029100576 
0.2699999999999866, -0.6892628011683797 
0.2799999999999855, -0.6898763926032883 
0.2899999999999844, -0.6901883503067869 
0.2999999999999833, -0.690275319248262 
0.3099999999999822, -0.6901838256562705 
0.3199999999999811, -0.6899346122957377 
0.32999999999998, -0.6895251767939666 
0.3399999999999789, -0.6889294291400887 
0.3499999999999778, -0.6880945460936752 
0.35999999999997667, -0.6869363908493752 
0.36999999999997557, -0.6853375980432308 
0.37999999999997447, -0.6831573100768756 
0.38999999999997337, -0.6802659347175191 
0.39999999999997227, -0.6766119073212753 
0.40999999999997117, -0.6722981386871402 
0.41999999999997006, -0.6676092802061471 
0.42999999999996896, -0.6629433527942494 
0.43999999999996786, -0.6586795250850493 
0.44999999999996676, -0.6550701315564293 
0.45999999999996566, -0.6522104291676232 
0.46999999999996456, -0.6500710920427164 
0.47999999999996346, -0.6485513880506943 
0.48999999999996235, -0.647524381716688 
0.49999999999996125, -0.6468656087185443 
0.5099999999999602, -0.6464673955723514 
0.519999999999959, -0.6462436293089604 
0.529999999999958, -0.6461290981248855 
0.5399999999999568, -0.6460762447064146 
0.5499999999999557, -0.6460511406712566 
0.5599999999999546, -0.6460297862378346 
0.5699999999999535, -0.6459953689023188 
0.5799999999999524, -0.6459367462530893 
0.5899999999999513, -0.6458480008606825 
0.5999999999999502, -0.6457283877880822 
0.6099999999999491, -0.645581589808068 
0.619999999999948, -0.6454134384164423 
0.6299999999999469, -0.6452284080603402 
0.6399999999999458, -0.6450265455451712 
0.6499999999999447, -0.6448027482425791 
0.6599999999999436, -0.6445489493333306 
0.6699999999999425, -0.644257869182003 
0.6799999999999414, -0.6439262092903422 
0.6899999999999403, -0.6435560596758391 
0.6999999999999392, -0.6431548409041863 
0.7099999999999381, -0.6427349884677966 
0.719999999999937, -0.6423144944919333 
0.7299999999999359, -0.641918880046841 
0.7399999999999348, -0.6415846805464802 
0.7499999999999337, -0.6413641716073177 
0.7599999999999326, -0.6413306664321555 
0.7699999999999315, -0.6415830520516451 
0.7799999999999304, -0.6422471009683037 
0.7899999999999293, -0.6434693811836405 
0.7999999999999282, -0.6453976030797807 
0.8099999999999271, -0.6481407779949909 
0.819999999999926, -0.6517084376601252 
0.8299999999999249, -0.6559468413038498 
0.8399999999999238, -0.6605176313915322 
0.8499999999999227, -0.664968029157063 
0.8599999999999216, -0.6688818880575205 
0.8699999999999205, -0.6720167102128435 
0.8799999999999194, -0.6743355250654208 
0.8899999999999183, -0.6759413572072852 
0.8999999999999172, -0.6769882948594528 
0.9099999999999161, -0.6776218117924426 
0.919999999999915, -0.6779547536051106 
0.9299999999999139, -0.6780644720718316 
0.9399999999999128, -0.6779975613740337 
0.9499999999999117, -0.6777750342217638 
0.9599999999999106, -0.6773952508253057 
0.9699999999999095, -0.676834031869012 
0.9799999999999084, -0.6760424887013974 
0.9899999999999073, -0.6749445057743715 
0.9999999999999062, -0.673438498010831 
1.0099999999999052, -0.671411792705497 
1.019999999999904, -0.6687767374110287 
1.029999999999903, -0.6655266187511782 
1.039999999999902, -0.6617839688409182 
1.0499999999999008, -0.6577977631181976 
1.0599999999998997, -0.6538746740990551 
1.0699999999998986, -0.6502852759797199 
1.0799999999998975, -0.6472026013401841 
1.0899999999998964, -0.6446933362536105 
1.0999999999998953, -0.6427432018201069 
1.1099999999998942, -0.6412904792019869 
1.119999999999893, -0.6402531249167531 
1.129999999999892, -0.6395462357400609 
1.1399999999998909, -0.6390916837141476 
1.1499999999998898, -0.6388225632795277 
1.1599999999998887, -0.6386844666596483 
1.1699999999998876, -0.6386349122465846 
1.1799999999998865, -0.6386418246632269 
1.1899999999998854, -0.6386817304392352 
1.1999999999998843, -0.6387381508410083 
1.2099999999998832, -0.6388004335902275 
1.219999999999882, -0.6388629079230903 
1.229999999999881, -0.6389238362580625 
1.2399999999998799, -0.6389834594539702 
1.2499999999998788, -0.639040893061581 
1.2599999999998777, -0.6390907516258436 
1.2699999999998766, -0.6391213734858548 
1.2799999999998755, -0.6391162364703452 
1.2899999999998744, -0.6390583142957497 
1.2999999999998733, -0.6389350668658673 
1.3099999999998722, -0.6387414101902135 
1.319999999999871, -0.6384797193780122 
1.32999999999987, -0.6381579825231886 
1.3399999999998689, -0.6377879970565098 
1.3499999999998678, -0.637385010335702 
1.3599999999998666, -0.6369694334711314 
1.3699999999998655, -0.6365708204219108 
1.3799999999998644, -0.6362341521213841 
1.3899999999998633, -0.6360282080922819 
1.3999999999998622, -0.6360549543680973 
1.4099999999998611, -0.6364568703058316 
1.41999999999986, -0.6374155139692765 
1.429999999999859, -0.6391299060290847 
1.4399999999998578, -0.6417614428160106 
1.4499999999998567, -0.6453434134428975 
1.4599999999998556, -0.6496892438192595 
1.4699999999998545, -0.6543779670794411 
1.4799999999998534, -0.6588785853643093 
1.4899999999998523, -0.6627562221522932 
1.4999999999998512, -0.6658072892826288 
1.5099999999998501, -0.6680455594117587 
1.519999999999849, -0.6696026786977946 
1.529999999999848, -0.6706370295400623 
1.5399999999998468, -0.6712863497806795 
1.5499999999998457, -0.6716539843067865 
1.5599999999998446, -0.6718104863430151 
1.5699999999998435, -0.6717992344011465 
1.5799999999998424, -0.6716413313806979 
1.5899999999998413, -0.6713384136663749 
1.5999999999998402, -0.6708734042737154 
1.6099999999998391, -0.6702100998929879 
1.619999999999838, -0.6692936770297038 
1.629999999999837, -0.6680560107631761 
1.6399999999998358, -0.6664309949963109 
1.6499999999998347, -0.6643823400430414 
1.6599999999998336, -0.6619360785278651 
1.6699999999998325, -0.6591973568439128 
1.6799999999998314, -0.6563330828638139 
1.6899999999998303, -0.653525933127953 
1.6999999999998292, -0.6509276613694535 
1.709999999999828, -0.6486352561899067 
1.719999999999827, -0.6466919472790036 
1.729999999999826, -0.6451011922728572 
1.7399999999998248, -0.6438421785545142 
1.7499999999998237, -0.6428815471924038 
1.7599999999998226, -0.6421807791988607 
1.7699999999998215, -0.6417005091201161 
1.7799999999998204, -0.6414030911379014 
1.7899999999998193, -0.6412542345901866 
1.7999999999998182, -0.6412240631437275 
1.809999999999817, -0.6412877124520441 
1.819999999999816, -0.6414255234345603 
1.8299999999998149, -0.6416228886641187 
1.8399999999998138, -0.6418697446909365 
1.8499999999998127, -0.6421595225843695 
1.8599999999998116, -0.642487178570894 
1.8699999999998105, -0.6428460293547847 
1.8799999999998094, -0.6432238360126922 
1.8899999999998083, -0.643599788857949 
1.8999999999998072, -0.6439447776364311 
1.909999999999806, -0.6442262614130292 
1.919999999999805, -0.6444161077164152 
1.9299999999998039, -0.644497261204189 
1.9399999999998028, -0.6444657631029961 
1.9499999999998017, -0.64432801922173 
1.9599999999998006, -0.644095986899351 
1.9699999999997995, -0.6437831404535592 
1.9799999999997984, -0.6434026901379601 
1.9899999999997973, -0.6429683365670656 
1.9999999999997962, -0.6424974922331879 
2.0099999999998173, -0.6420170802770636 
2.0199999999998384, -0.6415721396433466 
2.0299999999998595, -0.6412368634692412 
2.0399999999998806, -0.6411255044232889 
2.0499999999999017, -0.641395886599146 
2.059999999999923, -0.642231668865888 
2.069999999999944, -0.6437872277419971 
2.079999999999965, -0.646096323156074 
2.089999999999986, -0.6489926648646164 
2.100000000000007, -0.6521277121406274 
2.1100000000000283, -0.655112341655268 
2.1200000000000494, -0.6576769602565034 
2.1300000000000705, -0.6597246731495879 
2.1400000000000916, -0.6612802840270326 
2.1500000000001127, -0.6624187172458209 
2.160000000000134, -0.6632213742158088 
2.170000000000155, -0.6637591532629011 
2.180000000000176, -0.6640881483856262 
2.190000000000197, -0.6642495330049244 
2.2000000000002182, -0.6642704260537287 
2.2100000000002393, -0.6641646806431875 
2.2200000000002604, -0.6639332234086018 
2.2300000000002815, -0.6635639872059287 
2.2400000000003026, -0.6630320734277497 
2.2500000000003237, -0.6623016894745122 
2.260000000000345, -0.6613323412430069 
2.270000000000366, -0.660091503365842 
2.280000000000387, -0.6585725870133202 
2.290000000000408, -0.6568105207138697 
2.3000000000004293, -0.6548834683481896 
2.3100000000004504, -0.6528958118985846 
2.3200000000004715, -0.6509512653208869 
2.3300000000004926, -0.649131408868343 
2.3400000000005137, -0.6474879796470389 
2.3500000000005348, -0.6460466014974229 
2.360000000000556, -0.6448151144412808 
2.370000000000577, -0.6437912726979238 
2.380000000000598, -0.6429678229005444 
2.390000000000619, -0.6423351224866919 
2.4000000000006403, -0.6418822204449137 
2.4100000000006614, -0.6415972924354248 
2.4200000000006825, -0.6414680136138604 
2.4300000000007036, -0.6414821202122607 
2.4400000000007247, -0.6416281488269407 
2.450000000000746, -0.6418961686144664 
2.460000000000767, -0.6422782083083315 
2.470000000000788, -0.6427679764378853 
2.480000000000809, -0.6433593715143808 
2.49000000000083, -0.6440433202374238 
2.5000000000008513, -0.6448030007785237 
2.5100000000008724, -0.6456088048645354 
2.5200000000008935, -0.646416092446422 
2.5300000000009146, -0.6471692574758823 
2.5400000000009357, -0.6478128425234341 
2.550000000000957, -0.6483051233527879 
2.560000000000978, -0.6486266427154781 
2.570000000000999, -0.6487795097066055 
2.58000000000102, -0.6487797268791118 
2.5900000000010412, -0.648648007780849 
2.6000000000010624, -0.6484030412338354 
2.6100000000010835, -0.6480582077534309 
2.6200000000011046, -0.6476210634985957 
2.6300000000011257, -0.647094728948688 
2.6400000000011468, -0.6464808247181335 
2.650000000001168, -0.6457840632640645 
2.660000000001189, -0.6450185100087217 
2.67000000000121, -0.6442142629767422 
2.680000000001231, -0.6434203554263437 
2.6900000000012523, -0.6426963155165024 
2.7000000000012734, -0.6420872894401853 
2.7100000000012945, -0.6415952569322975 
2.7200000000013156, -0.6411820649327414 
2.7300000000013367, -0.6408211773213741 
2.740000000001358, -0.640543612807386 
2.750000000001379, -0.6404125260744007 
2.7600000000014, -0.6404580235277638 
2.770000000001421, -0.6406501812566633 
2.780000000001442, -0.6409228028757917 
2.7900000000014633, -0.6412085943268739 
2.8000000000014844, -0.6414585451994892 
2.8100000000015055, -0.6416444519454683 
2.8200000000015266, -0.6417532010015164 
2.8300000000015477, -0.6417795315158916 
2.840000000001569, -0.641720118373023 
2.85000000000159, -0.6415695187881407 
2.860000000001611, -0.6413178247301133 
2.870000000001632, -0.6409500551055188 
2.8800000000016532, -0.6404478247349308 
2.8900000000016743, -0.6397940468820658 
2.9000000000016954, -0.6389805789464746 
2.9100000000017165, -0.6380164096691281 
2.9200000000017377, -0.6369316182423899 
2.9300000000017588, -0.6357731360853832 
2.94000000000178, -0.6345934530699555 
2.950000000001801, -0.6334385060000896 
2.960000000001822, -0.6323408382727228 
2.970000000001843, -0.631319534018566 
2.9800000000018643, -0.6303843967577369 
2.9900000000018854, -0.6295410170449433 
3.0000000000019065, -0.6287946978191824 
3.0100000000019276, -0.628152735016525 
3.0200000000019487, -0.6276253670971472 
3.03000000000197, -0.6272258773407173 
3.040000000001991, -0.6269702299586128 
3.050000000002012, -0.6268764974556562 
3.060000000002033, -0.6269642495735605 
3.070000000002054, -0.6272539704989157 
3.0800000000020753, -0.6277663768634458 
3.0900000000020964, -0.6285211817478167 
3.1000000000021175, -0.6295344197613283 
3.1100000000021386, -0.6308131058390082 
3.1200000000021597, -0.6323462562914702 
3.130000000002181, -0.6340930505163573 
3.140000000002202, -0.6359727973066012 
3.150000000002223, -0.637865736436938 
3.160000000002244, -0.6396327992936542 
3.1700000000022652, -0.6411509935486417 
3.1800000000022863, -0.6423459537929334 
3.1900000000023074, -0.6432022931460641 
3.2000000000023285, -0.6437496370514558 
3.2100000000023496, -0.6440383207851973 
3.2200000000023707, -0.644119000683295 
3.230000000002392, -0.644031278576767 
3.240000000002413, -0.6437994044915774 
3.250000000002434, -0.6434312931825943 
3.260000000002455, -0.6429179749081236 
3.2700000000024763, -0.6422318414409793 
3.2800000000024974, -0.6413229098048752 
3.2900000000025185, -0.6401131197011873 
3.3000000000025396, -0.63849039101528 
3.3100000000025607, -0.6363084826591932 
3.3200000000025818, -0.6334067737602702 
3.330000000002603, -0.6296703121364887 
3.340000000002624, -0.6251331559947767 
3.350000000002645, -0.6200680439572217 
3.360000000002666, -0.6149574383202548 
3.3700000000026873, -0.6103179306702876 
3.3800000000027084, -0.6065030782729499 
3.3900000000027295, -0.6036257953561771 
3.4000000000027506, -0.6016088332545426 
3.4100000000027717, -0.6002814821551419 
3.420000000002793, -0.5994569899814739 
3.430000000002814, -0.5989732799617992 
3.440000000002835, -0.5987058253754749 
3.450000000002856, -0.5985658218227995 
3.460000000002877, -0.5984928368991287 
3.4700000000028983, -0.5984467278390069 
3.4800000000029194, -0.59840082805071 
3.4900000000029405, -0.5983370253681771 
3.5000000000029616, -0.5982428057574509 
3.5100000000029827, -0.5981101193053251 
3.520000000003004, -0.5979356675697948 
3.530000000003025, -0.5977217297380726 
3.540000000003046, -0.5974761558845787 
3.550000000003067, -0.5972103129572195 
3.5600000000030882, -0.5969350305758652 
3.5700000000031094, -0.5966563044409717 
3.5800000000031305, -0.5963731612366753 
3.5900000000031516, -0.5960788993595167 
3.6000000000031727, -0.5957648112012202 
3.6100000000031938, -0.5954241849504196 
3.620000000003215, -0.5950547900910432 
3.630000000003236, -0.5946595435008827 
3.640000000003257, -0.5942462846381252 
3.650000000003278, -0.5938278717770996 
3.6600000000032993, -0.5934234462545626 
3.6700000000033204, -0.593061264091518 
3.6800000000033415, -0.5927832025409701 
3.6900000000033626, -0.5926507975852783 
3.7000000000033837, -0.59275216132319 
3.710000000003405, -0.5932079624195197 
3.720000000003426, -0.5941723442680285 
3.730000000003447, -0.5958209824941769 
3.740000000003468, -0.598314892009466 
3.750000000003489, -0.6017312155524078 
3.7600000000035103, -0.6059730574611188 
3.7700000000035314, -0.6107131147734275 
3.7800000000035525, -0.6154500822465019 
3.7900000000035736, -0.6196887789988498 
3.8000000000035947, -0.6231246181473257 
3.810000000003616, -0.6256966846599509 
3.820000000003637, -0.6275107942399798 
3.830000000003658, -0.6287321822934047 
3.840000000003679, -0.6295165780206348 
3.8500000000037002, -0.6299848178729126 
3.8600000000037213, -0.6302212436178742 
3.8700000000037424, -0.6302798348950815 
3.8800000000037635, -0.6301906120550893 
3.8900000000037847, -0.6299640055246156 
3.9000000000038058, -0.6295930461564081 
3.910000000003827, -0.629054170039703 
3.920000000003848, -0.6283083115947089 
3.930000000003869, -0.6273051980023034 
3.94000000000389, -0.6259946813099446 
3.9500000000039113, -0.6243471911223071 
3.9600000000039324, -0.6223783299509293 
3.9700000000039535, -0.620163180046629 
3.9800000000039746, -0.617825836202045 
3.9900000000039957, -0.6155060819040618 
4.000000000004016, -0.6133231431826184 
4.010000000003993, -0.6113557145274584 
4.02000000000397, -0.6096416950693238 
4.030000000003946, -0.6081890790476587 
4.040000000003923, -0.6069885477820967 
4.0500000000039, -0.6060229285606792 
4.0600000000038765, -0.6052727467444544 
4.070000000003853, -0.6047188996846071 
4.08000000000383, -0.6043437361952977 
4.090000000003807, -0.6041314814176744 
4.100000000003783, -0.6040685241261864 
4.11000000000376, -0.604143757719405 
4.120000000003737, -0.6043489517239925 
4.130000000003713, -0.6046789814543658 
4.14000000000369, -0.6051315951960279 
4.150000000003667, -0.6057062129860258 
4.1600000000036434, -0.6064011020892994 
4.17000000000362, -0.6072084455546133 
4.180000000003597, -0.6081077723319026 
4.1900000000035735, -0.6090601582709351 
4.20000000000355, -0.6100075880560267 
4.210000000003527, -0.6108813224162897 
4.220000000003504, -0.6116180168748228 
4.23000000000348, -0.6121756351469444 
4.240000000003457, -0.612540149467361 
4.250000000003434, -0.6127207988686878 
4.26000000000341, -0.6127391318449853 
4.270000000003387, -0.6126184545208383 
4.280000000003364, -0.612376954118196 
4.2900000000033405, -0.6120243741926326 
4.300000000003317, -0.6115607617044729 
4.310000000003294, -0.6109758987007357 
4.320000000003271, -0.6102485126006538 
4.330000000003247, -0.609344672992417 
4.340000000003224, -0.6082148530118275 
4.350000000003201, -0.6067894151126676 
4.360000000003177, -0.6049744449389755 
4.370000000003154, -0.6026571742727372 
4.380000000003131, -0.5997422879347941 
4.390000000003107, -0.5962366797224037 
4.400000000003084, -0.5923442660526664 
4.410000000003061, -0.5884610625345894 
4.4200000000030375, -0.585018459011974 
4.430000000003014, -0.5822948981452554 
4.440000000002991, -0.5803481069467752 
4.450000000002968, -0.5790745326595468 
4.460000000002944, -0.5783058175920923 
4.470000000002921, -0.577877401938753 
4.480000000002898, -0.5776582353300312 
4.490000000002874, -0.5775551612184894 
4.500000000002851, -0.5775063496873346 
4.510000000002828, -0.5774722258112471 
4.520000000002804, -0.5774274904359559 
4.530000000002781, -0.5773552836164694 
4.540000000002758, -0.5772435610562094 
4.5500000000027345, -0.5770835178464464 
4.560000000002711, -0.5768698171191218 
4.570000000002688, -0.5766020731732684 
4.580000000002665, -0.5762864047537144 
4.590000000002641, -0.5759353766053126 
4.600000000002618, -0.575565161648725 
4.610000000002595, -0.5751905400266174 
4.620000000002571, -0.5748201698664521 
4.630000000002548, -0.5744546990629819 
4.640000000002525, -0.5740885134735307 
4.6500000000025015, -0.5737137459327516 
4.660000000002478, -0.5733242561884789 
4.670000000002455, -0.5729180365012256 
4.6800000000024315, -0.5724979749379953 
4.690000000002408, -0.5720719231045781 
4.700000000002385, -0.5716531577051666 
4.710000000002362, -0.5712619713236771 
4.720000000002338, -0.5709287519658475 
4.730000000002315, -0.5706986644853872 
4.740000000002292, -0.5706377846624427 
4.750000000002268, -0.5708399432427487 
4.760000000002245, -0.5714321528286891 
4.770000000002222, -0.572573752733277 
4.7800000000021985, -0.5744401853579341 
4.790000000002175, -0.577178880647627 
4.800000000002152, -0.5808304141582442 
4.810000000002129, -0.5852366774382608 
4.820000000002105, -0.5900057513709834 
4.830000000002082, -0.5946104803546619 
4.840000000002059, -0.5985942054620874 
4.850000000002035, -0.6017308779985167 
4.860000000002012, -0.6040287812435301 
4.870000000001989, -0.6056273274466049 
4.880000000001965, -0.6066950917481266 
4.890000000001942, -0.6073768158393662 
4.900000000001919, -0.6077794943937267 
4.9100000000018955, -0.6079756987114401 
4.920000000001872, -0.6080108141578557 
