t, s[1].omega / s[0].omega 
0, -1.2899973777599878 
0.009999999999999995, -1.2896220801255092 
0.019999999999999934, -1.2890278733130587 
0.029999999999999874, -1.2882304594114042 
0.04000000000000012, -1.287259138054648 
0.050000000000000405, -1.2861616576584365 
0.06000000000000069, -1.2850091076888148 
0.07000000000000098, -1.283896385276995 
0.08000000000000126, -1.2829314946304096 
0.09000000000000155, -1.2822073537444851 
0.10000000000000184, -1.2817613300569082 
0.11000000000000212, -1.2815508882676792 
0.12000000000000241, -1.2814728194996001 
0.130000000000002, -1.2814098408580656 
0.1400000000000009, -1.2812618676076595 
0.1499999999999998, -1.280944975400716 
0.1599999999999987, -1.2803709783629666 
0.1699999999999976, -1.2794240563172983 
0.1799999999999965, -1.2779446334762428 
0.1899999999999954, -1.2757305600397102 
0.1999999999999943, -1.2725705741044926 
0.2099999999999932, -1.2683262274697202 
0.2199999999999921, -1.263065491144551 
0.229999999999991, -1.257210016798031 
0.2399999999999899, -1.25157564119146 
0.2499999999999888, -1.2471270486161754 
0.2599999999999877, -1.2444566903171776 
0.2699999999999866, -1.2434307696762346 
0.2799999999999855, -1.2434088295811334 
0.2899999999999844, -1.243746555963183 
0.2999999999999833, -1.2440610670518235 
0.3099999999999822, -1.2441993968807943 
0.3199999999999811, -1.2441182071709154 
0.32999999999998, -1.2437951623378047 
0.3399999999999789, -1.243180662694692 
0.3499999999999778, -1.2421687439476115 
0.35999999999997667, -1.2405775164362975 
0.36999999999997557, -1.2381596015659222 
0.37999999999997447, -1.2347166334304494 
0.38999999999997337, -1.2304355332829695 
0.39999999999997227, -1.2263948014007626 
0.40999999999997117, -1.2245788876511539 
0.41999999999997006, -1.2265533053528632 
0.42999999999996896, -1.2318138392356224 
0.43999999999996786, -1.238167046238059 
0.44999999999996676, -1.2436532757713064 
0.45999999999996566, -1.2475316275650892 
0.46999999999996456, -1.2499356181815897 
0.47999999999996346, -1.2512720174726772 
0.48999999999996235, -1.2519058576285211 
0.49999999999996125, -1.2520835412954376 
0.5099999999999602, -1.25194926260111 
0.519999999999959, -1.251581109686516 
0.529999999999958, -1.2510300742634646 
0.5399999999999568, -1.250370248588464 
0.5499999999999557, -1.2497693316358909 
0.5599999999999546, -1.2495520337895665 
0.5699999999999535, -1.2501585360562293 
0.5799999999999524, -1.2519176672917842 
0.5899999999999513, -1.2547826989785607 
0.5999999999999502, -1.258319769923549 
0.6099999999999491, -1.2619587021905667 
0.619999999999948, -1.2652404593509208 
0.6299999999999469, -1.2679079872899717 
0.6399999999999458, -1.2698821910502047 
0.6499999999999447, -1.2712019858521937 
0.6599999999999436, -1.2719671314695902 
0.6699999999999425, -1.2722949236469072 
0.6799999999999414, -1.2722938703540954 
0.6899999999999403, -1.2720543880780564 
0.6999999999999392, -1.2716534296812445 
0.7099999999999381, -1.2711672810921788 
0.719999999999937, -1.2706831953896374 
0.7299999999999359, -1.2702969684468755 
0.7399999999999348, -1.2700896578304544 
0.7499999999999337, -1.270097283931039 
0.7599999999999326, -1.2702990332190052 
0.7699999999999315, -1.270631016992886 
0.7799999999999304, -1.271010606603167 
0.7899999999999293, -1.2713569862909992 
0.7999999999999282, -1.271602858455827 
0.8099999999999271, -1.2716974939295713 
0.819999999999926, -1.2716045669091618 
0.8299999999999249, -1.271299157345657 
0.8399999999999238, -1.2707663265431157 
0.8499999999999227, -1.2700014552214753 
0.8599999999999216, -1.2690120503780686 
0.8699999999999205, -1.2678213760218273 
0.8799999999999194, -1.2664743975226433 
0.8899999999999183, -1.2650450264948903 
0.8999999999999172, -1.2636402166902916 
0.9099999999999161, -1.2623915673072663 
0.919999999999915, -1.2614231877193114 
0.9299999999999139, -1.2607990197121286 
0.9399999999999128, -1.2604852454464994 
0.9499999999999117, -1.26036766680997 
0.9599999999999106, -1.2603097296702483 
0.9699999999999095, -1.2601968281481464 
0.9799999999999084, -1.2599407503257989 
0.9899999999999073, -1.2594579170888953 
0.9999999999999062, -1.258641107249669 
1.0099999999999052, -1.257334941292801 
1.019999999999904, -1.2553232973562634 
1.029999999999903, -1.252344912404634 
1.039999999999902, -1.2481630291070267 
1.0499999999999008, -1.242709700666087 
1.0599999999998997, -1.2362824933775518 
1.0699999999998986, -1.2296740346335429 
1.0799999999998975, -1.2240145901749355 
1.0899999999998964, -1.2202265621946538 
1.0999999999998953, -1.2184663278037935 
1.1099999999998942, -1.21814745839444 
1.119999999999893, -1.218483565515403 
1.129999999999892, -1.218924965630992 
1.1399999999998909, -1.2192212124552004 
1.1499999999998898, -1.219298434451081 
1.1599999999998887, -1.219142457370268 
1.1699999999998876, -1.2187331519932518 
1.1799999999998865, -1.2180107533566304 
1.1899999999998854, -1.2168540189209616 
1.1999999999998843, -1.2150692983498117 
1.2099999999998832, -1.2124231505403242 
1.219999999999882, -1.2088026926399027 
1.229999999999881, -1.204593282458502 
1.2399999999998799, -1.2010982155717636 
1.2499999999998788, -1.2002516400992742 
1.2599999999998777, -1.2031390730964175 
1.2699999999998766, -1.2087871709178057 
1.2799999999998755, -1.2150101192717484 
1.2899999999998744, -1.2201539628959897 
1.2999999999998733, -1.2237127384690263 
1.3099999999998722, -1.2258944597579662 
1.319999999999871, -1.2270953688299808 
1.32999999999987, -1.2276506486406544 
1.3399999999998689, -1.2277819319983088 
1.3499999999998678, -1.2276170080088353 
1.3599999999998666, -1.2272233416037852 
1.3699999999998655, -1.2266441921711597 
1.3799999999998644, -1.2259473193550405 
1.3899999999998633, -1.225297750683326 
1.3999999999998622, -1.2250321665453057 
1.4099999999998611, -1.2256367809167494 
1.41999999999986, -1.2275226074467178 
1.429999999999859, -1.2307119996222269 
1.4399999999998578, -1.2347612587641563 
1.4499999999998567, -1.2390093249196386 
1.4599999999998556, -1.2428851731130457 
1.4699999999998545, -1.246053255355203 
1.4799999999998534, -1.248405543649471 
1.4899999999998523, -1.249989937460532 
1.4999999999998512, -1.250933178479436 
1.5099999999998501, -1.251381435856955 
1.519999999999849, -1.2514655830218064 
1.529999999999848, -1.2512896847085877 
1.5399999999998468, -1.2509365724656152 
1.5499999999998457, -1.2504832800959602 
1.5599999999998446, -1.2500176811447066 
1.5699999999998435, -1.2496432561864987 
1.5799999999998424, -1.2494595277493663 
1.5899999999998413, -1.2495246441808343 
1.5999999999998402, -1.2498303706737368 
1.6099999999998391, -1.25031087777352 
1.619999999999838, -1.2508731272868314 
1.629999999999837, -1.2514250067437935 
1.6399999999998358, -1.2518908118321372 
1.6499999999998347, -1.2522155077252854 
1.6599999999998336, -1.252362602191787 
1.6699999999998325, -1.2523101902815506 
1.6799999999998314, -1.2520478832067465 
1.6899999999998303, -1.2515753471889135 
1.6999999999998292, -1.2509023124121335 
1.709999999999828, -1.2500500484173953 
1.719999999999827, -1.2490544496911273 
1.729999999999826, -1.247970054037833 
1.7399999999998248, -1.2468723684997092 
1.7499999999998237, -1.2458539549078638 
1.7599999999998226, -1.2450092777350212 
1.7699999999998215, -1.2444065952521173 
1.7799999999998204, -1.2440569901719247 
1.7899999999998193, -1.2439044421800904 
1.7999999999998182, -1.2438500238845358 
1.809999999999817, -1.2437896967753352 
1.819999999999816, -1.243635059247757 
1.8299999999998149, -1.2433095969171932 
1.8399999999998138, -1.2427325326893084 
1.8499999999998127, -1.2418034747847488 
1.8599999999998116, -1.2403965497573692 
1.8699999999998105, -1.2383709723964742 
1.8799999999998094, -1.2356036181656946 
1.8899999999998083, -1.2320442788607044 
1.8999999999998072, -1.2277861636094463 
1.909999999999806, -1.223131283411383 
1.919999999999805, -1.2186029773207199 
1.9299999999998039, -1.2148285639025784 
1.9399999999998028, -1.2122702440101345 
1.9499999999998017, -1.2109747801294355 
1.9599999999998006, -1.2105962036662299 
1.9699999999997995, -1.2106676644022238 
1.9799999999997984, -1.210837078893988 
1.9899999999997973, -1.2109180199292116 
1.9999999999997962, -1.2108299635120743 
2.0099999999998173, -1.210527131074865 
2.0199999999998384, -1.2099480892982404 
2.0299999999998595, -1.208978911270656 
2.0399999999998806, -1.2074185728882902 
2.0499999999999017, -1.2049498998585773 
2.059999999999923, -1.2011548248506339 
2.069999999999944, -1.1956726359886352 
2.079999999999965, -1.1886157824463448 
2.089999999999986, -1.1811030016181792 
2.100000000000007, -1.1751894314622007 
2.1100000000000283, -1.172587222572432 
2.1200000000000494, -1.1732727659567268 
2.1300000000000705, -1.1757500080076126 
2.1400000000000916, -1.1784613075683963 
2.1500000000001127, -1.1806009606018475 
2.160000000000134, -1.1820081339187931 
2.170000000000155, -1.1828003021517144 
2.180000000000176, -1.1831393889528112 
2.190000000000197, -1.1831463373137792 
2.2000000000002182, -1.1828867004975645 
2.2100000000002393, -1.182378259535125 
2.2200000000002604, -1.1816063860071728 
2.2300000000002815, -1.180556286633525 
2.2400000000003026, -1.1792899982876885 
2.2500000000003237, -1.178096902007884 
2.260000000000345, -1.177668420283085 
2.270000000000366, -1.1790503557826129 
2.280000000000387, -1.1830801564034714 
2.290000000000408, -1.1895958029502207 
2.3000000000004293, -1.1973208098225747 
2.3100000000004504, -1.2046652210249984 
2.3200000000004715, -1.2105791066156963 
2.3300000000004926, -1.214775267742432 
2.3400000000005137, -1.2174678458228132 
2.3500000000005348, -1.2190404341399064 
2.360000000000556, -1.2198477337482208 
2.370000000000577, -1.2201495602145136 
2.380000000000598, -1.2201147747141334 
2.390000000000619, -1.2198490670454598 
2.4000000000006403, -1.2194282948193405 
2.4100000000006614, -1.218934973686389 
2.4200000000006825, -1.2184952035633416 
2.4300000000007036, -1.2182961371862937 
2.4400000000007247, -1.21854754083261 
2.450000000000746, -1.2193825279187387 
2.460000000000767, -1.2207719431760498 
2.470000000000788, -1.2225365607387233 
2.480000000000809, -1.2244381437562097 
2.49000000000083, -1.2262646556202668 
2.5000000000008513, -1.2278666375878324 
2.5100000000008724, -1.2291571123485725 
2.5200000000008935, -1.2300990271142205 
2.5300000000009146, -1.230692574591245 
2.5400000000009357, -1.230964305401088 
2.550000000000957, -1.2309569941040333 
2.560000000000978, -1.2307210075232866 
2.570000000000999, -1.2303097454765148 
2.58000000000102, -1.2297807003406174 
2.5900000000010412, -1.2291999087284713 
2.6000000000010624, -1.2286431860611922 
2.6100000000010835, -1.228187048187671 
2.6200000000011046, -1.2278899563496026 
2.6300000000011257, -1.2277748069880636 
2.6400000000011468, -1.2278232759650014 
2.650000000001168, -1.2279831318760597 
2.660000000001189, -1.2281836154723262 
2.67000000000121, -1.2283521471375667 
2.680000000001231, -1.2284254131434857 
2.6900000000012523, -1.2283523216529348 
2.7000000000012734, -1.2280922983068154 
2.7100000000012945, -1.2276137797139415 
2.7200000000013156, -1.2268950112039287 
2.7300000000013367, -1.2259265163424256 
2.740000000001358, -1.2247141983094405 
2.750000000001379, -1.2232832963526357 
2.7600000000014, -1.2216841673662358 
2.770000000001421, -1.219999405604961 
2.780000000001442, -1.2183477555611424 
2.7900000000014633, -1.216874648413135 
2.8000000000014844, -1.215717743318098 
2.8100000000015055, -1.2149515962853428 
2.8200000000015266, -1.2145475743232383 
2.8300000000015477, -1.2143892877894227 
2.840000000001569, -1.2143320060985723 
2.85000000000159, -1.2142526416104498 
2.860000000001611, -1.2140603577185731 
2.870000000001632, -1.2136785097200442 
2.8800000000016532, -1.2130181627918835 
2.8900000000016743, -1.2119542459343244 
2.9000000000016954, -1.2103105546091462 
2.9100000000017165, -1.2078643590753857 
2.9200000000017377, -1.2043888429518954 
2.9300000000017588, -1.1997498502631347 
2.94000000000178, -1.1940493757727766 
2.950000000001801, -1.1877570226615828 
2.960000000001822, -1.1817077985081048 
2.970000000001843, -1.1768412512752766 
2.9800000000018643, -1.173741808161707 
2.9900000000018854, -1.1723392420726113 
3.0000000000019065, -1.1720710586599554 
3.0100000000019276, -1.172307034337289 
3.0200000000019487, -1.1726234052803064 
3.03000000000197, -1.1728206656603521 
3.040000000001991, -1.1728293717000422 
3.050000000002012, -1.1726233910067516 
3.060000000002033, -1.1721672699149748 
3.070000000002054, -1.1713838906200713 
3.0800000000020753, -1.1701270750593236 
3.0900000000020964, -1.1681560868158847 
3.1000000000021175, -1.1651334685092962 
3.1100000000021386, -1.1607125222419885 
3.1200000000021597, -1.1548193874758266 
3.130000000002181, -1.14812308956884 
3.140000000002202, -1.1422561048885052 
3.150000000002223, -1.139070027462291 
3.160000000002244, -1.139216566935638 
3.1700000000022652, -1.1416875811830764 
3.1800000000022863, -1.1448578700311316 
3.1900000000023074, -1.147610438269554 
3.2000000000023285, -1.1495658949722782 
3.2100000000023496, -1.1507744138072253 
3.2200000000023707, -1.1514135518676436 
3.230000000002392, -1.1516442200968773 
3.240000000002413, -1.151571374442803 
3.250000000002434, -1.1512449150458142 
3.260000000002455, -1.1506704537936407 
3.2700000000024763, -1.1498252865426655 
3.2800000000024974, -1.1486927337696535 
3.2900000000025185, -1.1473437966696225 
3.3000000000025396, -1.1460918231008543 
3.3100000000025607, -1.1456629714817486 
3.3200000000025818, -1.1471337047423957 
3.330000000002603, -1.1513556107521175 
3.340000000002624, -1.1581559547495563 
3.350000000002645, -1.166209516151556 
3.360000000002666, -1.1738529678311864 
3.3700000000026873, -1.1799860287201607 
3.3800000000027084, -1.184318210550276 
3.3900000000027295, -1.1870884153686512 
3.4000000000027506, -1.1887066024520128 
3.4100000000027717, -1.1895443908668601 
3.420000000002793, -1.1898695580124004 
3.430000000002814, -1.189853043454845 
3.440000000002835, -1.1895983195065214 
3.450000000002856, -1.189174505626076 
3.460000000002877, -1.1886527552149144 
3.4700000000028983, -1.1881484939484483 
3.4800000000029194, -1.1878572099989368 
3.4900000000029405, -1.1880432541207753 
3.5000000000029616, -1.1889429425704896 
3.5100000000029827, -1.1906251869358164 
3.520000000003004, -1.1929335959915501 
3.530000000003025, -1.195564347196385 
3.540000000003046, -1.1981968493149826 
3.550000000003067, -1.200580667887407 
3.5600000000030882, -1.2025606809752682 
3.5700000000031094, -1.2040683405883597 
3.5800000000031305, -1.2051025061056375 
3.5900000000031516, -1.205707878892642 
3.6000000000031727, -1.205953255919634 
3.6100000000031938, -1.205913273753843 
3.620000000003215, -1.2056580894304776 
3.630000000003236, -1.2052528710763537 
3.640000000003257, -1.204764939689789 
3.650000000003278, -1.204272102546208 
3.6600000000032993, -1.2038621450405462 
3.6700000000033204, -1.2036161561557164 
3.6800000000033415, -1.2035821293745448 
3.6900000000033626, -1.203758041658876 
3.7000000000033837, -1.2040963892647416 
3.710000000003405, -1.2045235289428597 
3.720000000003426, -1.2049604909495648 
3.730000000003447, -1.2053374188901296 
3.740000000003468, -1.2055999001256026 
3.750000000003489, -1.2057092013459465 
3.7600000000035103, -1.2056399671668425 
3.7700000000035314, -1.2053780499214342 
3.7800000000035525, -1.2049193697371359 
3.7900000000035736, -1.2042697901925428 
3.8000000000035947, -1.2034460385514865 
3.810000000003616, -1.2024778616805027 
3.820000000003637, -1.2014111432993047 
3.830000000003658, -1.2003103166590599 
3.840000000003679, -1.1992566826571858 
3.8500000000037002, -1.198338585500223 
3.8600000000037213, -1.1976311883638344 
3.8700000000037424, -1.1971699435942187 
3.8800000000037635, -1.1969324686998706 
3.8900000000037847, -1.1968453139141444 
3.9000000000038058, -1.1968127162723927 
3.910000000003827, -1.196744279296209 
3.920000000003848, -1.1965642520919646 
3.930000000003869, -1.1962045273811566 
3.94000000000389, -1.1955927850735737 
3.9500000000039113, -1.1946453865268987 
3.9600000000039324, -1.1932706982533046 
3.9700000000039535, -1.1913851073386517 
3.9800000000039746, -1.1889396481102437 
3.9900000000039957, -1.185951207431311 
4.000000000004016, -1.1825316810231106 
4.010000000003993, -1.1789079992367346 
4.02000000000397, -1.1754166339656877 
4.030000000003946, -1.1724419764890839 
4.040000000003923, -1.1702844530213978 
4.0500000000039, -1.1690211972919538 
4.0600000000038765, -1.168481133477 
4.070000000003853, -1.1683669197388526 
4.08000000000383, -1.1684068791190347 
4.090000000003807, -1.1684236809421065 
4.100000000003783, -1.1683198208499774 
4.11000000000376, -1.168033223075099 
4.120000000003737, -1.1674957411903566 
4.130000000003713, -1.1665991212096674 
4.14000000000369, -1.1651637050717167 
4.150000000003667, -1.162911664259772 
4.1600000000036434, -1.159466425123679 
4.17000000000362, -1.15443074812706 
4.180000000003597, -1.1476090328513224 
4.1900000000035735, -1.1393561813835915 
4.20000000000355, -1.130804759460649 
4.210000000003527, -1.1235622628469317 
4.220000000003504, -1.1188472876480966 
4.23000000000348, -1.1167874345169415 
4.240000000003457, -1.1165792480130396 
4.250000000003434, -1.1172128325192332 
4.26000000000341, -1.1179897253689308 
4.270000000003387, -1.1185909438050696 
4.280000000003364, -1.1189305459392227 
4.2900000000033405, -1.1190138160239995 
4.300000000003317, -1.1188579382073254 
4.310000000003294, -1.1184562629709762 
4.320000000003271, -1.11776013186871 
4.330000000003247, -1.1166639346431118 
4.340000000003224, -1.114992396721433 
4.350000000003201, -1.1125078124652388 
4.360000000003177, -1.1089857799635308 
4.370000000003154, -1.1044315218184377 
4.380000000003131, -1.09942819983095 
4.390000000003107, -1.0953078139840484 
4.400000000003084, -1.0936079725357808 
4.410000000003061, -1.0949310096710874 
4.4200000000030375, -1.0984217157346636 
4.430000000003014, -1.1025364358578398 
4.440000000002991, -1.1061115057178088 
4.450000000002968, -1.1087110958467405 
4.460000000002944, -1.1103836249658428 
4.470000000002921, -1.1113442991778595 
4.480000000002898, -1.1118013265463353 
4.490000000002874, -1.1119015275409638 
4.500000000002851, -1.1117283918174643 
4.510000000002828, -1.111313698126132 
4.520000000002804, -1.1106503783590187 
4.530000000002781, -1.1097103571740456 
4.540000000002758, -1.1084842180570436 
4.5500000000027345, -1.1070713062240698 
4.560000000002711, -1.1058366668037374 
4.570000000002688, -1.105558263079563 
4.580000000002665, -1.1073138430754033 
4.590000000002641, -1.111880621477566 
4.600000000002618, -1.1189841228044717 
4.610000000002595, -1.1272374651372608 
4.620000000002571, -1.1349729851836925 
4.630000000002548, -1.141122919667589 
4.640000000002525, -1.145438247270912 
4.6500000000025015, -1.1481877475761948 
4.660000000002478, -1.149794353498464 
4.670000000002455, -1.1506311613142608 
4.6800000000024315, -1.1509625543758406 
4.690000000002408, -1.1509545309456501 
4.700000000002385, -1.1507041214084468 
4.710000000002362, -1.150270392345146 
4.720000000002338, -1.1497081745899753 
4.730000000002315, -1.1491118924518593 
4.740000000002292, -1.1486682694284736 
4.750000000002268, -1.1486857237384576 
4.760000000002245, -1.1495346036630378 
4.770000000002222, -1.1514723744816269 
4.7800000000021985, -1.1544649473813222 
4.790000000002175, -1.1581702746255074 
4.800000000002152, -1.1620947796999048 
4.810000000002129, -1.1657801720732555 
4.820000000002105, -1.1689116714949566 
4.830000000002082, -1.1713411352950927 
4.840000000002059, -1.1730599694626476 
4.850000000002035, -1.1741504273612482 
4.860000000002012, -1.1747345504623856 
4.870000000001989, -1.1749351349522414 
4.880000000001965, -1.1748557080595323 
4.890000000001942, -1.1745782434759482 
4.900000000001919, -1.1741732906139075 
4.9100000000018955, -1.1737164339659416 
4.920000000001872, -1.1733026244937015 
4.930000000001849, -1.1730451920469938 
