t, s[1].omega / s[0].omega 
0, -1.1499974710924552 
0.009999999999999995, -1.1496804997080898 
0.019999999999999934, -1.1492407282350283 
0.029999999999999874, -1.148690389139474 
0.04000000000000012, -1.1480502298769872 
0.050000000000000405, -1.1473501820261842 
0.06000000000000069, -1.1466296211913212 
0.07000000000000098, -1.1459356449543223 
0.08000000000000126, -1.1453175330960805 
0.09000000000000155, -1.144816982721325 
0.10000000000000184, -1.1444567333283613 
0.11000000000000212, -1.144232907531284 
0.12000000000000241, -1.1441159117323652 
0.130000000000002, -1.1440598853629376 
0.1400000000000009, -1.1440149817387988 
0.1499999999999998, -1.1439358446462986 
0.1599999999999987, -1.1437839343010763 
0.1699999999999976, -1.1435258957850967 
0.1799999999999965, -1.1431315807850277 
0.1899999999999954, -1.1425742753595862 
0.1999999999999943, -1.1418338794992295 
0.2099999999999932, -1.1409021901137817 
0.2199999999999921, -1.1397886002221993 
0.229999999999991, -1.1385246879692783 
0.2399999999999899, -1.1371666979681332 
0.2499999999999888, -1.1357945859324836 
0.2599999999999877, -1.1345048663727335 
0.2699999999999866, -1.1333940389934878 
0.2799999999999855, -1.132533416309033 
0.2899999999999844, -1.131945200758275 
0.2999999999999833, -1.1315954066868 
0.3099999999999822, -1.1314105089724875 
0.3199999999999811, -1.131306395371696 
0.32999999999998, -1.1312106674224505 
0.3399999999999789, -1.1310692400009421 
0.3499999999999778, -1.1308409056175368 
0.35999999999997667, -1.1304875154976972 
0.36999999999997557, -1.1299651042751042 
0.37999999999997447, -1.1292188279729465 
0.38999999999997337, -1.1281842899989347 
0.39999999999997227, -1.1267984881492752 
0.40999999999997117, -1.1250225627016772 
0.41999999999997006, -1.1228734838194694 
0.42999999999996896, -1.1204533127779928 
0.43999999999996786, -1.1179572190978189 
0.44999999999996676, -1.1156418667176304 
0.45999999999996566, -1.1137511167716623 
0.46999999999996456, -1.1124272620352793 
0.47999999999996346, -1.1116618578415256 
0.48999999999996235, -1.1113220234709396 
0.49999999999996125, -1.1112285724488937 
0.5099999999999602, -1.1112266445896624 
0.519999999999959, -1.111213887226715 
0.529999999999958, -1.111133257511629 
0.5399999999999568, -1.1109527309214928 
0.5499999999999557, -1.1106462626847668 
0.5599999999999546, -1.1101797305269892 
0.5699999999999535, -1.109501018587829 
0.5799999999999524, -1.1085341059460296 
0.5899999999999513, -1.107180923752217 
0.5999999999999502, -1.105340149107564 
0.6099999999999491, -1.1029543805122606 
0.619999999999948, -1.1000853356652533 
0.6299999999999469, -1.0969811859800198 
0.6399999999999458, -1.0940612809089882 
0.6499999999999447, -1.0917675833021552 
0.6599999999999436, -1.0903524278039556 
0.6699999999999425, -1.089770263101387 
0.6799999999999414, -1.0897584894631664 
0.6899999999999403, -1.0900116406080531 
0.6999999999999392, -1.0903040800337251 
0.7099999999999381, -1.0905156462318795 
0.719999999999937, -1.0906012504961105 
0.7299999999999359, -1.0905519938179242 
0.7399999999999348, -1.090367773814637 
0.7499999999999337, -1.090041919779655 
0.7599999999999326, -1.0895529823840278 
0.7699999999999315, -1.088860309836516 
0.7799999999999304, -1.0879038303540818 
0.7899999999999293, -1.0866134894227923 
0.7999999999999282, -1.0849389039215422 
0.8099999999999271, -1.0829083557490835 
0.819999999999926, -1.080703400757108 
0.8299999999999249, -1.078685988916366 
0.8399999999999238, -1.0772912725469248 
0.8499999999999227, -1.0767970809860228 
0.8599999999999216, -1.0771518285752641 
0.8699999999999205, -1.0780308906619673 
0.8799999999999194, -1.0790525046204058 
0.8899999999999183, -1.0799491902186888 
0.8999999999999172, -1.0806041821911907 
0.9099999999999161, -1.0810039907477684 
0.919999999999915, -1.081180081168331 
0.9299999999999139, -1.0811710896313913 
0.9399999999999128, -1.0810054575585106 
0.9499999999999117, -1.0806958007398602 
0.9599999999999106, -1.080238619847029 
0.9699999999999095, -1.0796173876326154 
0.9799999999999084, -1.0788112770173366 
0.9899999999999073, -1.0778154701338827 
0.9999999999999062, -1.0766793353227464 
1.0099999999999052, -1.0755573771390288 
1.019999999999904, -1.0747366266411826 
1.029999999999903, -1.0745736516090365 
1.039999999999902, -1.0753146602127832 
1.0499999999999008, -1.0769097051342196 
1.0599999999998997, -1.079005111740138 
1.0699999999998986, -1.081140216507552 
1.0799999999998975, -1.0829672552633114 
1.0899999999998964, -1.0843354713119875 
1.0999999999998953, -1.0852477626940025 
1.1099999999998942, -1.0857795454583894 
1.119999999999893, -1.086018966445846 
1.129999999999892, -1.086038723759217 
1.1399999999998909, -1.0858886421827358 
1.1499999999998898, -1.0855978206321522 
1.1599999999998887, -1.08518076722372 
1.1699999999998876, -1.084646978467985 
1.1799999999998865, -1.0840167328832997 
1.1899999999998854, -1.083346415173009 
1.1999999999998843, -1.0827606513917556 
1.2099999999998832, -1.0824716507523735 
1.219999999999882, -1.0827470350682469 
1.229999999999881, -1.0838007832804273 
1.2399999999998799, -1.0856531920094477 
1.2499999999998788, -1.0880726274609234 
1.2599999999998777, -1.0906654866752497 
1.2699999999998766, -1.0930489301543374 
1.2799999999998755, -1.0949805860378223 
1.2899999999998744, -1.0963842272389295 
1.2999999999998733, -1.0973005204416286 
1.3099999999998722, -1.0978211699264333 
1.319999999999871, -1.0980420545010892 
1.32999999999987, -1.0980414228860977 
1.3399999999998689, -1.0978753595726838 
1.3499999999998678, -1.097582098879015 
1.3599999999998666, -1.0971907938341456 
1.3699999999998655, -1.0967339314152698 
1.3799999999998644, -1.0962635886579901 
1.3899999999998633, -1.0958684942252153 
1.3999999999998622, -1.0956809896259352 
1.4099999999998611, -1.0958567953416662 
1.41999999999986, -1.0965206868093094 
1.429999999999859, -1.0977017586430646 
1.4399999999998578, -1.0993031977373278 
1.4499999999998567, -1.1011304057678448 
1.4599999999998556, -1.1029574118435774 
1.4699999999998545, -1.1045919234276123 
1.4799999999998534, -1.1059127970388052 
1.4899999999998523, -1.106875523723156 
1.4999999999998512, -1.1074950253999212 
1.5099999999998501, -1.107819593069177 
1.519999999999849, -1.1079077087126514 
1.529999999999848, -1.107813707689219 
1.5399999999998468, -1.107582721959909 
1.5499999999998457, -1.107252685823803 
1.5599999999998446, -1.1068609737376203 
1.5699999999998435, -1.1064533590689603 
1.5799999999998424, -1.1060916165211228 
1.5899999999998413, -1.1058535483658365 
1.5999999999998402, -1.1058194198546205 
1.6099999999998391, -1.1060465190030848 
1.619999999999838, -1.1065452987260511 
1.629999999999837, -1.1072728660520847 
1.6399999999998358, -1.1081470228286325 
1.6499999999998347, -1.1090701323364827 
1.6599999999998336, -1.1099502061047122 
1.6699999999998325, -1.1107137400985745 
1.6799999999998314, -1.1113111701280414 
1.6899999999998303, -1.1117174747633822 
1.6999999999998292, -1.1119294677544675 
1.709999999999828, -1.1119606202474606 
1.719999999999827, -1.1118347538422193 
1.729999999999826, -1.111580635241722 
1.7399999999998248, -1.1112292446116812 
1.7499999999998237, -1.1108142516564263 
1.7599999999998226, -1.1103745881353766 
1.7699999999998215, -1.1099563774236125 
1.7799999999998204, -1.1096106109646005 
1.7899999999998193, -1.1093844557954455 
1.7999999999998182, -1.1093086063536264 
1.809999999999817, -1.1093874316188825 
1.819999999999816, -1.1095978323990447 
1.8299999999998149, -1.1098969000898518 
1.8399999999998138, -1.1102334277141597 
1.8499999999998127, -1.1105579065180033 
1.8599999999998116, -1.1108284522848764 
1.8699999999998105, -1.1110130026260268 
1.8799999999998094, -1.1110894231884196 
1.8899999999998083, -1.1110449593846006 
1.8999999999998072, -1.1108756728628348 
1.909999999999806, -1.1105858879540278 
1.919999999999805, -1.1101875618683885 
1.9299999999998039, -1.1096997510639652 
1.9399999999998028, -1.1091484968132226 
1.9499999999998017, -1.1085670174494375 
1.9599999999998006, -1.107995117053215 
1.9699999999997995, -1.1074760192638928 
1.9799999999997984, -1.1070495617028517 
1.9899999999997973, -1.1067430814103933 
1.9999999999997962, -1.1065637695848114 
2.0099999999998173, -1.1064964603675678 
2.0199999999998384, -1.1065081338772738 
2.0299999999998595, -1.1065566906550435 
2.0399999999998806, -1.1065996112866232 
2.0499999999999017, -1.1065993229451214 
2.059999999999923, -1.1065249913670756 
2.069999999999944, -1.1063524592859757 
2.079999999999965, -1.1060641293983888 
2.089999999999986, -1.1056495294410824 
2.100000000000007, -1.105106312448309 
2.1100000000000283, -1.1044411845605795 
2.1200000000000494, -1.1036705787101757 
2.1300000000000705, -1.1028211926838827 
2.1400000000000916, -1.1019302837849902 
2.1500000000001127, -1.1010448589686699 
2.160000000000134, -1.1002181535165854 
2.170000000000155, -1.0995019708382698 
2.180000000000176, -1.098935360959601 
2.190000000000197, -1.0985333866047986 
2.2000000000002182, -1.098281933071592 
2.2100000000002393, -1.0981423875990546 
2.2200000000002604, -1.0980637608153594 
2.2300000000002815, -1.097995048060532 
2.2400000000003026, -1.0978919888991747 
2.2500000000003237, -1.0977175425546943 
2.260000000000345, -1.0974391124241367 
2.270000000000366, -1.0970260832444891 
2.280000000000387, -1.0964500127121566 
2.290000000000408, -1.0956881994426801 
2.3000000000004293, -1.09472973833106 
2.3100000000004504, -1.0935819845552834 
2.3200000000004715, -1.092275245566913 
2.3300000000004926, -1.090864414754043 
2.3400000000005137, -1.0894268856823028 
2.3500000000005348, -1.0880555049253562 
2.360000000000556, -1.086844662048295 
2.370000000000577, -1.0858696427594068 
2.380000000000598, -1.0851653037791602 
2.390000000000619, -1.0847155800794277 
2.4000000000006403, -1.0844620228149917 
2.4100000000006614, -1.0843267722878203 
2.4200000000006825, -1.084235533570809 
2.4300000000007036, -1.0841293262686313 
2.4400000000007247, -1.0839641267161169 
2.450000000000746, -1.0837039180681178 
2.460000000000767, -1.0833127146743105 
2.470000000000788, -1.0827489398593204 
2.480000000000809, -1.0819642876514908 
2.49000000000083, -1.080908999191194 
2.5000000000008513, -1.0795447384651085 
2.5100000000008724, -1.07786351184274 
2.5200000000008935, -1.0759068489238035 
2.5300000000009146, -1.0737764945893091 
2.5400000000009357, -1.0716284612114093 
2.550000000000957, -1.0696462310428951 
2.560000000000978, -1.0679959663850316 
2.570000000000999, -1.066777726595649 
2.58000000000102, -1.0659966688343092 
2.5900000000010412, -1.0655727503510009 
2.6000000000010624, -1.0653826105351216 
2.6100000000010835, -1.0653056243710783 
2.6200000000011046, -1.065250110997112 
2.6300000000011257, -1.0651561562543415 
2.6400000000011468, -1.0649851684638678 
2.650000000001168, -1.0647064568021518 
2.660000000001189, -1.0642857980964529 
2.67000000000121, -1.0636772725136738 
2.680000000001231, -1.0628192266518863 
2.6900000000012523, -1.0616369887373927 
2.7000000000012734, -1.0600569278745486 
2.7100000000012945, -1.058035446174603 
2.7200000000013156, -1.0555990120589356 
2.7300000000013367, -1.0528781011864794 
2.740000000001358, -1.0501083941760192 
2.750000000001379, -1.0475804055516602 
2.7600000000014, -1.0455477648393312 
2.770000000001421, -1.0441386712948866 
2.780000000001442, -1.043323569430029 
2.7900000000014633, -1.042956327190743 
2.8000000000014844, -1.042853497071605 
2.8100000000015055, -1.042858830101576 
2.8200000000015266, -1.0428679514077992 
2.8300000000015477, -1.0428218314736042 
2.840000000001569, -1.0426884355042736 
2.85000000000159, -1.0424451567598727 
2.860000000001611, -1.042065738569354 
2.870000000001632, -1.0415110669354362 
2.8800000000016532, -1.0407230435010282 
2.8900000000016743, -1.039623013429925 
2.9000000000016954, -1.0381197233612782 
2.9100000000017165, -1.0361343532294902 
2.9200000000017377, -1.0336466553882218 
2.9300000000017588, -1.0307506698535036 
2.94000000000178, -1.0276848983615623 
2.950000000001801, -1.0247943425363633 
2.960000000001822, -1.0224173349222132 
2.970000000001843, -1.0207542236820306 
2.9800000000018643, -1.0198039109273775 
2.9900000000018854, -1.0194051067900645 
3.0000000000019065, -1.0193376487360999 
3.0100000000019276, -1.0194097040981644 
3.0200000000019487, -1.0194936816758002 
3.03000000000197, -1.0195205122540405 
3.040000000001991, -1.0194577152995523 
3.050000000002012, -1.0192882733858346 
3.060000000002033, -1.018995503295136 
3.070000000002054, -1.0185529680961587 
3.0800000000020753, -1.0179174053156017 
3.0900000000020964, -1.0170242266508496 
3.1000000000021175, -1.015788199804388 
3.1100000000021386, -1.0141157461769936 
3.1200000000021597, -1.011937205840865 
3.130000000002181, -1.0092608979663071 
3.140000000002202, -1.0062298363224005 
3.150000000002223, -1.00313625706909 
3.160000000002244, -1.0003525292716162 
3.1700000000022652, -0.9981933594694363 
3.1800000000022863, -0.9967926223549106 
3.1900000000023074, -0.99607817489891 
3.2000000000023285, -0.995848207597297 
3.2100000000023496, -0.9958790544185854 
3.2200000000023707, -0.9959965960817602 
3.230000000002392, -0.9960944142474997 
3.240000000002413, -0.9961191288183068 
3.250000000002434, -0.9960472036835158 
3.260000000002455, -0.995865682601569 
3.2700000000024763, -0.9955591564713047 
3.2800000000024974, -0.9951011398792626 
3.2900000000025185, -0.9944479350086771 
3.3000000000025396, -0.9935348787072213 
3.3100000000025607, -0.992277833824585 
3.3200000000025818, -0.9905862564170465 
3.330000000002603, -0.9883953773439057 
3.340000000002624, -0.9857178194373113 
3.350000000002645, -0.9826949150873631 
3.360000000002666, -0.9796063101283968 
3.3700000000026873, -0.9768036522312531 
3.3800000000027084, -0.9745858215540804 
3.3900000000027295, -0.9730890675540828 
3.4000000000027506, -0.9722617812294647 
3.4100000000027717, -0.971927479255835 
3.420000000002793, -0.9718791816306721 
3.430000000002814, -0.97194701698368 
3.440000000002835, -0.9720204841341273 
3.450000000002856, -0.9720394700950943 
3.460000000002877, -0.9719746700545897 
3.4700000000028983, -0.9718096804262208 
3.4800000000029194, -0.9715281556594327 
3.4900000000029405, -0.9711051217434277 
3.5000000000029616, -0.9705009308499826 
3.5100000000029827, -0.9696576894182698 
3.520000000003004, -0.9685004043497395 
3.530000000003025, -0.9669477699893033 
3.540000000003046, -0.9649381189217161 
3.550000000003067, -0.9624702038225313 
3.5600000000030882, -0.959644076822267 
3.5700000000031094, -0.9566732406430927 
3.5800000000031305, -0.9538443361201898 
3.5900000000031516, -0.9514318564069276 
3.6000000000031727, -0.9496099983652515 
3.6100000000031938, -0.9484093383110794 
3.620000000003215, -0.9477361451004238 
3.630000000003236, -0.9474326332114407 
3.640000000003257, -0.9473389229968772 
3.650000000003278, -0.9473297978551427 
3.6600000000032993, -0.9473230261272519 
3.6700000000033204, -0.9472704331241205 
3.6800000000033415, -0.947143770308853 
3.6900000000033626, -0.946922027815807 
3.7000000000033837, -0.9465820182254225 
3.710000000003405, -0.9460919879517183 
3.720000000003426, -0.9454081584701622 
3.730000000003447, -0.9444754466573748 
3.740000000003468, -0.9432350559965371 
3.750000000003489, -0.9416414000511567 
3.7600000000035103, -0.939686805630274 
3.7700000000035314, -0.9374250084144181 
3.7800000000035525, -0.9349793502929072 
3.7900000000035736, -0.9325260151455955 
3.8000000000035947, -0.9302555228134134 
3.810000000003616, -0.9283270660380459 
3.820000000003637, -0.9268328742403545 
3.830000000003658, -0.9257846791910298 
3.840000000003679, -0.9251250859682184 
3.8500000000037002, -0.9247562908036896 
3.8600000000037213, -0.9245720672714816 
3.8700000000037424, -0.9244805783356899 
3.8800000000037635, -0.9244134317182476 
3.8900000000037847, -0.9243238401085444 
3.9000000000038058, -0.9241795031133417 
3.910000000003827, -0.923954705900614 
3.920000000003848, -0.9236240024404611 
3.930000000003869, -0.9231585504661958 
3.94000000000389, -0.9225259121441157 
3.9500000000039113, -0.9216941766154193 
3.9600000000039324, -0.9206404963864412 
3.9700000000039535, -0.919361956934587 
3.9800000000039746, -0.9178842162823301 
3.9900000000039957, -0.9162631925435608 
4.000000000004016, -0.9145784157647002 
4.010000000003993, -0.9129208369992604 
4.02000000000397, -0.9113792767760215 
4.030000000003946, -0.9100281892342785 
4.040000000003923, -0.9089178226765501 
4.0500000000039, -0.908067899980843 
4.0600000000038765, -0.9074666287260733 
4.070000000003853, -0.9070761782687745 
4.08000000000383, -0.9068432572120972 
4.090000000003807, -0.9067109298716082 
4.100000000003783, -0.9066275490785894 
4.11000000000376, -0.9065507918072582 
4.120000000003737, -0.9064473984453191 
4.130000000003713, -0.9062906631907337 
4.14000000000369, -0.9060578059151252 
4.150000000003667, -0.9057287425512272 
4.1600000000036434, -0.9052869483367069 
4.17000000000362, -0.9047221269382458 
4.180000000003597, -0.9040333632208315 
4.1900000000035735, -0.9032309498761721 
4.20000000000355, -0.9023357850757966 
4.210000000003527, -0.9013767791879286 
4.220000000003504, -0.9003877373730802 
4.23000000000348, -0.8994048707163473 
4.240000000003457, -0.8984649885722696 
4.250000000003434, -0.8976036110087044 
4.26000000000341, -0.8968522297605404 
4.270000000003387, -0.8962346202457947 
4.280000000003364, -0.8957630473577565 
4.2900000000033405, -0.8954358485307108 
4.300000000003317, -0.8952376899753836 
4.310000000003294, -0.8951427032887784 
4.320000000003271, -0.8951193632630359 
4.330000000003247, -0.895135306367685 
4.340000000003224, -0.8951607178468034 
4.350000000003201, -0.895169969508208 
4.360000000003177, -0.8951420616275356 
4.370000000003154, -0.8950606482297742 
4.380000000003131, -0.8949140868315023 
4.390000000003107, -0.8946954718549733 
4.400000000003084, -0.8944024251999474 
4.410000000003061, -0.894036641169943 
4.4200000000030375, -0.8936034763494958 
4.430000000003014, -0.893111846241722 
4.440000000002991, -0.8925744033776434 
4.450000000002968, -0.8920077905092407 
4.460000000002944, -0.8914327851469853 
4.470000000002921, -0.8908741404932788 
4.480000000002898, -0.890359755157589 
4.490000000002874, -0.8899186885207143 
4.500000000002851, -0.8895778117951807 
4.510000000002828, -0.8893575998313331 
4.520000000002804, -0.8892683181004515 
4.530000000002781, -0.8893080265698753 
4.540000000002758, -0.8894631422642503 
4.5500000000027345, -0.8897111757791748 
4.560000000002711, -0.8900244253493245 
4.570000000002688, -0.8903733275214959 
4.580000000002665, -0.8907287074745417 
4.590000000002641, -0.891062909162641 
4.600000000002618, -0.8913503573239311 
4.610000000002595, -0.8915683311472351 
4.620000000002571, -0.8916984812680904 
4.630000000002548, -0.8917288883026808 
4.640000000002525, -0.8916556897754824 
4.6500000000025015, -0.891483266363737 
4.660000000002478, -0.8912228898576497 
4.670000000002455, -0.8908908039662871 
4.6800000000024315, -0.8905070148092156 
4.690000000002408, -0.8900955107920572 
4.700000000002385, -0.889685718123512 
4.710000000002362, -0.8893141509751015 
4.720000000002338, -0.8890246484076604 
4.730000000002315, -0.8888656077185887 
4.740000000002292, -0.8888836046507584 
4.750000000002268, -0.8891146106681098 
4.760000000002245, -0.8895756122312715 
4.770000000002222, -0.89025949239943 
4.7800000000021985, -0.8911344133523365 
4.790000000002175, -0.8921470275146566 
4.800000000002152, -0.8932281724661989 
4.810000000002129, -0.8943004195083033 
4.820000000002105, -0.8952876155978922 
4.830000000002082, -0.8961258476676235 
4.840000000002059, -0.8967731228304434 
4.850000000002035, -0.8972138078151017 
4.860000000002012, -0.8974557737531912 
4.870000000001989, -0.8975221629417718 
4.880000000001965, -0.8974421507843836 
4.890000000001942, -0.8972443492917328 
4.900000000001919, -0.8969542232754775 
4.9100000000018955, -0.8965952430945441 
4.920000000001872, -0.8961930449942408 
4.930000000001849, -0.8957819025574414 
