t, s[1].omega / s[0].omega 
0, -0.6699977027667829 
0.009999999999999995, -0.6697579229615002 
0.019999999999999934, -0.669495135403247 
0.029999999999999874, -0.6692018910734899 
0.04000000000000012, -0.6688706196817653 
0.050000000000000405, -0.6684977465304174 
0.06000000000000069, -0.6680859214831816 
0.07000000000000098, -0.6676444533364909 
0.08000000000000126, -0.6671892785681675 
0.09000000000000155, -0.6667437893399825 
0.10000000000000184, -0.6663411561983229 
0.11000000000000212, -0.6660280709049077 
0.12000000000000241, -0.6658693038067688 
0.130000000000002, -0.6659520165849901 
0.1400000000000009, -0.6663882706137269 
0.1499999999999998, -0.6673135305406781 
0.1599999999999987, -0.6688780475150378 
0.1699999999999976, -0.6712267738023259 
0.1799999999999965, -0.6744627633904592 
0.1899999999999954, -0.6785922009533635 
0.1999999999999943, -0.6834625133454068 
0.2099999999999932, -0.688730189614409 
0.2199999999999921, -0.6939104134351513 
0.229999999999991, -0.6985217748658633 
0.2399999999999899, -0.7022492816967432 
0.2499999999999888, -0.7050131574834325 
0.2599999999999877, -0.7069158926628181 
0.2699999999999866, -0.7081385720068469 
0.2799999999999855, -0.7088604223755027 
0.2899999999999844, -0.7092222834832842 
0.2999999999999833, -0.7093199737829441 
0.3099999999999822, -0.7092095219926986 
0.3199999999999811, -0.7089135984275416 
0.32999999999998, -0.7084247364311363 
0.3399999999999789, -0.7077039164630825 
0.3499999999999778, -0.7066742638617289 
0.35999999999997667, -0.7052109362451137 
0.36999999999997557, -0.7031320424539593 
0.37999999999997447, -0.7002041825040933 
0.38999999999997337, -0.6961885685955671 
0.39999999999997227, -0.6909527482646801 
0.40999999999997117, -0.6846240918701536 
0.41999999999997006, -0.6776709304320553 
0.42999999999996896, -0.6707892127993282 
0.43999999999996786, -0.6646382647142113 
0.44999999999996676, -0.6596221178168588 
0.45999999999996566, -0.6558426015477863 
0.46999999999996456, -0.6531835991622004 
0.47999999999996346, -0.6514260505249563 
0.48999999999996235, -0.6503337506596487 
0.49999999999996125, -0.6496989999476545 
0.5099999999999602, -0.6493586985850331 
0.519999999999959, -0.6491939049324743 
0.529999999999958, -0.649122154292937 
0.5399999999999568, -0.6490879285311023 
0.5499999999999557, -0.6490539904874001 
0.5599999999999546, -0.6489947626131882 
0.5699999999999535, -0.6488921686676379 
0.5799999999999524, -0.6487339643676385 
0.5899999999999513, -0.648514136032959 
0.5999999999999502, -0.6482341905359728 
0.6099999999999491, -0.6479034127754513 
0.619999999999948, -0.6475364025162245 
0.6299999999999469, -0.6471480211714942 
0.6399999999999458, -0.646748157341001 
0.6499999999999447, -0.6463392985455956 
0.6599999999999436, -0.645918085924105 
0.6699999999999425, -0.6454794753567354 
0.6799999999999414, -0.6450209764255653 
0.6899999999999403, -0.6445452901694763 
0.6999999999999392, -0.644061359877931 
0.7099999999999381, -0.6435849170914145 
0.719999999999937, -0.6431396087562493 
0.7299999999999359, -0.6427592223980055 
0.7399999999999348, -0.6424909361747332 
0.7499999999999337, -0.6423990900568992 
0.7599999999999326, -0.6425686301881128 
0.7699999999999315, -0.6431069814045471 
0.7799999999999304, -0.6441424735390288 
0.7899999999999293, -0.6458163460974633 
0.7999999999999282, -0.6482637263879176 
0.8099999999999271, -0.6515778722329972 
0.819999999999926, -0.6557552468289186 
0.8299999999999249, -0.6606335050281931 
0.8399999999999238, -0.6658614674571319 
0.8499999999999227, -0.6709547917424029 
0.8599999999999216, -0.6754460954386391 
0.8699999999999205, -0.6790445304074944 
0.8799999999999194, -0.6816929313870895 
0.8899999999999183, -0.6835058115316088 
0.8999999999999172, -0.6846654374739565 
0.9099999999999161, -0.685346215094702 
0.919999999999915, -0.6856826458045762 
0.9299999999999139, -0.6857649295755965 
0.9399999999999128, -0.6856447260519185 
0.9499999999999117, -0.6853413273028907 
0.9599999999999106, -0.6848443974813339 
0.9699999999999095, -0.6841121419755296 
0.9799999999999084, -0.6830649769821245 
0.9899999999999073, -0.6815765261194646 
0.9999999999999062, -0.6794683685827548 
1.0099999999999052, -0.6765240547907074 
1.019999999999904, -0.6725467659288011 
1.029999999999903, -0.6674727678001082 
1.039999999999902, -0.6614949787653218 
1.0499999999999008, -0.6550858583048644 
1.0599999999998997, -0.6488530601506824 
1.0699999999998986, -0.6433173876351423 
1.0799999999998975, -0.6387712969549477 
1.0899999999998964, -0.635274542997459 
1.0999999999998953, -0.6327302188515598 
1.1099999999998942, -0.6309690725250798 
1.119999999999893, -0.6298084848631027 
1.129999999999892, -0.6290837580453806 
1.1399999999998909, -0.6286602234475509 
1.1499999999998898, -0.6284345814807266 
1.1599999999998887, -0.6283311122622421 
1.1699999999998876, -0.628296052237473 
1.1799999999998865, -0.6282919671946646 
1.1899999999998854, -0.6282931129504926 
1.1999999999998843, -0.6282822757233115 
1.2099999999998832, -0.6282491823590555 
1.219999999999882, -0.6281900616443165 
1.229999999999881, -0.6281073068551815 
1.2399999999998799, -0.6280078456999616 
1.2499999999998788, -0.6278994445334074 
1.2599999999998777, -0.6277858479635318 
1.2699999999998766, -0.6276632193235789 
1.2799999999998755, -0.6275202229520727 
1.2899999999998744, -0.6273419876950593 
1.2999999999998733, -0.6271156907813306 
1.3099999999998722, -0.626834738926229 
1.319999999999871, -0.6265000713919875 
1.32999999999987, -0.6261193661294284 
1.3399999999998689, -0.6257060386729856 
1.3499999999998678, -0.6252796368901261 
1.3599999999998666, -0.6248684710432266 
1.3699999999998655, -0.6245147866104112 
1.3799999999998644, -0.6242825144487801 
1.3899999999998633, -0.6242672532120169 
1.3999999999998622, -0.624607155601562 
1.4099999999998611, -0.6254911921573789 
1.41999999999986, -0.6271571626886651 
1.429999999999859, -0.6298657886680388 
1.4399999999998578, -0.6338327226363025 
1.4499999999998567, -0.6391097292173447 
1.4599999999998556, -0.6454498292824762 
1.4699999999998545, -0.652262308933848 
1.4799999999998534, -0.6587698169055324 
1.4899999999998523, -0.6643184311627911 
1.4999999999998512, -0.6686066973918181 
1.5099999999998501, -0.6716769803422784 
1.519999999999849, -0.6737547469525907 
1.529999999999848, -0.6750977471458179 
1.5399999999998468, -0.6759208099895633 
1.5499999999998457, -0.6763783048372333 
1.5599999999998446, -0.6765711564461967 
1.5699999999998435, -0.6765586941752239 
1.5799999999998424, -0.6763678429224087 
1.5899999999998413, -0.6759979373696818 
1.5999999999998402, -0.6754214692750571 
1.6099999999998391, -0.6745820840531251 
1.619999999999838, -0.6733928730853519 
1.629999999999837, -0.6717413865936412 
1.6399999999998358, -0.6695115246219523 
1.6499999999998347, -0.6666300128003717 
1.6599999999998336, -0.6631268920696866 
1.6699999999998325, -0.6591712167107895 
1.6799999999998314, -0.6550416981890088 
1.6899999999998303, -0.6510405279177819 
1.6999999999998292, -0.6474075144587623 
1.709999999999828, -0.644281197252728 
1.719999999999827, -0.6417070778485184 
1.729999999999826, -0.6396669778835673 
1.7399999999998248, -0.6381078891086764 
1.7499999999998237, -0.6369621601806825 
1.7599999999998226, -0.636159373470032 
1.7699999999998215, -0.6356327437328904 
1.7799999999998204, -0.6353224402678597 
1.7899999999998193, -0.6351772019725701 
1.7999999999998182, -0.635154886214589 
1.809999999999817, -0.6352222866480994 
1.819999999999816, -0.6353545019992598 
1.8299999999998149, -0.6355341216408841 
1.8399999999998138, -0.6357503483248532 
1.8499999999998127, -0.6359978440047919 
1.8599999999998116, -0.6362747026181119 
1.8699999999998105, -0.6365789334635436 
1.8799999999998094, -0.6369036414110819 
1.8899999999998083, -0.6372326247002328 
1.8999999999998072, -0.6375392648888846 
1.909999999999806, -0.6377907438229168 
1.919999999999805, -0.6379564087727009 
1.9299999999998039, -0.6380158490328929 
1.9399999999998028, -0.6379623237070383 
1.9499999999998017, -0.6378007619977977 
1.9599999999998006, -0.6375430322331559 
1.9699999999997995, -0.6372038142582162 
1.9799999999997984, -0.6367990140234069 
1.9899999999997973, -0.6363473010908404 
1.9999999999997962, -0.6358749342618375 
2.0099999999998173, -0.6354242678217538 
2.0199999999998384, -0.6350664886929824 
2.0299999999998595, -0.6349183353645012 
2.0399999999998806, -0.6351594769159268 
2.0499999999999017, -0.6360401399028317 
2.059999999999923, -0.637857140350053 
2.069999999999944, -0.6408684111008458 
2.079999999999965, -0.6451370658415343 
2.089999999999986, -0.6503760519656091 
2.100000000000007, -0.6559548181369488 
2.1100000000000283, -0.6611536316050113 
2.1200000000000494, -0.6654840238661603 
2.1300000000000705, -0.6688049218351779 
2.1400000000000916, -0.6712160561037718 
2.1500000000001127, -0.6729034751338901 
2.160000000000134, -0.6740473930678541 
2.170000000000155, -0.6747911540213138 
2.180000000000176, -0.6752389690376125 
2.190000000000197, -0.6754618614348196 
2.2000000000002182, -0.6755039602486227 
2.2100000000002393, -0.6753869534565732 
2.2200000000002604, -0.6751123639258283 
2.2300000000002815, -0.6746620193356805 
2.2400000000003026, -0.6739978642952604 
2.2500000000003237, -0.6730636603406308 
2.260000000000345, -0.6717929803947398 
2.270000000000366, -0.6701283179402524 
2.280000000000387, -0.6680510409556234 
2.290000000000408, -0.6656097766076112 
2.3000000000004293, -0.662925702269159 
2.3100000000004504, -0.660163986887371 
2.3200000000004715, -0.657487125057796 
2.3300000000004926, -0.6550185913966522 
2.3400000000005137, -0.6528313365248855 
2.3500000000005348, -0.6509556028971144 
2.360000000000556, -0.6493934208340205 
2.370000000000577, -0.6481311707798545 
2.380000000000598, -0.6471475570736176 
2.390000000000619, -0.6464177368389029 
2.4000000000006403, -0.6459152626593242 
2.4100000000006614, -0.6456131977893869 
2.4200000000006825, -0.6454851454333108 
2.4300000000007036, -0.6455064041946196 
2.4400000000007247, -0.6456551472748242 
2.450000000000746, -0.6459134087617732 
2.460000000000767, -0.6462676446890147 
2.470000000000788, -0.6467085848323038 
2.480000000000809, -0.6472299376568253 
2.49000000000083, -0.6478253976565889 
2.5000000000008513, -0.6484837422532853 
2.5100000000008724, -0.6491830234186162 
2.5200000000008935, -0.649886724756144 
2.5300000000009146, -0.6505457169047094 
2.5400000000009357, -0.6511076869172283 
2.550000000000957, -0.6515304676970215 
2.560000000000978, -0.6517918289726786 
2.570000000000999, -0.651890550115747 
2.58000000000102, -0.6518400037175531 
2.5900000000010412, -0.6516595021201381 
2.6000000000010624, -0.651367799726833 
2.6100000000010835, -0.6509803004350162 
2.6200000000011046, -0.6505097327626269 
2.6300000000011257, -0.6499698794426082 
2.6400000000011468, -0.6493825819394166 
2.650000000001168, -0.6487887917199502 
2.660000000001189, -0.6482639865326021 
2.67000000000121, -0.6479353439947363 
2.680000000001231, -0.6479906722136277 
2.6900000000012523, -0.6486574512608139 
2.7000000000012734, -0.6501253989646951 
2.7100000000012945, -0.6524171788899114 
2.7200000000013156, -0.6552946063374124 
2.7300000000013367, -0.6583303448482182 
2.740000000001358, -0.6611296321610511 
2.750000000001379, -0.6634922983969889 
2.7600000000014, -0.6653925328992613 
2.770000000001421, -0.6668786377920672 
2.780000000001442, -0.6680101111688113 
2.7900000000014633, -0.6688414890066805 
2.8000000000014844, -0.66942178449026 
2.8100000000015055, -0.6697937812738284 
2.8200000000015266, -0.6699918266181396 
2.8300000000015477, -0.6700397025020199 
2.840000000001569, -0.6699491153810391 
2.85000000000159, -0.6697185604648094 
2.860000000001611, -0.6693324178679714 
2.870000000001632, -0.668760911352339 
2.8800000000016532, -0.6679627992214539 
2.8900000000016743, -0.6668937514606503 
2.9000000000016954, -0.6655225032618249 
2.9100000000017165, -0.6638517667866608 
2.9200000000017377, -0.6619329782442207 
2.9300000000017588, -0.6598620840019483 
2.94000000000178, -0.6577551157132986 
2.950000000001801, -0.6557179944242845 
2.960000000001822, -0.6538273598444712 
2.970000000001843, -0.6521276311254343 
2.9800000000018643, -0.650638520232248 
2.9900000000018854, -0.649364982117296 
3.0000000000019065, -0.6483048865624355 
3.0100000000019276, -0.6474532930133594 
3.0200000000019487, -0.6468040834399216 
3.03000000000197, -0.6463501641363033 
3.040000000001991, -0.6460832495352254 
3.050000000002012, -0.6459938625376335 
3.060000000002033, -0.646071810780007 
3.070000000002054, -0.6463070858472407 
3.0800000000020753, -0.6466909003552821 
3.0900000000020964, -0.6472164061991891 
3.1000000000021175, -0.6478784763649499 
3.1100000000021386, -0.6486717847007977 
3.1200000000021597, -0.649586487904647 
3.130000000002181, -0.6506015829687618 
3.140000000002202, -0.6516779248634956 
3.150000000002223, -0.652755400751633 
3.160000000002244, -0.6537593673996209 
3.1700000000022652, -0.6546170545854582 
3.1800000000022863, -0.6552765653448132 
3.1900000000023074, -0.6557173737817583 
3.2000000000023285, -0.6559473089921576 
3.2100000000023496, -0.6559906663570133 
3.2200000000023707, -0.6558756182267999 
3.230000000002392, -0.6556258441659526 
3.240000000002413, -0.6552569582187021 
3.250000000002434, -0.6547763640292762 
3.260000000002455, -0.6541853326774019 
3.2700000000024763, -0.6534830098474584 
3.2800000000024974, -0.6526727872935725 
3.2900000000025185, -0.6517713216561516 
3.3000000000025396, -0.6508183935960404 
3.3100000000025607, -0.6498806263037781 
3.3200000000025818, -0.6490358137527029 
3.330000000002603, -0.6483294455101404 
3.340000000002624, -0.647730033867998 
3.350000000002645, -0.6471526378683297 
3.360000000002666, -0.646568136186477 
3.3700000000026873, -0.6460707685160189 
3.3800000000027084, -0.645797098329828 
3.3900000000027295, -0.6458014995912467 
3.4000000000027506, -0.6460296869619738 
3.4100000000027717, -0.6463759390293407 
3.420000000002793, -0.6467420431943389 
3.430000000002814, -0.6470621157812553 
3.440000000002835, -0.6473014265302535 
3.450000000002856, -0.647445629059469 
3.460000000002877, -0.6474899006857877 
3.4700000000028983, -0.6474309608876989 
3.4800000000029194, -0.6472619710431919 
3.4900000000029405, -0.646969759460276 
3.5000000000029616, -0.6465343618514934 
3.5100000000029827, -0.6459316991225162 
3.520000000003004, -0.6451404814738451 
3.530000000003025, -0.644152961701176 
3.540000000003046, -0.6429855667508502 
3.550000000003067, -0.6416823757707837 
3.5600000000030882, -0.6403068237720243 
3.5700000000031094, -0.6389251740008011 
3.5800000000031305, -0.6375913657640772 
3.5900000000031516, -0.6363404560263508 
3.6000000000031727, -0.6351907705808274 
3.6100000000031938, -0.6341503743078241 
3.620000000003215, -0.633223573822914 
3.630000000003236, -0.6324153864802966 
3.640000000003257, -0.6317337850763874 
3.650000000003278, -0.6311903248290701 
3.6600000000032993, -0.6307998211549048 
3.6700000000033204, -0.6305795764305426 
3.6800000000033415, -0.6305485089978093 
3.6900000000033626, -0.630726435420782 
3.7000000000033837, -0.6311336120305666 
3.710000000003405, -0.6317903717394363 
3.720000000003426, -0.6327162609831964 
3.730000000003447, -0.6339275283455322 
3.740000000003468, -0.6354313533891339 
3.750000000003489, -0.637215437903526 
3.7600000000035103, -0.6392336599530031 
3.7700000000035314, -0.6413933769147705 
3.7800000000035525, -0.6435557498363335 
3.7900000000035736, -0.6455596310625515 
3.8000000000035947, -0.647264798973546 
3.810000000003616, -0.6485907670160174 
3.820000000003637, -0.649527085633528 
3.830000000003658, -0.6501141423849138 
3.840000000003679, -0.6504131732610781 
3.8500000000037002, -0.650482684092296 
3.8600000000037213, -0.6503662439361266 
3.8700000000037424, -0.6500883934970197 
3.8800000000037635, -0.6496538758931617 
3.8900000000037847, -0.6490468010906548 
3.9000000000038058, -0.6482278338532772 
3.910000000003827, -0.6471283213063761 
3.920000000003848, -0.6456409199899735 
3.930000000003869, -0.643608173157703 
3.94000000000389, -0.6408167686073869 
3.9500000000039113, -0.6370199317220695 
3.9600000000039324, -0.6320272629554395 
3.9700000000039535, -0.6258782947840797 
3.9800000000039746, -0.6190012049139892 
3.9900000000039957, -0.6121548276659337 
4.000000000004016, -0.6061103034786219 
4.010000000003993, -0.6013303407435319 
4.02000000000397, -0.597889675547885 
4.030000000003946, -0.5956010828539561 
4.040000000003923, -0.5941807130283441 
4.0500000000039, -0.5933564636346482 
4.0600000000038765, -0.5929122604326517 
4.070000000003853, -0.5926935679167649 
4.08000000000383, -0.5925967952211653 
4.090000000003807, -0.5925551551764839 
4.100000000003783, -0.5925261930273299 
4.11000000000376, -0.592482479534657 
4.120000000003737, -0.5924055131475002 
4.130000000003713, -0.5922825049954408 
4.14000000000369, -0.592105648916293 
4.150000000003667, -0.5918731907071672 
4.1600000000036434, -0.5915909197058029 
4.17000000000362, -0.5912720752930809 
4.180000000003597, -0.5909341359026047 
4.1900000000035735, -0.590592994373859 
4.20000000000355, -0.5902572888056878 
4.210000000003527, -0.5899260378463037 
4.220000000003504, -0.5895907378308106 
4.23000000000348, -0.5892403759917479 
4.240000000003457, -0.5888664816649001 
4.250000000003434, -0.588466135886898 
4.26000000000341, -0.5880427831269247 
4.270000000003387, -0.587606107020251 
4.280000000003364, -0.5871724609684912 
4.2900000000033405, -0.586766860087258 
4.300000000003317, -0.5864270304271918 
4.310000000003294, -0.5862097130550294 
4.320000000003271, -0.5861991545970071 
4.330000000003247, -0.5865170852792969 
4.340000000003224, -0.5873318977748945 
4.350000000003201, -0.5888613392432382 
4.360000000003177, -0.5913570785781397 
4.370000000003154, -0.595052600717138 
4.380000000003131, -0.6000576644792991 
4.390000000003107, -0.6062152422577288 
4.400000000003084, -0.6130118259061862 
4.410000000003061, -0.6196780564314617 
4.4200000000030375, -0.6254917340835029 
4.430000000003014, -0.6300625568858546 
4.440000000002991, -0.6333775308515348 
4.450000000002968, -0.6356477715791738 
4.460000000002944, -0.6371384174869854 
4.470000000002921, -0.6380769172662061 
4.480000000002898, -0.6386289303819677 
4.490000000002874, -0.6389045003988242 
4.500000000002851, -0.6389709010383571 
4.510000000002828, -0.6388631988525041 
4.520000000002804, -0.6385906239760805 
4.530000000002781, -0.6381392464453832 
4.540000000002758, -0.6374724003319442 
4.5500000000027345, -0.636531509137673 
4.560000000002711, -0.6352420263105193 
4.570000000002688, -0.6335308664453512 
4.580000000002665, -0.631358586872721 
4.590000000002641, -0.6287569435229731 
4.600000000002618, -0.6258467061254808 
4.610000000002595, -0.6228140660873345 
4.620000000002571, -0.6198550952769317 
4.630000000002548, -0.6171240310343167 
4.640000000002525, -0.6147117022442512 
4.6500000000025015, -0.6126524288152602 
4.660000000002478, -0.6109430728399885 
4.670000000002455, -0.6095610180414553 
4.6800000000024315, -0.6084761302913423 
4.690000000002408, -0.6076570731797594 
4.700000000002385, -0.6070740297558554 
4.710000000002362, -0.6066996886581568 
4.720000000002338, -0.6065096560373371 
4.730000000002315, -0.6064828354796447 
4.740000000002292, -0.6066019158519624 
4.750000000002268, -0.6068538895124085 
4.760000000002245, -0.6072303984431732 
4.770000000002222, -0.6077275642883421 
4.7800000000021985, -0.6083447325730811 
4.790000000002175, -0.6090813392120538 
4.800000000002152, -0.6099312525139409 
4.810000000002129, -0.6108750362919138 
4.820000000002105, -0.6118728863588848 
4.830000000002082, -0.612863398878444 
4.840000000002059, -0.6137727642821218 
4.850000000002035, -0.6145329617392464 
4.860000000002012, -0.6150996033763798 
4.870000000001989, -0.615459029155372 
4.880000000001965, -0.6156224555209366 
4.890000000001942, -0.6156135394587969 
4.900000000001919, -0.6154568836277159 
4.9100000000018955, -0.6151708971985834 
4.920000000001872, -0.6147646513719571 
