t, s[1].omega / s[0].omega 
0, -0.499997756380404 
0.009999999999999995, -0.49978436194186193 
0.019999999999999934, -0.49958763137495915 
0.029999999999999874, -0.49939448114640717 
0.04000000000000012, -0.4991886778351725 
0.050000000000000405, -0.49895598854465506 
0.06000000000000069, -0.4986873254604027 
0.07000000000000098, -0.49837924882795415 
0.08000000000000126, -0.4980327592528527 
0.09000000000000155, -0.49765179879138016 
0.10000000000000184, -0.4972424820885147 
0.11000000000000212, -0.4968135019560824 
0.12000000000000241, -0.4963777946586596 
0.130000000000002, -0.495955335505698 
0.1400000000000009, -0.49557649867394826 
0.1499999999999998, -0.4952841899778342 
0.1599999999999987, -0.49513032482290764 
0.1699999999999976, -0.49515854839496776 
0.1799999999999965, -0.49536515961326416 
0.1899999999999954, -0.49564710837335746 
0.1999999999999943, -0.49578807851074924 
0.2099999999999932, -0.4955537602935703 
0.2199999999999921, -0.49486670514502806 
0.229999999999991, -0.4938818108515005 
0.2399999999999899, -0.49286516783982953 
0.2499999999999888, -0.49202022533852796 
0.2599999999999877, -0.49142100745065154 
0.2699999999999866, -0.4910462514109327 
0.2799999999999855, -0.49083629474302287 
0.2899999999999844, -0.49073005153257565 
0.2999999999999833, -0.4906794304658608 
0.3099999999999822, -0.49065100502403425 
0.3199999999999811, -0.4906229409614153 
0.32999999999998, -0.49058121910059305 
0.3399999999999789, -0.4905166804708408 
0.3499999999999778, -0.4904233196593918 
0.35999999999997667, -0.49029786600483377 
0.36999999999997557, -0.4901404726652194 
0.37999999999997447, -0.4899559609130278 
0.38999999999997337, -0.48975453835321014 
0.39999999999997227, -0.48955066485481635 
0.40999999999997117, -0.4893594042725612 
0.41999999999997006, -0.4891911807960665 
0.42999999999996896, -0.4890473074932834 
0.43999999999996786, -0.4889187183356203 
0.44999999999996676, -0.48878876631766605 
0.45999999999996566, -0.4886386974878348 
0.46999999999996456, -0.4884529951265587 
0.47999999999996346, -0.4882222589940815 
0.48999999999996235, -0.487943151927264 
0.49999999999996125, -0.48761657788129786 
0.5099999999999602, -0.4872456278218403 
0.519999999999959, -0.4868342726769793 
0.529999999999958, -0.486387102242677 
0.5399999999999568, -0.48590999149989117 
0.5499999999999557, -0.4854112966465518 
0.5599999999999546, -0.4849026523561929 
0.5699999999999535, -0.4843971727392805 
0.5799999999999524, -0.48390063520042625 
0.5899999999999513, -0.48338965956217245 
0.5999999999999502, -0.4827768999358262 
0.6099999999999491, -0.48188857729991835 
0.619999999999948, -0.4805147224570824 
0.6299999999999469, -0.4785622891429944 
0.6399999999999458, -0.47619425109280533 
0.6499999999999447, -0.47377375503439334 
0.6599999999999436, -0.47164880819812466 
0.6699999999999425, -0.46999717180121303 
0.6799999999999414, -0.4688261883774799 
0.6899999999999403, -0.46805074381192846 
0.6999999999999392, -0.46756303060234383 
0.7099999999999381, -0.4672682793773587 
0.719999999999937, -0.4670951857022484 
0.7299999999999359, -0.46699440499089173 
0.7399999999999348, -0.4669334377371806 
0.7499999999999337, -0.4668915817694718 
0.7599999999999326, -0.4668561528772375 
0.7699999999999315, -0.4668201666283668 
0.7799999999999304, -0.4667813178033494 
0.7899999999999293, -0.4667418805310926 
0.7999999999999282, -0.4667088490701355 
0.8099999999999271, -0.4666933067061193 
0.819999999999926, -0.4667080121958132 
0.8299999999999249, -0.4667629310218758 
0.8399999999999238, -0.46685983357802285 
0.8499999999999227, -0.46698836772500457 
0.8599999999999216, -0.46712615230438603 
0.8699999999999205, -0.46724379010480543 
0.8799999999999194, -0.46731280285688814 
0.8899999999999183, -0.46731246730247566 
0.8999999999999172, -0.46723239490161017 
0.9099999999999161, -0.4670706919342977 
0.919999999999915, -0.4668298247416689 
0.9299999999999139, -0.46651240958161494 
0.9399999999999128, -0.46611792767589855 
0.9499999999999117, -0.4656401990470207 
0.9599999999999106, -0.4650648087717239 
0.9699999999999095, -0.46436534038653854 
0.9799999999999084, -0.4634969575765952 
0.9899999999999073, -0.46238582671594325 
0.9999999999999062, -0.4609147122680686 
1.0099999999999052, -0.45891288568570576 
1.019999999999904, -0.45617588519127994 
1.029999999999903, -0.4525533825499992 
1.039999999999902, -0.4481002676410702 
1.0499999999999008, -0.44317077943745886 
1.0599999999998997, -0.43831055852305284 
1.0699999999998986, -0.4340051422468892 
1.0799999999998975, -0.43050689317526974 
1.0899999999998964, -0.42783797684037184 
1.0999999999998953, -0.4258874392037547 
1.1099999999998942, -0.42450265508718965 
1.119999999999893, -0.42354056741135154 
1.129999999999892, -0.42288634495519517 
1.1399999999998909, -0.42245509779412516 
1.1499999999998898, -0.42218732853944296 
1.1599999999998887, -0.4220432981122654 
1.1699999999998876, -0.42199825572806854 
1.1799999999998865, -0.42203901228681334 
1.1899999999998854, -0.42216175963526376 
1.1999999999998843, -0.4223707884407946 
1.2099999999998832, -0.4226775347952777 
1.219999999999882, -0.42309907498566607 
1.229999999999881, -0.42365485902719885 
1.2399999999998799, -0.4243604373787389 
1.2499999999998788, -0.42521777459909843 
1.2599999999998777, -0.42620411311131756 
1.2699999999998766, -0.427264999844103 
1.2799999999998755, -0.4283190587778277 
1.2899999999998744, -0.42927734317692934 
1.2999999999998733, -0.4300688659701259 
1.3099999999998722, -0.43065718120473095 
1.319999999999871, -0.43103991807477426 
1.32999999999987, -0.4312361581356611 
1.3399999999998689, -0.43127173684408665 
1.3499999999998678, -0.43116864127899823 
1.3599999999998666, -0.4309391719270872 
1.3699999999998655, -0.4305829290430131 
1.3799999999998644, -0.43008461848677626 
1.3899999999998633, -0.4294116754096956 
1.3999999999998622, -0.4285122435114025 
1.4099999999998611, -0.427316424627331 
1.41999999999986, -0.4257468385244086 
1.429999999999859, -0.423745511914056 
1.4399999999998578, -0.4213157889778142 
1.4499999999998567, -0.41855725134143684 
1.4599999999998556, -0.4156583611897199 
1.4699999999998545, -0.4128372227556934 
1.4799999999998534, -0.4102689871170523 
1.4899999999998523, -0.40804763780019 
1.4999999999998512, -0.40619204368821216 
1.5099999999998501, -0.4046741689444964 
1.519999999999849, -0.4034468043349263 
1.529999999999848, -0.4024616580716584 
1.5399999999998468, -0.4016782818493003 
1.5499999999998457, -0.40106727585223023 
1.5599999999998446, -0.4006108256745291 
1.5699999999998435, -0.40030249072827057 
1.5799999999998424, -0.40014726428721703 
1.5899999999998413, -0.400162390389332 
1.5999999999998402, -0.4003791126014492 
1.6099999999998391, -0.40084523350783546 
1.619999999999838, -0.40162780748604004 
1.629999999999837, -0.40281408427525134 
1.6399999999998358, -0.4045065239209637 
1.6499999999998347, -0.40680443173457614 
1.6599999999998336, -0.40976320193950266 
1.6699999999998325, -0.413330618107336 
1.6799999999998314, -0.41728838694613224 
1.6899999999998303, -0.42126210565026617 
1.6999999999998292, -0.4248415742857909 
1.709999999999828, -0.4277460562082148 
1.719999999999827, -0.4299029754325936 
1.729999999999826, -0.43139965542705855 
1.7399999999998248, -0.43238577138430967 
1.7499999999998237, -0.433003665777392 
1.7599999999998226, -0.43336184430956487 
1.7699999999998215, -0.43353394293333103 
1.7799999999998204, -0.43356603583014175 
1.7899999999998193, -0.4334841934688827 
1.7999999999998182, -0.4333001627198927 
1.809999999999817, -0.4330155127467246 
1.819999999999816, -0.4326253864093924 
1.8299999999998149, -0.4321231139933806 
1.8399999999998138, -0.43150641005306734 
1.8499999999998127, -0.4307843175626558 
1.8599999999998116, -0.4299818468625759 
1.8699999999998105, -0.4291384399715087 
1.8799999999998094, -0.42829921942524624 
1.8899999999998083, -0.4275030386865134 
1.8999999999998072, -0.4267736675431908 
1.909999999999806, -0.42611773960497895 
1.919999999999805, -0.4255285900757538 
1.9299999999998039, -0.4249926787211919 
1.9399999999998028, -0.4244955198846001 
1.9499999999998017, -0.424025548210999 
1.9599999999998006, -0.42357586569269 
1.9699999999997995, -0.42314470637459445 
1.9799999999997984, -0.4227356393996081 
1.9899999999997973, -0.422358302305763 
1.9999999999997962, -0.4220301533749569 
2.0099999999998173, -0.42177948326721204 
2.0199999999998384, -0.42164958809875575 
2.0299999999998595, -0.42170314662041963 
2.0399999999998806, -0.42202367999505297 
2.0499999999999017, -0.42270659321541293 
2.059999999999923, -0.42382655378373146 
2.069999999999944, -0.42536940282133295 
2.079999999999965, -0.42714745518161024 
2.089999999999986, -0.42878561370202073 
2.100000000000007, -0.4298817569286749 
2.1100000000000283, -0.4302656629836813 
2.1200000000000494, -0.4300872139247264 
2.1300000000000705, -0.4296466109104058 
2.1400000000000916, -0.42918720279329536 
2.1500000000001127, -0.428824263210537 
2.160000000000134, -0.42857816834227097 
2.170000000000155, -0.42842652997956987 
2.180000000000176, -0.4283374364190837 
2.190000000000197, -0.4282833249648026 
2.2000000000002182, -0.42824422359625763 
2.2100000000002393, -0.4282068949480299 
2.2200000000002604, -0.4281631199317407 
2.2300000000002815, -0.4281084043074598 
2.2400000000003026, -0.4280415100711476 
2.2500000000003237, -0.4279647974104209 
2.260000000000345, -0.4278850011309384 
2.270000000000366, -0.42781362920337357 
2.280000000000387, -0.4277658769956605 
2.290000000000408, -0.4277572499963756 
2.3000000000004293, -0.4277981988141154 
2.3100000000004504, -0.4278885428485618 
2.3200000000004715, -0.4280143780511622 
2.3300000000004926, -0.42814970857666107 
2.3400000000005137, -0.42826290055238836 
2.3500000000005348, -0.42832512802277894 
2.360000000000556, -0.4283165853765615 
2.370000000000577, -0.4282279071069565 
2.380000000000598, -0.42805739900842965 
2.390000000000619, -0.42780647128719895 
2.4000000000006403, -0.42747524480639215 
2.4100000000006614, -0.42705892944912566 
2.4200000000006825, -0.42654447091105324 
2.4300000000007036, -0.4259063913942078 
2.4400000000007247, -0.42510050553006345 
2.450000000000746, -0.42405437069243784 
2.460000000000767, -0.42265508928541473 
2.470000000000788, -0.4207413362666498 
2.480000000000809, -0.4181199143119961 
2.49000000000083, -0.4146382441053351 
2.5000000000008513, -0.4103152316759574 
2.5100000000008724, -0.4054408523909502 
2.5200000000008935, -0.40051055475277186 
2.5300000000009146, -0.39600857666564127 
2.5400000000009357, -0.392225889649333 
2.550000000000957, -0.3892325944195755 
2.560000000000978, -0.3869551245865873 
2.570000000000999, -0.3852637482102551 
2.58000000000102, -0.38402728815377546 
2.5900000000010412, -0.38313624193578827 
2.6000000000010624, -0.38250781636150755 
2.6100000000010835, -0.3820834858201476 
2.6200000000011046, -0.38182466921601116 
2.6300000000011257, -0.38170884565342506 
2.6400000000011468, -0.38172683058455126 
2.650000000001168, -0.3818812653721404 
2.660000000001189, -0.38218607249740477 
2.67000000000121, -0.3826663546005392 
2.680000000001231, -0.3833577491879841 
2.6900000000012523, -0.3843034711886316 
2.7000000000012734, -0.38554631364639114 
2.7100000000012945, -0.38711258837566376 
2.7200000000013156, -0.38898761005910015 
2.7300000000013367, -0.39109066300338663 
2.740000000001358, -0.39326901773875467 
2.750000000001379, -0.3953303328940186 
2.7600000000014, -0.3971056387720745 
2.770000000001421, -0.39850220491294647 
2.780000000001442, -0.39951211709167334 
2.7900000000014633, -0.4001832100958138 
2.8000000000014844, -0.40058236988230334 
2.8100000000015055, -0.400771067701442 
2.8200000000015266, -0.4007951441885334 
2.8300000000015477, -0.40068308643915956 
2.840000000001569, -0.40044752374994885 
2.85000000000159, -0.4000873454954478 
2.860000000001611, -0.39959003996245146 
2.870000000001632, -0.3989353218972411 
2.8800000000016532, -0.3981019204710653 
2.8900000000016743, -0.39707879739331464 
2.9000000000016954, -0.39587879276933274 
2.9100000000017165, -0.3945475105588406 
2.9200000000017377, -0.3931586764247797 
2.9300000000017588, -0.3917948634950024 
2.94000000000178, -0.39052418130377625 
2.950000000001801, -0.3893861721726821 
2.960000000001822, -0.388391416760566 
2.970000000001843, -0.3875301172858471 
2.9800000000018643, -0.3867827112792942 
2.9900000000018854, -0.386128251124689 
3.0000000000019065, -0.3855494341791137 
3.0100000000019276, -0.38503496268878284 
3.0200000000019487, -0.38458047677792573 
3.03000000000197, -0.3841892026630478 
3.040000000001991, -0.383873143988169 
3.050000000002012, -0.383655361376438 
3.060000000002033, -0.3835736620114024 
3.070000000002054, -0.3836856659695176 
3.0800000000020753, -0.3840742506037795 
3.0900000000020964, -0.3848498877639043 
3.1000000000021175, -0.38614118940535147 
3.1100000000021386, -0.3880576007994571 
3.1200000000021597, -0.3906078447580474 
3.130000000002181, -0.3935907373948071 
3.140000000002202, -0.3965572690933103 
3.150000000002223, -0.39897629979840266 
3.160000000002244, -0.40054179206563384 
3.1700000000022652, -0.4013167542360697 
3.1800000000022863, -0.4015819734513236 
3.1900000000023074, -0.40161017908023944 
3.2000000000023285, -0.40156606674793494 
3.2100000000023496, -0.401518986281852 
3.2200000000023707, -0.40148600103551935 
3.230000000002392, -0.4014636153597154 
3.240000000002413, -0.40144342163321045 
3.250000000002434, -0.4014178643182123 
3.260000000002455, -0.40138162013371226 
3.2700000000024763, -0.4013315963172606 
3.2800000000024974, -0.40126689474287475 
3.2900000000025185, -0.401189252664099 
3.3000000000025396, -0.40110398263818403 
3.3100000000025607, -0.4010209694215843 
3.3200000000025818, -0.400954811233669 
3.330000000002603, -0.40092302813519254 
3.340000000002624, -0.4009418158081822 
3.350000000002645, -0.4010201031000962 
3.360000000002666, -0.40115406124038266 
3.3700000000026873, -0.4013248715392456 
3.3800000000027084, -0.4015017718433073 
3.3900000000027295, -0.40164988573974825 
3.4000000000027506, -0.4017392706078284 
3.4100000000027717, -0.4017506809221339 
3.420000000002793, -0.40167593436537397 
3.430000000002814, -0.40151416283218627 
3.440000000002835, -0.40126664687813846 
3.450000000002856, -0.4009320778694233 
3.460000000002877, -0.4005025615022282 
3.4700000000028983, -0.3999596287822703 
3.4800000000029194, -0.3992691050791858 
3.4900000000029405, -0.39837380308987524 
3.5000000000029616, -0.39718415348747144 
3.5100000000029827, -0.3955707707494282 
3.520000000003004, -0.39337174987893575 
3.530000000003025, -0.3904377173716508 
3.540000000003046, -0.3867276772999224 
3.550000000003067, -0.38241050452975583 
3.5600000000030882, -0.37786508569043636 
3.5700000000031094, -0.3735342999452661 
3.5800000000031305, -0.3697455736799097 
3.5900000000031516, -0.3666357086458904 
3.6000000000031727, -0.3641886087277252 
3.6100000000031938, -0.3623108715071194 
3.620000000003215, -0.3608903285243317 
3.630000000003236, -0.3598261255438164 
3.640000000003257, -0.35903899222367724 
3.650000000003278, -0.35847186509244555 
3.6600000000032993, -0.35808719908313813 
3.6700000000033204, -0.3578639916030552 
3.6800000000033415, -0.35779569926036525 
3.6900000000033626, -0.35788938789639524 
3.7000000000033837, -0.35816608710354536 
3.710000000003405, -0.3586620385630622 
3.720000000003426, -0.35943002274560937 
3.730000000003447, -0.36053889295578967 
3.740000000003468, -0.36206756716908683 
3.750000000003489, -0.364087409151272 
3.7600000000035103, -0.3666268827470243 
3.7700000000035314, -0.36962140630648693 
3.7800000000035525, -0.37287509984319067 
3.7900000000035736, -0.37608261558792677 
3.8000000000035947, -0.37893099391299456 
3.810000000003616, -0.3812199524517007 
3.820000000003637, -0.3829080537423898 
3.830000000003658, -0.384069300940305 
3.840000000003679, -0.38482065225871964 
3.8500000000037002, -0.3852720323651834 
3.8600000000037213, -0.38550719757019164 
3.8700000000037424, -0.38558269803548206 
3.8800000000037635, -0.38553302436092757 
3.8900000000037847, -0.385376231234378 
3.9000000000038058, -0.38511855476810236 
3.910000000003827, -0.384758446792995 
3.920000000003848, -0.3842910898481895 
3.930000000003869, -0.3837142634444832 
3.94000000000389, -0.38303522103243715 
3.9500000000039113, -0.3822761261831428 
3.9600000000039324, -0.38147419640878893 
3.9700000000039535, -0.38067450329683644 
3.9800000000039746, -0.37991819311065156 
3.9900000000039957, -0.37923229711962114 
4.000000000004016, -0.37862578077417 
4.010000000003993, -0.378092091264775 
4.02000000000397, -0.377615372182092 
4.030000000003946, -0.37717706023329234 
4.040000000003923, -0.376760690173856 
4.0500000000039, -0.37635422972311694 
4.0600000000038765, -0.3759504449411276 
4.070000000003853, -0.37554630113782006 
4.08000000000383, -0.37514228767422453 
4.090000000003807, -0.3747421475941841 
4.100000000003783, -0.37435304842260503 
4.11000000000376, -0.3739857146397513 
4.120000000003737, -0.37365312502632714 
4.130000000003713, -0.37336453362982236 
4.14000000000369, -0.37310864463150084 
4.150000000003667, -0.372818349493124 
4.1600000000036434, -0.3723202360374806 
4.17000000000362, -0.3713127835512242 
4.180000000003597, -0.36946772661845456 
4.1900000000035735, -0.3666811625872967 
4.20000000000355, -0.3632562108671761 
4.210000000003527, -0.3597567842677257 
4.220000000003504, -0.35666924755964075 
4.23000000000348, -0.35421673540056087 
4.240000000003457, -0.35239840349129303 
4.250000000003434, -0.35110629083716766 
4.26000000000341, -0.35021165692809963 
4.270000000003387, -0.3496039359348876 
4.280000000003364, -0.3492005091540467 
4.2900000000033405, -0.34894439559166024 
4.300000000003317, -0.34879887276057675 
4.310000000003294, -0.34874256076459514 
4.320000000003271, -0.3487659495680946 
4.330000000003247, -0.34886937710478577 
4.340000000003224, -0.3490621071016783 
4.350000000003201, -0.34936191219742263 
4.360000000003177, -0.34979422492030365 
4.370000000003154, -0.35038945568299507 
4.380000000003131, -0.35117670259833694 
4.390000000003107, -0.352172401130015 
4.400000000003084, -0.35336466525390714 
4.410000000003061, -0.35469915423415654 
4.4200000000030375, -0.3560779039003019 
4.430000000003014, -0.3573803795527414 
4.440000000002991, -0.3585003508454091 
4.450000000002968, -0.359376081045356 
4.460000000002944, -0.3599960447618028 
4.470000000002921, -0.3603834150621389 
4.480000000002898, -0.36057489668771814 
4.490000000002874, -0.3606051601814115 
4.500000000002851, -0.3604990031786697 
4.510000000002828, -0.36026866242109623 
4.520000000002804, -0.35991345961933846 
4.530000000002781, -0.35942042752070463 
4.540000000002758, -0.35876622298799543 
4.5500000000027345, -0.35792208050287366 
4.560000000002711, -0.3568641319914795 
4.570000000002688, -0.35558938028493514 
4.580000000002665, -0.3541316333679253 
4.590000000002641, -0.3525655700114179 
4.600000000002618, -0.35099049050640296 
4.610000000002595, -0.3495005387104422 
4.620000000002571, -0.3481597250475353 
4.630000000002548, -0.34699415425988106 
4.640000000002525, -0.3459993945121737 
4.6500000000025015, -0.34515368371015936 
4.660000000002478, -0.3444296835228092 
4.670000000002455, -0.34380210390206406 
4.6800000000024315, -0.34325151317241814 
4.690000000002408, -0.3427657176395208 
4.700000000002385, -0.34234012038578704 
4.710000000002362, -0.3419781234363308 
4.720000000002338, -0.3416922626643139 
4.730000000002315, -0.3415064656322355 
4.740000000002292, -0.34145949182275726 
4.750000000002268, -0.3416088834712583 
4.760000000002245, -0.3420328526779475 
4.770000000002222, -0.34282325565214145 
4.7800000000021985, -0.34405579608556836 
4.790000000002175, -0.3457201514032677 
4.800000000002152, -0.3476169221306541 
4.810000000002129, -0.34930901979300655 
4.820000000002105, -0.35028026718838096 
4.830000000002082, -0.3502788358545389 
4.840000000002059, -0.3494962030836485 
4.850000000002035, -0.34836683899303356 
4.860000000002012, -0.34725957988832973 
