t, s[1].omega / s[0].omega 
0, -0.7499976720812492 
0.009999999999999995, -0.7497422468197142 
0.019999999999999934, -0.7494409336802225 
0.029999999999999874, -0.7490916880402766 
0.04000000000000012, -0.7486942157180577 
0.050000000000000405, -0.7482525421883652 
0.06000000000000069, -0.7477763874732312 
0.07000000000000098, -0.7472816093326544 
0.08000000000000126, -0.7467905958717697 
0.09000000000000155, -0.7463331595888123 
0.10000000000000184, -0.7459477338133301 
0.11000000000000212, -0.7456820536616537 
0.12000000000000241, -0.74559229795602 
0.130000000000002, -0.7457399626387635 
0.1400000000000009, -0.7461864209893379 
0.1499999999999998, -0.7469858140705392 
0.1599999999999987, -0.7481770865769367 
0.1699999999999976, -0.7497754482047333 
0.1799999999999965, -0.7517628784830336 
0.1899999999999954, -0.754077835282426 
0.1999999999999943, -0.7566073578185685 
0.2099999999999932, -0.7591895471319335 
0.2199999999999921, -0.76163582447345 
0.229999999999991, -0.763773048761291 
0.2399999999999899, -0.7654876526176049 
0.2499999999999888, -0.7667461577007153 
0.2599999999999877, -0.7675824489172725 
0.2699999999999866, -0.7680659281923603 
0.2799999999999855, -0.7682713808673663 
0.2899999999999844, -0.7682610947940063 
0.2999999999999833, -0.7680784645656966 
0.3099999999999822, -0.767748184672225 
0.3199999999999811, -0.7672791496579696 
0.32999999999998, -0.7666685449242153 
0.3399999999999789, -0.7659076508395345 
0.3499999999999778, -0.7649913406999418 
0.35999999999997667, -0.7639338057824664 
0.36999999999997557, -0.7627912403794971 
0.37999999999997447, -0.7616854513139338 
0.38999999999997337, -0.7608100480753447 
0.39999999999997227, -0.7603929600130376 
0.40999999999997117, -0.7606090173315353 
0.41999999999997006, -0.7614893749372613 
0.42999999999996896, -0.7629007368510662 
0.43999999999996786, -0.7646083014306339 
0.44999999999996676, -0.7663646603006677 
0.45999999999996566, -0.7679738954340503 
0.46999999999996456, -0.7693191984246892 
0.47999999999996346, -0.7703591234164493 
0.48999999999996235, -0.7711046827583505 
0.49999999999996125, -0.7715925526459968 
0.5099999999999602, -0.7718644381527898 
0.519999999999959, -0.7719548274350971 
0.529999999999958, -0.7718848654253456 
0.5399999999999568, -0.7716591836285779 
0.5499999999999557, -0.7712633222489509 
0.5599999999999546, -0.7706606586807884 
0.5699999999999535, -0.769789409551237 
0.5799999999999524, -0.768562756811612 
0.5899999999999513, -0.7668783699246084 
0.5999999999999502, -0.7646449193119014 
0.6099999999999491, -0.7618264124985614 
0.619999999999948, -0.7584871723498641 
0.6299999999999469, -0.7548050417558606 
0.6399999999999458, -0.751033609897573 
0.6499999999999447, -0.7474325992884229 
0.6599999999999436, -0.7442071971796979 
0.6699999999999425, -0.7414808324027459 
0.6799999999999414, -0.7392980110292957 
0.6899999999999403, -0.7376418940809383 
0.6999999999999392, -0.7364547900460855 
0.7099999999999381, -0.7356565294779627 
0.719999999999937, -0.7351594338979253 
0.7299999999999359, -0.7348794888201129 
0.7399999999999348, -0.7347434063256244 
0.7499999999999337, -0.7346916620884395 
0.7599999999999326, -0.7346782937443268 
0.7699999999999315, -0.7346687894513902 
0.7799999999999304, -0.7346375063136155 
0.7899999999999293, -0.7345657618351947 
0.7999999999999282, -0.7344411366130641 
0.8099999999999271, -0.7342576857793871 
0.819999999999926, -0.7340159461566056 
0.8299999999999249, -0.7337214917642667 
0.8399999999999238, -0.7333818388688021 
0.8499999999999227, -0.7330031135053987 
0.8599999999999216, -0.732588492642737 
0.8699999999999205, -0.7321392607071927 
0.8799999999999194, -0.7316575134668735 
0.8899999999999183, -0.7311488062175515 
0.8999999999999172, -0.7306237797564302 
0.9099999999999161, -0.7300989482471285 
0.919999999999915, -0.7295973146437025 
0.9299999999999139, -0.7291491616480386 
0.9399999999999128, -0.7287927585352005 
0.9499999999999117, -0.7285743047266994 
0.9599999999999106, -0.728546411147619 
0.9699999999999095, -0.7287647900270635 
0.9799999999999084, -0.7292833672805157 
0.9899999999999073, -0.7301483635429372 
0.9999999999999062, -0.7313916780272249 
1.0099999999999052, -0.7330232312468491 
1.019999999999904, -0.7350215074443501 
1.029999999999903, -0.7373226623312108 
1.039999999999902, -0.7398122554668307 
1.0499999999999008, -0.7423286355691098 
1.0599999999998997, -0.7446873428754262 
1.0699999999998986, -0.7467245367320869 
1.0799999999998975, -0.7483391564978015 
1.0899999999998964, -0.7495088013945059 
1.0999999999998953, -0.7502733305134236 
1.1099999999998942, -0.7507026471449135 
1.119999999999893, -0.7508685269739882 
1.129999999999892, -0.7508289048900405 
1.1399999999998909, -0.7506227265033496 
1.1499999999998898, -0.7502704229771943 
1.1599999999998887, -0.7497764202816859 
1.1699999999998876, -0.7491323271715088 
1.1799999999998865, -0.7483212315483878 
1.1899999999998854, -0.747324765603021 
1.1999999999998843, -0.7461350643438713 
1.2099999999998832, -0.7447723349772535 
1.219999999999882, -0.7433037254394177 
1.229999999999881, -0.7418511478269004 
1.2399999999998799, -0.7405733486400539 
1.2499999999998788, -0.7396237434201547 
1.2599999999998777, -0.739109397167066 
1.2699999999998766, -0.7390688444487841 
1.2799999999998755, -0.7394596002950958 
1.2899999999998744, -0.7401596930639082 
1.2999999999998733, -0.741003621110388 
1.3099999999998722, -0.7418381865527113 
1.319999999999871, -0.7425599513470489 
1.32999999999987, -0.7431198995904844 
1.3399999999998689, -0.7435079092783481 
1.3499999999998678, -0.743733457808057 
1.3599999999998666, -0.7438107598338344 
1.3699999999998655, -0.7437494411475235 
1.3799999999998644, -0.7435489998179925 
1.3899999999998633, -0.7431951557411928 
1.3999999999998622, -0.7426571817324974 
1.4099999999998611, -0.7418868774624143 
1.41999999999986, -0.7408218524397043 
1.429999999999859, -0.7393973581112249 
1.4399999999998578, -0.7375693470192684 
1.4499999999998567, -0.7353436505914251 
1.4599999999998556, -0.7327952762376753 
1.4699999999998545, -0.7300609220237587 
1.4799999999998534, -0.7273049924591019 
1.4899999999998523, -0.724679219907123 
1.4999999999998512, -0.7222967114059872 
1.5099999999998501, -0.7202258028720996 
1.519999999999849, -0.7184964367665868 
1.529999999999848, -0.7171100274065358 
1.5399999999998468, -0.7160479686989896 
1.5499999999998457, -0.7152779295728641 
1.5599999999998446, -0.714758799589445 
1.5699999999998435, -0.7144451267428009 
1.5799999999998424, -0.7142912190726027 
1.5899999999998413, -0.7142545535774718 
1.5999999999998402, -0.7142980708300594 
1.6099999999998391, -0.7143912433752948 
1.619999999999838, -0.7145101894826549 
1.629999999999837, -0.714637273199464 
1.6399999999998358, -0.7147604557569247 
1.6499999999998347, -0.7148722434861702 
1.6599999999998336, -0.7149677909926242 
1.6699999999998325, -0.7150420572443078 
1.6799999999998314, -0.7150869322955244 
1.6899999999998303, -0.7150901062156799 
1.6999999999998292, -0.7150369476747688 
1.709999999999828, -0.7149147207490768 
1.719999999999827, -0.7147167328431775 
1.729999999999826, -0.7144442452162256 
1.7399999999998248, -0.7141059398059111 
1.7499999999998237, -0.7137164786616998 
1.7599999999998226, -0.7132959662578096 
1.7699999999998215, -0.7128713495107429 
1.7799999999998204, -0.7124798904832753 
1.7899999999998193, -0.7121741818735197 
1.7999999999998182, -0.7120275925742956 
1.809999999999817, -0.7121383453353862 
1.819999999999816, -0.7126296803170461 
1.8299999999998149, -0.7136429554598827 
1.8399999999998138, -0.7153202920378732 
1.8499999999998127, -0.7177738638614357 
1.8599999999998116, -0.7210415371873214 
1.8699999999998105, -0.7250364693577742 
1.8799999999998094, -0.7295135708902893 
1.8899999999998083, -0.7340892938801014 
1.8999999999998072, -0.738336429156308 
1.909999999999806, -0.741918847898725 
1.919999999999805, -0.7446827973349184 
1.9299999999998039, -0.746652151257768 
1.9399999999998028, -0.7479556182555754 
1.9499999999998017, -0.7487490686078457 
1.9599999999998006, -0.7491686561890066 
1.9699999999997995, -0.7493143147686961 
1.9799999999997984, -0.7492497049901774 
1.9899999999997973, -0.7490071416477819 
1.9999999999997962, -0.7485916415984131 
2.0099999999998173, -0.7479818868530299 
2.0199999999998384, -0.7471275616550359 
2.0299999999998595, -0.7459434723668597 
2.0399999999998806, -0.7443025323412136 
2.0499999999999017, -0.7420338087020707 
2.059999999999923, -0.7389397755001036 
2.069999999999944, -0.7348552626809848 
2.079999999999965, -0.7297613700833397 
2.089999999999986, -0.7239130439963979 
2.100000000000007, -0.7178628337211037 
2.1100000000000283, -0.7122908163707854 
2.1200000000000494, -0.7077309602133417 
2.1300000000000705, -0.7043995487182984 
2.1400000000000916, -0.7022154693683967 
2.1500000000001127, -0.7009322171206185 
2.160000000000134, -0.700267746555872 
2.170000000000155, -0.6999802103699577 
2.180000000000176, -0.6998927913203713 
2.190000000000197, -0.6998891731378643 
2.2000000000002182, -0.6998980331104282 
2.2100000000002393, -0.6998767830723542 
2.2200000000002604, -0.6997985553821019 
2.2300000000002815, -0.6996431959287503 
2.2400000000003026, -0.6993919573791377 
2.2500000000003237, -0.6990256561328018 
2.260000000000345, -0.6985263713802853 
2.270000000000366, -0.6978824572774993 
2.280000000000387, -0.6970951297974125 
2.290000000000408, -0.6961828863153731 
2.3000000000004293, -0.6951799390297274 
2.3100000000004504, -0.6941283432643169 
2.3200000000004715, -0.6930680844110996 
2.3300000000004926, -0.6920304685790761 
2.3400000000005137, -0.6910370246523724 
2.3500000000005348, -0.690102413854419 
2.360000000000556, -0.6892385123124363 
2.370000000000577, -0.6884576567683905 
2.380000000000598, -0.6877743735835515 
2.390000000000619, -0.6872057167418771 
2.4000000000006403, -0.6867705748970151 
2.4100000000006614, -0.6864883182828373 
2.4200000000006825, -0.6863771748660115 
2.4300000000007036, -0.6864527511099938 
2.4400000000007247, -0.6867270354122096 
2.450000000000746, -0.6872079670757356 
2.460000000000767, -0.6878992485005004 
2.470000000000788, -0.6887996392494452 
2.480000000000809, -0.689900685196126 
2.49000000000083, -0.6911820216460404 
2.5000000000008513, -0.6926045467140832 
2.5100000000008724, -0.6941042410812001 
2.5200000000008935, -0.6955922788247413 
2.5300000000009146, -0.6969670076431045 
2.5400000000009357, -0.6981368719574819 
2.550000000000957, -0.6990434204955285 
2.560000000000978, -0.6996709018162598 
2.570000000000999, -0.7000385942394717 
2.58000000000102, -0.700183812089082 
2.5900000000010412, -0.7001460492482801 
2.6000000000010624, -0.6999573855238975 
2.6100000000010835, -0.6996388624123029 
2.6200000000011046, -0.6992006024179933 
2.6300000000011257, -0.698643992020574 
2.6400000000011468, -0.6979655079128814 
2.650000000001168, -0.6971628231269608 
2.660000000001189, -0.696244207781908 
2.67000000000121, -0.6952411390811075 
2.680000000001231, -0.6942201817421741 
2.6900000000012523, -0.6932836403249649 
2.7000000000012734, -0.6925456429447303 
2.7100000000012945, -0.6920859352179505 
2.7200000000013156, -0.6919179711085917 
2.7300000000013367, -0.692010014361552 
2.740000000001358, -0.6923297765312089 
2.750000000001379, -0.6928468381242536 
2.7600000000014, -0.6935031385615991 
2.770000000001421, -0.6942102785652018 
2.780000000001442, -0.6948790603550508 
2.7900000000014633, -0.6954462860311952 
2.8000000000014844, -0.6958810802484638 
2.8100000000015055, -0.6961767256087931 
2.8200000000015266, -0.6963387761021012 
2.8300000000015477, -0.6963752497017286 
2.840000000001569, -0.6962900515089667 
2.85000000000159, -0.6960788400035691 
2.860000000001611, -0.6957264604882514 
2.870000000001632, -0.6952058821884108 
2.8800000000016532, -0.6944798124004347 
2.8900000000016743, -0.6935072609311308 
2.9000000000016954, -0.6922568906782948 
2.9100000000017165, -0.690725129656114 
2.9200000000017377, -0.6889504979621427 
2.9300000000017588, -0.6870130472128915 
2.94000000000178, -0.6850159491072028 
2.950000000001801, -0.6830595388602955 
2.960000000001822, -0.6812222914950599 
2.970000000001843, -0.6795551115899986 
2.9800000000018643, -0.6780855765934976 
2.9900000000018854, -0.6768255395854055 
3.0000000000019065, -0.6757775654237116 
3.0100000000019276, -0.6749387497015344 
3.0200000000019487, -0.6743023513533543 
3.03000000000197, -0.673858276246888 
3.040000000001991, -0.6735933430970831 
3.050000000002012, -0.6734918860825856 
3.060000000002033, -0.6735368374387837 
3.070000000002054, -0.6737111152941334 
3.0800000000020753, -0.6739989728288239 
3.0900000000020964, -0.6743869168936938 
3.1000000000021175, -0.6748637877475502 
3.1100000000021386, -0.6754195552814674 
3.1200000000021597, -0.6760424620663198 
3.130000000002181, -0.6767146784222846 
3.140000000002202, -0.6774078913365686 
3.150000000002223, -0.6780817296136127 
3.160000000002244, -0.6786879914419218 
3.1700000000022652, -0.6791807150876858 
3.1800000000022863, -0.6795274984682871 
3.1900000000023074, -0.6797156710301033 
3.2000000000023285, -0.6797505335956319 
3.2100000000023496, -0.679648332714559 
3.2200000000023707, -0.6794287826387174 
3.230000000002392, -0.6791103379966994 
3.240000000002413, -0.6787090408452572 
3.250000000002434, -0.6782406528202412 
3.260000000002455, -0.6777259242201639 
3.2700000000024763, -0.677199427699602 
3.2800000000024974, -0.6767225698998657 
3.2900000000025185, -0.6764002430227909 
3.3000000000025396, -0.6763967175497194 
3.3100000000025607, -0.6769385407445363 
3.3200000000025818, -0.6782823153879255 
3.330000000002603, -0.6806252134141619 
3.340000000002624, -0.6839701121383998 
3.350000000002645, -0.6880303979388367 
3.360000000002666, -0.6922924732663537 
3.3700000000026873, -0.696234857349303 
3.3800000000027084, -0.6995303720355931 
3.3900000000027295, -0.7020873037122641 
3.4000000000027506, -0.7039677943073634 
3.4100000000027717, -0.7052931803109819 
3.420000000002793, -0.7061874215380048 
3.430000000002814, -0.7067542899465551 
3.440000000002835, -0.7070719159870594 
3.450000000002856, -0.7071939265495897 
3.460000000002877, -0.7071520954033941 
3.4700000000028983, -0.7069583532618069 
3.4800000000029194, -0.7066053626726481 
3.4900000000029405, -0.7060657254788929 
3.5000000000029616, -0.7052909648945052 
3.5100000000029827, -0.7042131963884047 
3.520000000003004, -0.7027546064436462 
3.530000000003025, -0.7008501179703421 
3.540000000003046, -0.6984822132226416 
3.550000000003067, -0.6957126805988437 
3.5600000000030882, -0.6926866547924153 
3.5700000000031094, -0.6895982252413921 
3.5800000000031305, -0.6866368067207911 
3.5900000000031516, -0.6839459376905436 
3.6000000000031727, -0.6816097082387531 
3.6100000000031938, -0.6796603975289041 
3.620000000003215, -0.678093789466476 
3.630000000003236, -0.6768831642503008 
3.640000000003257, -0.6759892164371418 
3.650000000003278, -0.6753665369388301 
3.6600000000032993, -0.6749680346259145 
3.6700000000033204, -0.6747482157347207 
3.6800000000033415, -0.6746656306954917 
3.6900000000033626, -0.6746844802126071 
3.7000000000033837, -0.6747753775998198 
3.710000000003405, -0.674915421164554 
3.720000000003426, -0.6750878257045843 
3.730000000003447, -0.6752812504087771 
3.740000000003468, -0.6754886486590082 
3.750000000003489, -0.6757051974845216 
3.7600000000035103, -0.6759250822584943 
3.7700000000035314, -0.6761378663658485 
3.7800000000035525, -0.6763263449195208 
3.7900000000035736, -0.676467890573827 
3.8000000000035947, -0.6765394985644091 
3.810000000003616, -0.6765240629311777 
3.820000000003637, -0.6764143901842691 
3.830000000003658, -0.6762132813002912 
3.840000000003679, -0.6759308681543652 
3.8500000000037002, -0.6755817385719327 
3.8600000000037213, -0.6751838439506845 
3.8700000000037424, -0.6747600719046535 
3.8800000000037635, -0.6743426944600908 
3.8900000000037847, -0.6739806887018065 
3.9000000000038058, -0.6737496661199798 
3.910000000003827, -0.6737632527607104 
3.920000000003848, -0.674182691182337 
3.930000000003869, -0.6752178074840272 
3.94000000000389, -0.6771076964207225 
3.9500000000039113, -0.680066515523228 
3.9600000000039324, -0.6841873031951132 
3.9700000000039535, -0.6893279238892183 
3.9800000000039746, -0.6950548631925131 
3.9900000000039957, -0.7007353431661958 
4.000000000004016, -0.705769102363557 
4.010000000003993, -0.7098034612539842 
4.02000000000397, -0.7127820122446579 
4.030000000003946, -0.7148446922180306 
4.040000000003923, -0.7161986226994947 
4.0500000000039, -0.7170362773849824 
4.0600000000038765, -0.7175052745745611 
4.070000000003853, -0.7177065804126629 
4.08000000000383, -0.7177020594369579 
4.090000000003807, -0.717522089783758 
4.100000000003783, -0.7171700190952629 
4.11000000000376, -0.7166227955319859 
4.120000000003737, -0.7158281828353018 
4.130000000003713, -0.7147002498789422 
4.14000000000369, -0.7131177122048781 
4.150000000003667, -0.7109347419556142 
4.1600000000036434, -0.7080177803151786 
4.17000000000362, -0.7043138359703859 
4.180000000003597, -0.6999252724785894 
4.1900000000035735, -0.6951329002278114 
4.20000000000355, -0.6903272835873245 
4.210000000003527, -0.685883520907171 
4.220000000003504, -0.6820609307954892 
4.23000000000348, -0.6789730851150387 
4.240000000003457, -0.6766136093607396 
4.250000000003434, -0.6749015383305081 
4.26000000000341, -0.6737218603240731 
4.270000000003387, -0.6729534457049725 
4.280000000003364, -0.6724852514530494 
4.2900000000033405, -0.6722239427433992 
4.300000000003317, -0.6720958253759651 
4.310000000003294, -0.672045342469149 
4.320000000003271, -0.6720318806865364 
4.330000000003247, -0.6720262233521239 
4.340000000003224, -0.6720076052232615 
4.350000000003201, -0.6719619147403528 
4.360000000003177, -0.6718810715352876 
4.370000000003154, -0.6717629457238661 
4.380000000003131, -0.6716106407400534 
4.390000000003107, -0.6714301393270039 
4.400000000003084, -0.671226550768527 
4.410000000003061, -0.6710007340816277 
4.4200000000030375, -0.6707484042884587 
4.430000000003014, -0.6704623598103506 
4.440000000002991, -0.6701363989768121 
4.450000000002968, -0.6697686719142548 
4.460000000002944, -0.6693632137049731 
4.470000000002921, -0.6689300590177436 
4.480000000002898, -0.6684852215482533 
4.490000000002874, -0.6680516392671848 
4.500000000002851, -0.6676615291060617 
4.510000000002828, -0.667359986206537 
4.520000000002804, -0.6672092016935424 
4.530000000002781, -0.6672922407854266 
4.540000000002758, -0.6677148097256728 
4.5500000000027345, -0.6686027730010677 
4.560000000002711, -0.6700922922098402 
4.570000000002688, -0.6723084925225622 
4.580000000002665, -0.6753287161123617 
4.590000000002641, -0.6791311800124559 
4.600000000002618, -0.6835441192759169 
4.610000000002595, -0.6882318434747754 
4.620000000002571, -0.6927582579155855 
4.630000000002548, -0.6967221200398632 
4.640000000002525, -0.6998854696236604 
4.6500000000025015, -0.7022101117632286 
4.660000000002478, -0.7037995646152206 
4.670000000002455, -0.7048119065131446 
4.6800000000024315, -0.705397661418045 
4.690000000002408, -0.7056732704516187 
4.700000000002385, -0.7057170887800792 
4.710000000002362, -0.7055738379709161 
4.720000000002338, -0.7052595226036313 
4.730000000002315, -0.7047635383299475 
4.740000000002292, -0.7040469521478495 
4.750000000002268, -0.7030370080667688 
4.760000000002245, -0.701619428367348 
4.770000000002222, -0.699633904590727 
4.7800000000021985, -0.6968857528771059 
4.790000000002175, -0.6931947091635737 
4.800000000002152, -0.6884938560291565 
4.810000000002129, -0.6829450091032798 
4.820000000002105, -0.6769748921487935 
4.830000000002082, -0.6711580979664314 
4.840000000002059, -0.6660079099117477 
4.850000000002035, -0.6618234491086317 
4.860000000002012, -0.6586683197949427 
4.870000000001989, -0.6564402592347724 
4.880000000001965, -0.6549590603750876 
4.890000000001942, -0.6540317216097605 
4.900000000001919, -0.6534876927153471 
4.9100000000018955, -0.6531918272300044 
4.920000000001872, -0.6530444723868949 
