t, s[1].omega / s[0].omega 
0, -0.7399976761506774 
0.009999999999999995, -0.7397446908364533 
0.019999999999999934, -0.7394488377425222 
0.029999999999999874, -0.7391055642258295 
0.04000000000000012, -0.7387117085067747 
0.050000000000000405, -0.7382691689935267 
0.06000000000000069, -0.7377868699632849 
0.07000000000000098, -0.7372813278056761 
0.08000000000000126, -0.736777058916694 
0.09000000000000155, -0.7363077025077441 
0.10000000000000184, -0.7359177526993841 
0.11000000000000212, -0.7356639462395472 
0.12000000000000241, -0.7356149927932415 
0.130000000000002, -0.735848586109798 
0.1400000000000009, -0.7364454148391919 
0.1499999999999998, -0.7374807629193254 
0.1599999999999987, -0.7390145541672164 
0.1699999999999976, -0.7410799712764816 
0.1799999999999965, -0.7436696927677848 
0.1899999999999954, -0.7467192190250386 
0.1999999999999943, -0.7500910682573378 
0.2099999999999932, -0.7535718680772886 
0.2199999999999921, -0.7568993044478651 
0.229999999999991, -0.7598236055427815 
0.2399999999999899, -0.7621777039033006 
0.2499999999999888, -0.7639126432267331 
0.2599999999999877, -0.7650794479259926 
0.2699999999999866, -0.7657800652011899 
0.2799999999999855, -0.7661219025007188 
0.2899999999999844, -0.7661923575046921 
0.2999999999999833, -0.7660508570328078 
0.3099999999999822, -0.7657299470271421 
0.3199999999999811, -0.7652391945491703 
0.32999999999998, -0.7645694117627542 
0.3399999999999789, -0.7636975776961248 
0.3499999999999778, -0.7625948927785049 
0.35999999999997667, -0.761241788374673 
0.36999999999997557, -0.7596530570906493 
0.37999999999997447, -0.7579100140922008 
0.38999999999997337, -0.7561820924830982 
0.39999999999997227, -0.7547072853915058 
0.40999999999997117, -0.753719090216787 
0.41999999999997006, -0.7533636624421576 
0.42999999999996896, -0.7536658976884338 
0.43999999999996786, -0.7545349163943655 
0.44999999999996676, -0.755780544062215 
0.45999999999996566, -0.7571626843898006 
0.46999999999996456, -0.7584688394471963 
0.47999999999996346, -0.7595663093478429 
0.48999999999996235, -0.7604043830635743 
0.49999999999996125, -0.760986865095379 
0.5099999999999602, -0.7613416372293632 
0.519999999999959, -0.7614992771445083 
0.529999999999958, -0.7614810267859892 
0.5399999999999568, -0.7612923916618871 
0.5499999999999557, -0.7609188976415721 
0.5599999999999546, -0.7603221491197171 
0.5699999999999535, -0.7594365320189584 
0.5799999999999524, -0.7581699935637015 
0.5899999999999513, -0.7564159795258006 
0.5999999999999502, -0.7540843058540383 
0.6099999999999491, -0.7511493139019205 
0.619999999999948, -0.747692872580709 
0.6299999999999469, -0.7439076379456138 
0.6399999999999458, -0.7400484966938288 
0.6499999999999447, -0.7363616632291362 
0.6599999999999436, -0.7330332340015077 
0.6699999999999425, -0.7301734581991051 
0.6799999999999414, -0.7278259653547333 
0.6899999999999403, -0.725985111627742 
0.6999999999999392, -0.7246118234488008 
0.7099999999999381, -0.7236458544548099 
0.719999999999937, -0.7230155637936473 
0.7299999999999359, -0.7226462620272144 
0.7399999999999348, -0.7224671005316892 
0.7499999999999337, -0.7224158726275434 
0.7599999999999326, -0.7224413325326143 
0.7699999999999315, -0.7225033439721573 
0.7799999999999304, -0.7225717703460535 
0.7899999999999293, -0.7226251531147359 
0.7999999999999282, -0.7226498150616252 
0.8099999999999271, -0.7226392132587193 
0.819999999999926, -0.7225926059561613 
0.8299999999999249, -0.7225121474616275 
0.8399999999999238, -0.7223987933155113 
0.8499999999999227, -0.7222490213703047 
0.8599999999999216, -0.7220546121905044 
0.8699999999999205, -0.7218058964870591 
0.8799999999999194, -0.7214964739472771 
0.8899999999999183, -0.7211267216488058 
0.8999999999999172, -0.7207049628734259 
0.9099999999999161, -0.7202472291052747 
0.919999999999915, -0.7197773365005827 
0.9299999999999139, -0.7193284002911916 
0.9399999999999128, -0.7189458291418482 
0.9499999999999117, -0.7186909218828585 
0.9599999999999106, -0.7186435809259397 
0.9699999999999095, -0.7189024021323789 
0.9799999999999084, -0.7195805915283473 
0.9899999999999073, -0.7207967046516299 
0.9999999999999062, -0.7226596328965906 
1.0099999999999052, -0.7252470962363622 
1.019999999999904, -0.7285767395065335 
1.029999999999903, -0.7325714863344814 
1.039999999999902, -0.7370299078903957 
1.0499999999999008, -0.7416265924322654 
1.0599999999998997, -0.74597020870357 
1.0699999999998986, -0.7497141648573676 
1.0799999999998975, -0.7526604507045358 
1.0899999999998964, -0.7547887270249805 
1.0999999999998953, -0.7562051385024872 
1.1099999999998942, -0.7570638274200203 
1.119999999999893, -0.757509345997817 
1.129999999999892, -0.7576514043465324 
1.1399999999998909, -0.7575608938852578 
1.1499999999998898, -0.7572740646507061 
1.1599999999998887, -0.7567971672133412 
1.1699999999998876, -0.756108543790333 
1.1799999999998865, -0.7551576400552114 
1.1899999999998854, -0.7538617515059652 
1.1999999999998843, -0.752102720897134 
1.2099999999998832, -0.7497282406226745 
1.219999999999882, -0.7465668462851116 
1.229999999999881, -0.7424726460533624 
1.2399999999998799, -0.7374196763272175 
1.2499999999998788, -0.7316389063247033 
1.2599999999998777, -0.7256999177347659 
1.2699999999998766, -0.7203736434681562 
1.2799999999998755, -0.7162843951463145 
1.2899999999998744, -0.7136371473447044 
1.2999999999998733, -0.7122377493096423 
1.3099999999998722, -0.7117051698484012 
1.319999999999871, -0.7116669192169643 
1.32999999999987, -0.7118489138878324 
1.3399999999998689, -0.7120827682788616 
1.3499999999998678, -0.7122784507762918 
1.3599999999998666, -0.7123928822728218 
1.3699999999998655, -0.712405782569993 
1.3799999999998644, -0.7123038732575604 
1.3899999999998633, -0.7120713368879045 
1.3999999999998622, -0.7116846060381574 
1.4099999999998611, -0.7111109981096508 
1.41999999999986, -0.7103123231393169 
1.429999999999859, -0.7092551028884724 
1.4399999999998578, -0.7079265902887537 
1.4499999999998567, -0.7063500302181589 
1.4599999999998556, -0.7045884708019541 
1.4699999999998545, -0.7027314947655753 
1.4799999999998534, -0.7008718200106937 
1.4899999999998523, -0.6990856906956721 
1.4999999999998512, -0.6974254111488019 
1.5099999999998501, -0.6959224249562405 
1.519999999999849, -0.6945946447804592 
1.529999999999848, -0.693452959995209 
1.5399999999998468, -0.6925049089023648 
1.5499999999998457, -0.6917556756248524 
1.5599999999998446, -0.6912074574647114 
1.5699999999998435, -0.6908583550579597 
1.5799999999998424, -0.6907016959640102 
1.5899999999998413, -0.6907262987674105 
1.5999999999998402, -0.6909177211567629 
1.6099999999998391, -0.691260131310336 
1.619999999999838, -0.6917381933015433 
1.629999999999837, -0.69233825873987 
1.6399999999998358, -0.6930481266748332 
1.6499999999998347, -0.69385468581588 
1.6599999999998336, -0.6947391858221024 
1.6699999999998325, -0.6956711741728945 
1.6799999999998314, -0.6966042416976623 
1.6899999999998303, -0.6974781042102431 
1.6999999999998292, -0.6982294620948141 
1.709999999999828, -0.6988079063597455 
1.719999999999827, -0.6991879171921049 
1.729999999999826, -0.6993701956695595 
1.7399999999998248, -0.6993735685482062 
1.7499999999998237, -0.6992241210332323 
1.7599999999998226, -0.6989472673723194 
1.7699999999998215, -0.6985647913935888 
1.7799999999998204, -0.6980966053838865 
1.7899999999998193, -0.6975668657587426 
1.7999999999998182, -0.6970150474809954 
1.809999999999817, -0.6965133966408705 
1.819999999999816, -0.6961916159454402 
1.8299999999998149, -0.6962657754380935 
1.8399999999998138, -0.6970585588062324 
1.8499999999998127, -0.6989810171370849 
1.8599999999998116, -0.7024314382315717 
1.8699999999998105, -0.707588448286592 
1.8799999999998094, -0.7141775210115917 
1.8899999999998083, -0.721424313219826 
1.8999999999998072, -0.7283475192612603 
1.909999999999806, -0.7342024580651881 
1.919999999999805, -0.73870409386818 
1.9299999999998039, -0.7419359736876683 
1.9399999999998028, -0.7441451505275433 
1.9499999999998017, -0.745594280825743 
1.9599999999998006, -0.7464988447653945 
1.9699999999997995, -0.747014917279743 
1.9799999999997984, -0.7472460819449803 
1.9899999999997973, -0.7472537206692893 
1.9999999999997962, -0.7470647322589664 
2.0099999999998173, -0.7466749359539998 
2.0199999999998384, -0.746047957806822 
2.0299999999998595, -0.7451104179923685 
2.0399999999998806, -0.7437464169228238 
2.0499999999999017, -0.7417991212805269 
2.059999999999923, -0.7390939882275002 
2.069999999999944, -0.7354987831373611 
2.079999999999965, -0.7310137516876856 
2.089999999999986, -0.725840692386592 
2.100000000000007, -0.7203623292643808 
2.1100000000000283, -0.7150252027571563 
2.1200000000000494, -0.7102037173713138 
2.1300000000000705, -0.7061251112225908 
2.1400000000000916, -0.7028682639344663 
2.1500000000001127, -0.700402260721923 
2.160000000000134, -0.6986310738620689 
2.170000000000155, -0.6974292306787587 
2.180000000000176, -0.6966662379298698 
2.190000000000197, -0.696221761823222 
2.2000000000002182, -0.695993711627459 
2.2100000000002393, -0.6959009046782254 
2.2200000000002604, -0.6958819085912904 
2.2300000000002815, -0.6958917449932093 
2.2400000000003026, -0.6958980617196293 
2.2500000000003237, -0.6958780470402803 
2.260000000000345, -0.6958167921599127 
2.270000000000366, -0.695706987717492 
2.280000000000387, -0.6955488697441184 
2.290000000000408, -0.695348788364435 
2.3000000000004293, -0.695115509157141 
2.3100000000004504, -0.6948553372700629 
2.3200000000004715, -0.6945687542011306 
2.3300000000004926, -0.6942507169157058 
2.3400000000005137, -0.6938943438097029 
2.3500000000005348, -0.6934955861869592 
2.360000000000556, -0.6930564843454654 
2.370000000000577, -0.6925863816173632 
2.380000000000598, -0.6921021563999384 
2.390000000000619, -0.6916289100945192 
2.4000000000006403, -0.6912018811235134 
2.4100000000006614, -0.690869451241288 
2.4200000000006825, -0.6906964169896692 
2.4300000000007036, -0.6907662836622592 
2.4400000000007247, -0.6911811841191625 
2.450000000000746, -0.692058081574954 
2.460000000000767, -0.6935199545691192 
2.470000000000788, -0.6956802914673601 
2.480000000000809, -0.6986184431579987 
2.49000000000083, -0.7023437449998715 
2.5000000000008513, -0.7067518270721416 
2.5100000000008724, -0.7115912378736289 
2.5200000000008935, -0.7164761320843406 
2.5300000000009146, -0.7209738370004606 
2.5400000000009357, -0.7247410837922431 
2.550000000000957, -0.7276233898458683 
2.560000000000978, -0.7296540505332088 
2.570000000000999, -0.7309769039478387 
2.58000000000102, -0.7317619612110804 
2.5900000000010412, -0.7321548295675121 
2.6000000000010624, -0.7322596862989058 
2.6100000000010835, -0.7321399432993281 
2.6200000000011046, -0.7318236859699093 
2.6300000000011257, -0.7313074081118178 
2.6400000000011468, -0.7305555713444518 
2.650000000001168, -0.7294951684050779 
2.660000000001189, -0.7280053301043476 
2.67000000000121, -0.7259040017122915 
2.680000000001231, -0.7229397709803793 
2.6900000000012523, -0.7188109049448653 
2.7000000000012734, -0.7132526191491079 
2.7100000000012945, -0.7062245228215652 
2.7200000000013156, -0.6981286901092283 
2.7300000000013367, -0.689835560117476 
2.740000000001358, -0.6823639663969777 
2.750000000001379, -0.676429147637968 
2.7600000000014, -0.6722308564869611 
2.770000000001421, -0.669560533684849 
2.780000000001442, -0.6680312625353303 
2.7900000000014633, -0.6672552606953441 
2.8000000000014844, -0.6669253080080656 
2.8100000000015055, -0.6668287346368282 
2.8200000000015266, -0.6668308942727573 
2.8300000000015477, -0.6668513099640057 
2.840000000001569, -0.6668426586530376 
2.85000000000159, -0.6667753818020847 
2.860000000001611, -0.6666277052896697 
2.870000000001632, -0.6663802458176036 
2.8800000000016532, -0.666014743305182 
2.8900000000016743, -0.6655167327901625 
2.9000000000016954, -0.6648812476195773 
2.9100000000017165, -0.6641187019643546 
2.9200000000017377, -0.66325652021373 
2.9300000000017588, -0.662333673046288 
2.94000000000178, -0.6613902266467435 
2.950000000001801, -0.6604578586404909 
2.960000000001822, -0.6595560973867591 
2.970000000001843, -0.6586945641301248 
2.9800000000018643, -0.6578782412127616 
2.9900000000018854, -0.6571126123201304 
3.0000000000019065, -0.6564071433858037 
3.0100000000019276, -0.6557770989490097 
3.0200000000019487, -0.6552442720950717 
3.03000000000197, -0.654837066551046 
3.040000000001991, -0.6545900612422265 
3.050000000002012, -0.6545430515658073 
3.060000000002033, -0.6547396246723373 
3.070000000002054, -0.6552254211354852 
3.0800000000020753, -0.6560461375858005 
3.0900000000020964, -0.6572448619490092 
3.1000000000021175, -0.6588574914357949 
3.1100000000021386, -0.6609040664835485 
3.1200000000021597, -0.6633737838651991 
3.130000000002181, -0.6662040731507253 
3.140000000002202, -0.6692613563541835 
3.150000000002223, -0.6723407853358376 
3.160000000002244, -0.6752025142257393 
3.1700000000022652, -0.6776391900655222 
3.1800000000022863, -0.6795364970394921 
3.1900000000023074, -0.6808873878045526 
3.2000000000023285, -0.681759654797155 
3.2100000000023496, -0.6822487545991532 
3.2200000000023707, -0.6824431558225277 
3.230000000002392, -0.6824083409224945 
3.240000000002413, -0.6821830395797808 
3.250000000002434, -0.681779987842343 
3.260000000002455, -0.6811863565979656 
3.2700000000024763, -0.6803614461549543 
3.2800000000024974, -0.6792304515763307 
3.2900000000025185, -0.6776737793841303 
3.3000000000025396, -0.6755130861398038 
3.3100000000025607, -0.6725011781807273 
3.3200000000025818, -0.6683385251429146 
3.330000000002603, -0.6627626092061456 
3.340000000002624, -0.6557472489927395 
3.350000000002645, -0.6477277766123722 
3.360000000002666, -0.6395990775152033 
3.3700000000026873, -0.6323519045624466 
3.3800000000027084, -0.6266274504603804 
3.3900000000027295, -0.6225605254149291 
3.4000000000027506, -0.619923813681357 
3.4100000000027717, -0.6183514794100191 
3.420000000002793, -0.6174917328977364 
3.430000000002814, -0.6170692559049091 
3.440000000002835, -0.6168920468753427 
3.450000000002856, -0.6168356083039297 
3.460000000002877, -0.6168227235978401 
3.4700000000028983, -0.6168061343496782 
3.4800000000029194, -0.616755933505121 
3.4900000000029405, -0.6166514438422577 
3.5000000000029616, -0.6164769627867839 
3.5100000000029827, -0.6162208880156207 
3.520000000003004, -0.6158776171191698 
3.530000000003025, -0.6154507775449287 
3.540000000003046, -0.6149551396964139 
3.550000000003067, -0.6144144866955281 
3.5600000000030882, -0.6138550428112456 
3.5700000000031094, -0.613297519610714 
3.5800000000031305, -0.6127521683490057 
3.5900000000031516, -0.6122191157211887 
3.6000000000031727, -0.6116928475151584 
3.6100000000031938, -0.6111678115656393 
3.620000000003215, -0.6106426342121017 
3.630000000003236, -0.6101222936647932 
3.640000000003257, -0.6096191176304379 
3.650000000003278, -0.6091538761912967 
3.6600000000032993, -0.6087578321750565 
3.6700000000033204, -0.6084760245704381 
3.6800000000033415, -0.6083716168005606 
3.6900000000033626, -0.6085308120432391 
3.7000000000033837, -0.6090674309070876 
3.710000000003405, -0.6101254739301212 
3.720000000003426, -0.6118764229946985 
3.730000000003447, -0.6145052336951771 
3.740000000003468, -0.6181754036573961 
3.750000000003489, -0.6229630962345472 
3.7600000000035103, -0.6287636455287378 
3.7700000000035314, -0.6352124290115617 
3.7800000000035525, -0.6417066205664728 
3.7900000000035736, -0.6475852357625487 
3.8000000000035947, -0.6523801010850444 
3.810000000003616, -0.6559488924562569 
3.820000000003637, -0.658415311399773 
3.830000000003658, -0.6600192430064565 
3.840000000003679, -0.6609990064887044 
3.8500000000037002, -0.6615403353285269 
3.8600000000037213, -0.6617693362532785 
3.8700000000037424, -0.6617617319291155 
3.8800000000037635, -0.6615532782702166 
3.8900000000037847, -0.6611459119578204 
3.9000000000038058, -0.6605084475991367 
3.910000000003827, -0.6595722555248674 
3.920000000003848, -0.658224090708269 
3.930000000003869, -0.656302544437984 
3.94000000000389, -0.653612709418409 
3.9500000000039113, -0.6499803354449151 
3.9600000000039324, -0.6453527731684195 
3.9700000000039535, -0.6399016166872225 
3.9800000000039746, -0.6340327137402506 
3.9900000000039957, -0.6282589235845395 
4.000000000004016, -0.6230199505577013 
4.010000000003993, -0.618574226411958 
4.02000000000397, -0.6149981792289742 
4.030000000003946, -0.6122441426129366 
4.040000000003923, -0.6102025478465939 
4.0500000000039, -0.6087450392592141 
4.0600000000038765, -0.6077479411989779 
4.070000000003853, -0.6071026779355712 
4.08000000000383, -0.6067190929373905 
4.090000000003807, -0.6065252938985282 
4.100000000003783, -0.6064659100106262 
4.11000000000376, -0.6064997389046134 
4.120000000003737, -0.6065973704107244 
4.130000000003713, -0.6067391765962132 
4.14000000000369, -0.6069138238722285 
4.150000000003667, -0.6071170666057472 
4.1600000000036434, -0.6073500707964768 
4.17000000000362, -0.6076162446432012 
4.180000000003597, -0.6079160912708765 
4.1900000000035735, -0.6082411746299369 
4.20000000000355, -0.6085701220668617 
4.210000000003527, -0.6088699677270757 
4.220000000003504, -0.6091036990124987 
4.23000000000348, -0.609240590314953 
4.240000000003457, -0.609263565429067 
4.250000000003434, -0.6091701573677116 
4.26000000000341, -0.6089683343372804 
4.270000000003387, -0.6086710244361889 
4.280000000003364, -0.6082924475857724 
4.2900000000033405, -0.607847522353892 
4.300000000003317, -0.607354578428901 
4.310000000003294, -0.6068416274433791 
4.320000000003271, -0.6063568922831456 
4.330000000003247, -0.6059842955091133 
4.340000000003224, -0.6058628445495527 
4.350000000003201, -0.6062030395687624 
4.360000000003177, -0.6072810106480216 
4.370000000003154, -0.6093752824393814 
4.380000000003131, -0.612616793996366 
4.390000000003107, -0.616801070137076 
4.400000000003084, -0.6213484980290628 
4.410000000003061, -0.6255679220692385 
4.4200000000030375, -0.6290295340172884 
4.430000000003014, -0.631674055435801 
4.440000000002991, -0.6336436546095274 
4.450000000002968, -0.6351026101381865 
4.460000000002944, -0.6361730830781498 
4.470000000002921, -0.636939096120901 
4.480000000002898, -0.6374613619519696 
4.490000000002874, -0.6377852997379684 
4.500000000002851, -0.6379435254556152 
4.510000000002828, -0.6379561631380756 
4.520000000002804, -0.637830535452455 
4.530000000002781, -0.6375607317852988 
4.540000000002758, -0.6371276027432468 
4.5500000000027345, -0.6365005250207606 
4.560000000002711, -0.6356432798178331 
4.570000000002688, -0.6345262983881002 
4.580000000002665, -0.6331442623106124 
4.590000000002641, -0.6315314030579257 
4.600000000002618, -0.6297627492618411 
4.610000000002595, -0.6279364075496094 
4.620000000002571, -0.6261464980144569 
4.630000000002548, -0.6244628595593709 
4.640000000002525, -0.622925664175253 
4.6500000000025015, -0.6215516348297382 
4.660000000002478, -0.6203442090737392 
4.670000000002455, -0.6193021752033698 
4.6800000000024315, -0.618424935533364 
4.690000000002408, -0.617714785474729 
4.700000000002385, -0.6171772833633349 
4.710000000002362, -0.616820683546751 
4.720000000002338, -0.6166551162100983 
4.730000000002315, -0.6166919509637794 
4.740000000002292, -0.6169435744505507 
4.750000000002268, -0.6174235753584868 
4.760000000002245, -0.6181470047474462 
4.770000000002222, -0.6191299314601515 
4.7800000000021985, -0.6203869614171043 
4.790000000002175, -0.6219249497645294 
4.800000000002152, -0.6237314906638922 
4.810000000002129, -0.6257592177752151 
4.820000000002105, -0.627912460761163 
4.830000000002082, -0.6300488628652248 
4.840000000002059, -0.6320064608328917 
4.850000000002035, -0.6336494226054088 
4.860000000002012, -0.6349057138194452 
4.870000000001989, -0.6357732915454392 
4.880000000001965, -0.636297466861093 
4.890000000001942, -0.6365401984287049 
4.900000000001919, -0.6365576076699745 
4.9100000000018955, -0.6363890073867876 
4.920000000001872, -0.6360533365487088 
