t, s[1].omega / s[0].omega 
0, -0.5999977260790421 
0.009999999999999995, -0.599763355993007 
0.019999999999999934, -0.5995140261129245 
0.029999999999999874, -0.5992469467655378 
0.04000000000000012, -0.5989591905366713 
0.050000000000000405, -0.5986491998989709 
0.06000000000000069, -0.5983176333107973 
0.07000000000000098, -0.5979675034662206 
0.08000000000000126, -0.5976040143079361 
0.09000000000000155, -0.5972345791680816 
0.10000000000000184, -0.5968693343978699 
0.11000000000000212, -0.5965222570839458 
0.12000000000000241, -0.5962128317441467 
0.130000000000002, -0.5959680415957495 
0.1400000000000009, -0.5958241821043513 
0.1499999999999998, -0.5958275118899313 
0.1599999999999987, -0.5960320634113836 
0.1699999999999976, -0.5964923153245015 
0.1799999999999965, -0.5972487819269048 
0.1899999999999954, -0.59830750848775 
0.1999999999999943, -0.5996209067784479 
0.2099999999999932, -0.6010838766481147 
0.2199999999999921, -0.6025562436308678 
0.229999999999991, -0.6039048742513198 
0.2399999999999899, -0.6050408272155707 
0.2499999999999888, -0.605930884516611 
0.2599999999999877, -0.6065848887736521 
0.2699999999999866, -0.6070347052522659 
0.2799999999999855, -0.6073174715110012 
0.2899999999999844, -0.6074664871801733 
0.2999999999999833, -0.6075077505463657 
0.3099999999999822, -0.6074593565580383 
0.3199999999999811, -0.6073319139417801 
0.32999999999998, -0.6071291081864375 
0.3399999999999789, -0.6068481606347047 
0.3499999999999778, -0.6064803391435041 
0.35999999999997667, -0.6060120169353678 
0.36999999999997557, -0.6054270579678263 
0.37999999999997447, -0.6047112795698104 
0.38999999999997337, -0.6038589352072113 
0.39999999999997227, -0.6028793848770948 
0.40999999999997117, -0.6018004049689282 
0.41999999999997006, -0.6006651041417008 
0.42999999999996896, -0.5995229751807831 
0.43999999999996786, -0.5984194669259428 
0.44999999999996676, -0.5973889059574076 
0.45999999999996566, -0.5964526333829727 
0.46999999999996456, -0.5956210689189292 
0.47999999999996346, -0.5948973083801186 
0.48999999999996235, -0.5942804787137496 
0.49999999999996125, -0.5937681293637938 
0.5099999999999602, -0.5933576562354534 
0.519999999999959, -0.5930470330163472 
0.529999999999958, -0.5928351372796374 
0.5399999999999568, -0.5927218700657331 
0.5499999999999557, -0.5927081594053013 
0.5599999999999546, -0.5927958323720974 
0.5699999999999535, -0.5929872339508833 
0.5799999999999524, -0.5932843647372069 
0.5899999999999513, -0.593687236980172 
0.5999999999999502, -0.5941912135216854 
0.6099999999999491, -0.5947834783476308 
0.619999999999948, -0.5954396274571698 
0.6299999999999469, -0.5961224129574647 
0.6399999999999458, -0.5967849454978911 
0.6499999999999447, -0.5973789419848826 
0.6599999999999436, -0.5978651932986001 
0.6699999999999425, -0.5982211556555665 
0.6799999999999414, -0.5984421443608523 
0.6899999999999403, -0.5985367744595352 
0.6999999999999392, -0.5985201141168349 
0.7099999999999381, -0.5984077185974708 
0.719999999999937, -0.5982118076935043 
0.7299999999999359, -0.5979393196989453 
0.7399999999999348, -0.5975910309444327 
0.7499999999999337, -0.5971610243410299 
0.7599999999999326, -0.5966360975147599 
0.7699999999999315, -0.5959950579354545 
0.7799999999999304, -0.5952083303355493 
0.7899999999999293, -0.5942390852909044 
0.7999999999999282, -0.5930482228174911 
0.8099999999999271, -0.5916062315287378 
0.819999999999926, -0.5899128150959441 
0.8299999999999249, -0.5880177383121274 
0.8399999999999238, -0.5860272956308024 
0.8499999999999227, -0.5840831726283321 
0.8599999999999216, -0.5823203916254794 
0.8699999999999205, -0.5808294951963381 
0.8799999999999194, -0.579642966206354 
0.8899999999999183, -0.5787452581728145 
0.8999999999999172, -0.5780929867605707 
0.9099999999999161, -0.5776333486954432 
0.919999999999915, -0.5773159421088054 
0.9299999999999139, -0.5770982985846078 
0.9399999999999128, -0.5769472356170608 
0.9499999999999117, -0.5768380356769502 
0.9599999999999106, -0.576752804261047 
0.9699999999999095, -0.5766787693723453 
0.9799999999999084, -0.5766068993610848 
0.9899999999999073, -0.5765309880803441 
0.9999999999999062, -0.5764471939926743 
1.0099999999999052, -0.5763538510682054 
1.019999999999904, -0.5762511989417817 
1.029999999999903, -0.5761406317524387 
1.039999999999902, -0.5760233127216108 
1.0499999999999008, -0.5758985385910665 
1.0599999999998997, -0.5757627037630076 
1.0699999999998986, -0.5756096134403976 
1.0799999999998975, -0.5754321385464854 
1.0899999999998964, -0.5752243508415867 
1.0999999999998953, -0.5749830517794934 
1.1099999999998942, -0.5747081592743265 
1.119999999999893, -0.574402192585808 
1.129999999999892, -0.5740695002850285 
1.1399999999998909, -0.5737158078621949 
1.1499999999998898, -0.5733483903827452 
1.1599999999998887, -0.5729769490468143 
1.1699999999998876, -0.572615138029342 
1.1799999999998865, -0.5722825556561111 
1.1899999999998854, -0.5720067367616151 
1.1999999999998843, -0.5718241308238559 
1.2099999999998832, -0.5717782328337532 
1.219999999999882, -0.5719124146361039 
1.229999999999881, -0.572255930361294 
1.2399999999998799, -0.5728059255902916 
1.2499999999998788, -0.5735155673287344 
1.2599999999998777, -0.5743013406033468 
1.2699999999998766, -0.5750712876144 
1.2799999999998755, -0.5757564646647321 
1.2899999999998744, -0.5763242675886164 
1.2999999999998733, -0.5767709661125027 
1.3099999999998722, -0.5771069662204938 
1.319999999999871, -0.5773461977098384 
1.32999999999987, -0.5775015745410303 
1.3399999999998689, -0.5775838375335315 
1.3499999999998678, -0.5776013999996858 
1.3599999999998666, -0.5775602373960143 
1.3699999999998655, -0.5774636729993912 
1.3799999999998644, -0.5773121596690548 
1.3899999999998633, -0.5771032152296149 
1.3999999999998622, -0.576831730835299 
1.4099999999998611, -0.5764909542112704 
1.41999999999986, -0.5760744411432441 
1.429999999999859, -0.5755789736145243 
1.4399999999998578, -0.5750077517525922 
1.4499999999998567, -0.5743723891903306 
1.4599999999998556, -0.5736922013079812 
1.4699999999998545, -0.5729905537778935 
1.4799999999998534, -0.5722898962790763 
1.4899999999998523, -0.5716078867232456 
1.4999999999998512, -0.5709560450570602 
1.5099999999998501, -0.5703407216498773 
1.519999999999849, -0.5697652015125758 
1.529999999999848, -0.5692318359989529 
1.5399999999998468, -0.5687436701739493 
1.5499999999998457, -0.5683055375826025 
1.5599999999998446, -0.5679248098828962 
1.5699999999998435, -0.5676119835247608 
1.5799999999998424, -0.5673811903976879 
1.5899999999998413, -0.5672506093231957 
1.5999999999998402, -0.5672426382786683 
1.6099999999998391, -0.5673835342512358 
1.619999999999838, -0.5677020087775699 
1.629999999999837, -0.5682260039233238 
1.6399999999998358, -0.5689767354014978 
1.6499999999998347, -0.5699595233036265 
1.6599999999998336, -0.5711526271690698 
1.6699999999998325, -0.5724985089047041 
1.6799999999998314, -0.5739048740227854 
1.6899999999998303, -0.5752610176671205 
1.6999999999998292, -0.5764656980686077 
1.709999999999828, -0.5774524123065601 
1.719999999999827, -0.5781984990216349 
1.729999999999826, -0.5787167498094483 
1.7399999999998248, -0.5790389774914231 
1.7499999999998237, -0.579201372890357 
1.7599999999998226, -0.5792356811864185 
1.7699999999998215, -0.5791654811926019 
1.7799999999998204, -0.5790053499781274 
1.7899999999998193, -0.5787611013756098 
1.7999999999998182, -0.5784301252373418 
1.809999999999817, -0.5780015579836719 
1.819999999999816, -0.5774565938038944 
1.8299999999998149, -0.5767698437776625 
1.8399999999998138, -0.5759132220995266 
1.8499999999998127, -0.5748638383400645 
1.8599999999998116, -0.5736157252454736 
1.8699999999998105, -0.5721914678271686 
1.8799999999998094, -0.5706463544865781 
1.8899999999998083, -0.569059538879103 
1.8999999999998072, -0.5675149731089725 
1.909999999999806, -0.5660821918764534 
1.919999999999805, -0.5648058467487627 
1.9299999999998039, -0.5637055762521691 
1.9399999999998028, -0.5627821340896144 
1.9499999999998017, -0.5620249391150792 
1.9599999999998006, -0.5614182409646915 
1.9699999999997995, -0.5609451627467632 
1.9799999999997984, -0.560589960225108 
1.9899999999997973, -0.5603391077577008 
1.9999999999997962, -0.5601817206218175 
2.0099999999998173, -0.5601096354679549 
2.0199999999998384, -0.5601173062878875 
2.0299999999998595, -0.5602015467589992 
2.0399999999998806, -0.560361041315558 
2.0499999999999017, -0.560595442896629 
2.059999999999923, -0.560903803096595 
2.069999999999944, -0.5612821440411195 
2.079999999999965, -0.5617203468343368 
2.089999999999986, -0.5621992790806445 
2.100000000000007, -0.5626899014772437 
2.1100000000000283, -0.5631561033801916 
2.1200000000000494, -0.5635613816753299 
2.1300000000000705, -0.5638767989637733 
2.1400000000000916, -0.5640862953790431 
2.1500000000001127, -0.5641870443357999 
2.160000000000134, -0.5641856926316035 
2.170000000000155, -0.5640931410357293 
2.180000000000176, -0.5639200864466971 
2.190000000000197, -0.5636741274628395 
2.2000000000002182, -0.5633581763450555 
2.2100000000002393, -0.5629695638049816 
2.2200000000002604, -0.5624993040095558 
2.2300000000002815, -0.5619312302210803 
2.2400000000003026, -0.5612410520876311 
2.2500000000003237, -0.560395957586508 
2.260000000000345, -0.5593563953244027 
2.270000000000366, -0.5580829911951692 
2.280000000000387, -0.5565517322235601 
2.290000000000408, -0.5547763574126663 
2.3000000000004293, -0.5528270068714743 
2.3100000000004504, -0.5508271445135219 
2.3200000000004715, -0.5489213399622878 
2.3300000000004926, -0.5472307879776863 
2.3400000000005137, -0.5458238511284651 
2.3500000000005348, -0.544713544424855 
2.360000000000556, -0.5438735472577902 
2.370000000000577, -0.5432583019774863 
2.380000000000598, -0.5428183567185669 
2.390000000000619, -0.5425089822044535 
2.4000000000006403, -0.5422935732416045 
2.4100000000006614, -0.5421439952034219 
2.4200000000006825, -0.5420395268745158 
2.4300000000007036, -0.5419653900949115 
2.4400000000007247, -0.541911374235746 
2.450000000000746, -0.5418707712756478 
2.460000000000767, -0.5418396542775062 
2.470000000000788, -0.5418163796878283 
2.480000000000809, -0.5418010448710149 
2.49000000000083, -0.5417945521092842 
2.5000000000008513, -0.5417970664289495 
2.5100000000008724, -0.5418060983727994 
2.5200000000008935, -0.5418150138871054 
2.5300000000009146, -0.5418129878137078 
2.5400000000009357, -0.541786858090941 
2.550000000000957, -0.5417242035774261 
2.560000000000978, -0.5416161368091551 
2.570000000000999, -0.5414585338959148 
2.58000000000102, -0.5412514894328673 
2.5900000000010412, -0.5409977286717862 
2.6000000000010624, -0.5407009199257707 
2.6100000000010835, -0.5403644808761932 
2.6200000000011046, -0.5399910388042104 
2.6300000000011257, -0.539582448498346 
2.6400000000011468, -0.5391401775572127 
2.650000000001168, -0.5386658094860745 
2.660000000001189, -0.5381612816030865 
2.67000000000121, -0.5376282675915225 
2.680000000001231, -0.5370660971279665 
2.6900000000012523, -0.536468478157236 
2.7000000000012734, -0.5358217761894372 
2.7100000000012945, -0.5351103788557854 
2.7200000000013156, -0.5343321648965362 
2.7300000000013367, -0.5335153257378887 
2.740000000001358, -0.5327183982942938 
2.750000000001379, -0.5320074138291553 
2.7600000000014, -0.5314276505925035 
2.770000000001421, -0.5309909700076679 
2.780000000001442, -0.5306817371350936 
2.7900000000014633, -0.5304706153475711 
2.8000000000014844, -0.5303263339216161 
2.8100000000015055, -0.5302220625804266 
2.8200000000015266, -0.5301373325525998 
2.8300000000015477, -0.5300575133511124 
2.840000000001569, -0.5299723996720312 
2.85000000000159, -0.529874777880199 
2.860000000001611, -0.5297593735204533 
2.870000000001632, -0.5296223394602608 
2.8800000000016532, -0.5294613075956358 
2.8900000000016743, -0.5292758710575345 
2.9000000000016954, -0.5290681339749984 
2.9100000000017165, -0.5288427590189277 
2.9200000000017377, -0.5286060102491751 
2.9300000000017588, -0.5283638104250765 
2.94000000000178, -0.528119580447842 
2.950000000001801, -0.527872995679226 
2.960000000001822, -0.527620360246815 
2.970000000001843, -0.5273563375964476 
2.9800000000018643, -0.527076038359462 
2.9900000000018854, -0.5267764833398828 
3.0000000000019065, -0.5264570787373841 
3.0100000000019276, -0.5261193831974595 
3.0200000000019487, -0.5257667060466552 
3.03000000000197, -0.5254039785947928 
3.040000000001991, -0.5250381218013892 
3.050000000002012, -0.5246789539237311 
3.060000000002033, -0.5243405433730993 
3.070000000002054, -0.524042716068859 
3.0800000000020753, -0.5238120434863445 
3.0900000000020964, -0.5236809956058439 
3.1000000000021175, -0.5236832508896847 
3.1100000000021386, -0.5238433328018773 
3.1200000000021597, -0.5241615953702581 
3.130000000002181, -0.5246020365769606 
3.140000000002202, -0.5250957396505971 
3.150000000002223, -0.5255658135674488 
3.160000000002244, -0.5259592775228927 
3.1700000000022652, -0.5262610459404988 
3.1800000000022863, -0.5264830930810435 
3.1900000000023074, -0.5266448168460179 
3.2000000000023285, -0.5267608005056492 
3.2100000000023496, -0.5268385088103169 
3.2200000000023707, -0.5268806912910068 
3.230000000002392, -0.5268880332393413 
3.240000000002413, -0.5268605538473828 
3.250000000002434, -0.5267979245443775 
3.260000000002455, -0.5266992651755217 
3.2700000000024763, -0.5265628656746897 
3.2800000000024974, -0.5263861321966142 
3.2900000000025185, -0.5261659760197194 
3.3000000000025396, -0.5258997875103057 
3.3100000000025607, -0.5255869451274143 
3.3200000000025818, -0.5252304343962789 
3.330000000002603, -0.524837745590131 
3.340000000002624, -0.5244202015595747 
3.350000000002645, -0.5239905734097612 
3.360000000002666, -0.5235599462039022 
3.3700000000026873, -0.52313537767027 
3.3800000000027084, -0.5227193860750206 
3.3900000000027295, -0.5223111609225006 
3.4000000000027506, -0.5219085513983361 
3.4100000000027717, -0.5215098441007097 
3.420000000002793, -0.521114865376761 
3.430000000002814, -0.5207255060907284 
3.440000000002835, -0.5203460378927309 
3.450000000002856, -0.5199835749482304 
3.460000000002877, -0.5196488938641621 
3.4700000000028983, -0.5193576718587642 
3.4800000000029194, -0.5191320439552592 
3.4900000000029405, -0.5190021378409448 
3.5000000000029616, -0.5190068098156195 
3.5100000000029827, -0.519192108492919 
3.520000000003004, -0.519605208745451 
3.530000000003025, -0.5202815186927195 
3.540000000003046, -0.5212251834405255 
3.550000000003067, -0.5223899040499727 
3.5600000000030882, -0.523674823338915 
3.5700000000031094, -0.5249480759638453 
3.5800000000031305, -0.5260906025365888 
3.5900000000031516, -0.5270319342569704 
3.6000000000031727, -0.527756156735884 
3.6100000000031938, -0.5282836369274462 
3.620000000003215, -0.5286484698360723 
3.630000000003236, -0.5288840558930422 
3.640000000003257, -0.5290174660719295 
3.650000000003278, -0.5290686658621213 
3.6600000000032993, -0.529051387477326 
3.6700000000033204, -0.5289741705818934 
3.6800000000033415, -0.52884117018225 
3.6900000000033626, -0.5286527894934201 
3.7000000000033837, -0.5284063778684189 
3.710000000003405, -0.528097323754403 
3.720000000003426, -0.527720865110609 
3.730000000003447, -0.5272746994918708 
3.740000000003468, -0.5267618887101108 
3.750000000003489, -0.5261928218902503 
3.7600000000035103, -0.5255848135259791 
3.7700000000035314, -0.524958906918113 
3.7800000000035525, -0.5243351865577187 
3.7900000000035736, -0.5237288847205482 
3.8000000000035947, -0.5231488895425879 
3.810000000003616, -0.5225986657952433 
3.820000000003637, -0.5220784682604687 
3.830000000003658, -0.5215876364493918 
3.840000000003679, -0.5211263243904558 
3.8500000000037002, -0.5206966189398157 
3.8600000000037213, -0.5203033102013283 
3.8700000000037424, -0.5199546092885023 
3.8800000000037635, -0.5196630033869118 
3.8900000000037847, -0.5194462988806692 
3.9000000000038058, -0.519328746781451 
3.910000000003827, -0.5193419234137622 
3.920000000003848, -0.5195246797944575 
3.930000000003869, -0.5199209359299576 
3.94000000000389, -0.5205735223564385 
3.9500000000039113, -0.521512274635672 
3.9600000000039324, -0.5227365039596603 
3.9700000000039535, -0.524197140057362 
3.9800000000039746, -0.5257905847130184 
3.9900000000039957, -0.5273766517893586 
4.000000000004016, -0.5288186798177461 
4.010000000003993, -0.5300236334744579 
4.02000000000397, -0.5309579306780858 
4.030000000003946, -0.5316357907716464 
4.040000000003923, -0.5320959030839804 
4.0500000000039, -0.5323819420651845 
4.0600000000038765, -0.5325320730646461 
4.070000000003853, -0.5325754168094415 
4.08000000000383, -0.532531998279116 
4.090000000003807, -0.5324138334398966 
4.100000000003783, -0.5322260959662326 
4.11000000000376, -0.531968114397843 
4.120000000003737, -0.5316343988393081 
4.130000000003713, -0.5312161703976479 
4.14000000000369, -0.5307039755832117 
4.150000000003667, -0.5300917028864557 
4.1600000000036434, -0.5293814200148941 
4.17000000000362, -0.5285871239656404 
4.180000000003597, -0.5277348810709754 
4.1900000000035735, -0.5268582457786115 
4.20000000000355, -0.5259907926187312 
4.210000000003527, -0.5251594734109959 
4.220000000003504, -0.5243815557459847 
4.23000000000348, -0.5236653329863181 
4.240000000003457, -0.5230129880153686 
4.250000000003434, -0.5224238216746688 
4.26000000000341, -0.5218968317592435 
4.270000000003387, -0.5214324297342363 
4.280000000003364, -0.5210335078160171 
4.2900000000033405, -0.5207061559529145 
4.300000000003317, -0.5204602471886576 
4.310000000003294, -0.5203099824762891 
4.320000000003271, -0.5202743483389705 
4.330000000003247, -0.5203772707778607 
4.340000000003224, -0.520647003164545 
4.350000000003201, -0.5211139464837424 
4.360000000003177, -0.5218057669489118 
4.370000000003154, -0.5227387327626121 
4.380000000003131, -0.5239054364232596 
4.390000000003107, -0.5252623083495542 
4.400000000003084, -0.5267246989573863 
4.410000000003061, -0.5281782455475884 
4.4200000000030375, -0.5295071279381175 
4.430000000003014, -0.530625876594504 
4.440000000002991, -0.5314964034485773 
4.450000000002968, -0.532123574609172 
4.460000000002944, -0.5325379823591587 
4.470000000002921, -0.5327784693672587 
4.480000000002898, -0.5328808977539113 
4.490000000002874, -0.5328732024423426 
4.500000000002851, -0.5327742538818744 
4.510000000002828, -0.5325942987093937 
4.520000000002804, -0.5323357383451481 
4.530000000002781, -0.5319938418196763 
4.540000000002758, -0.5315575777469647 
4.5500000000027345, -0.5310112116106332 
4.560000000002711, -0.5303376241124795 
4.570000000002688, -0.5295241055450745 
4.580000000002665, -0.5285700918435617 
4.590000000002641, -0.5274939628936605 
4.600000000002618, -0.5263344172513588 
4.610000000002595, -0.5251437953471094 
4.620000000002571, -0.5239758649699218 
4.630000000002548, -0.5228743774819905 
4.640000000002525, -0.5218673906701357 
4.6500000000025015, -0.5209678892982714 
4.660000000002478, -0.5201780423224766 
4.670000000002455, -0.5194941373738775 
4.6800000000024315, -0.5189105200842111 
4.690000000002408, -0.5184221431347301 
4.700000000002385, -0.5180259936814624 
4.710000000002362, -0.51772182325592 
4.720000000002338, -0.517512519535099 
4.730000000002315, -0.5174043126597525 
4.740000000002292, -0.5174068634302399 
4.750000000002268, -0.5175331318251923 
4.760000000002245, -0.5177987438301717 
4.770000000002222, -0.5182203515039827 
4.7800000000021985, -0.5188122810650844 
4.790000000002175, -0.5195808217539468 
4.800000000002152, -0.520516287766408 
4.810000000002129, -0.5215849364252569 
4.820000000002105, -0.5227254698753948 
4.830000000002082, -0.5238556546362084 
4.840000000002059, -0.5248902002378797 
4.850000000002035, -0.5257625347484158 
4.860000000002012, -0.5264386294511834 
4.870000000001989, -0.5269166451147278 
4.880000000001965, -0.5272162032012532 
4.890000000001942, -0.5273655205625634 
4.900000000001919, -0.5273919513601548 
4.9100000000018955, -0.5273170158381862 
4.920000000001872, -0.5271545754974472 
