t, s[1].omega / s[0].omega 
0, -1.35999733178569 
0.009999999999999995, -1.3596382877629416 
0.019999999999999934, -1.3591010211263133 
0.029999999999999874, -1.3583997499150509 
0.04000000000000012, -1.3575620866400704 
0.050000000000000405, -1.3566343949029687 
0.06000000000000069, -1.3556859578217353 
0.07000000000000098, -1.3548057280677317 
0.08000000000000126, -1.3540839743825723 
0.09000000000000155, -1.3535782958832125 
0.10000000000000184, -1.3532830047199496 
0.11000000000000212, -1.3531309927043562 
0.12000000000000241, -1.3530290851697206 
0.130000000000002, -1.3528931637198962 
0.1400000000000009, -1.3526578485959597 
0.1499999999999998, -1.3522648854854067 
0.1599999999999987, -1.3516445636988081 
0.1699999999999976, -1.35069949617213 
0.1799999999999965, -1.3492980371661139 
0.1899999999999954, -1.347291464890294 
0.1999999999999943, -1.3445794734710919 
0.2099999999999932, -1.3412412545622585 
0.2199999999999921, -1.3376816831256964 
0.229999999999991, -1.3346112414392164 
0.2399999999999899, -1.3326873808206683 
0.2499999999999888, -1.3320480844290556 
0.2599999999999877, -1.3322760038883998 
0.2699999999999866, -1.3328103635295714 
0.2799999999999855, -1.3332838806238114 
0.2899999999999844, -1.3335572627648529 
0.2999999999999833, -1.3336154961893942 
0.3099999999999822, -1.3334800604980965 
0.3199999999999811, -1.3331678618855982 
0.32999999999998, -1.3326808690762346 
0.3399999999999789, -1.332015512174094 
0.3499999999999778, -1.3311963922634344 
0.35999999999997667, -1.3303445077647635 
0.36999999999997557, -1.3297570729629284 
0.37999999999997447, -1.3298871688400988 
0.38999999999997337, -1.3310968271678711 
0.39999999999997227, -1.3333285416346858 
0.40999999999997117, -1.3360839914702685 
0.41999999999997006, -1.3387560212687908 
0.42999999999996896, -1.3409392160006846 
0.43999999999996786, -1.3424975437329487 
0.44999999999996676, -1.3434747795407174 
0.45999999999996566, -1.3439866305602963 
0.46999999999996456, -1.3441531802678108 
0.47999999999996346, -1.344071941284531 
0.48999999999996235, -1.3438158813695402 
0.49999999999996125, -1.3434437650266722 
0.5099999999999602, -1.343015082412248 
0.519999999999959, -1.3426017957182732 
0.529999999999958, -1.3422857090568012 
0.5399999999999568, -1.342135033854165 
0.5499999999999557, -1.3421739460225006 
0.5599999999999546, -1.3423719113777766 
0.5699999999999535, -1.3426607617182182 
0.5799999999999524, -1.3429621071660356 
0.5899999999999513, -1.3432071986946315 
0.5999999999999502, -1.3433445740317065 
0.6099999999999491, -1.3433392370637969 
0.619999999999948, -1.343168808830293 
0.6299999999999469, -1.3428203939582133 
0.6399999999999458, -1.3422895562740604 
0.6499999999999447, -1.3415815139355352 
0.6599999999999436, -1.3407145433547574 
0.6699999999999425, -1.3397254749422578 
0.6799999999999414, -1.3386757188737932 
0.6899999999999403, -1.337652920125834 
0.6999999999999392, -1.336759627856641 
0.7099999999999381, -1.3360824090507482 
0.719999999999937, -1.3356516107466792 
0.7299999999999359, -1.3354236291622394 
0.7399999999999348, -1.3353060221816082 
0.7499999999999337, -1.3352017075550635 
0.7599999999999326, -1.3350341556427432 
0.7699999999999315, -1.3347444109109259 
0.7799999999999304, -1.3342736884620623 
0.7899999999999293, -1.3335443784909091 
0.7999999999999282, -1.3324460900683575 
0.8099999999999271, -1.3308351281055637 
0.819999999999926, -1.3285659392729037 
0.8299999999999249, -1.3255813644491121 
0.8399999999999238, -1.322064171276455 
0.8499999999999227, -1.3185526613326588 
0.8599999999999216, -1.3158052317684095 
0.8699999999999205, -1.314345079868365 
0.8799999999999194, -1.3140915080973794 
0.8899999999999183, -1.3145194734260839 
0.8999999999999172, -1.3151044936821834 
0.9099999999999161, -1.3155575195338487 
0.919999999999915, -1.3157909756723136 
0.9299999999999139, -1.3158102006251542 
0.9399999999999128, -1.3156404600621467 
0.9499999999999117, -1.3152968414797128 
0.9599999999999106, -1.314779342751199 
0.9699999999999095, -1.3140857599871631 
0.9799999999999084, -1.313249194877092 
0.9899999999999073, -1.3124086772838035 
0.9999999999999062, -1.3118821260182614 
1.0099999999999052, -1.312124617602406 
1.019999999999904, -1.3134660469923876 
1.029999999999903, -1.3158039641278623 
1.039999999999902, -1.3186185612129413 
1.0499999999999008, -1.321309948174332 
1.0599999999998997, -1.3234902121537584 
1.0699999999998986, -1.3250375405122954 
1.0799999999998975, -1.3260037461635776 
1.0899999999998964, -1.3265078874386136 
1.0999999999998953, -1.3266707103976831 
1.1099999999998942, -1.3265891480046832 
1.119999999999893, -1.326335139145933 
1.129999999999892, -1.3259663158691768 
1.1399999999998909, -1.3255412417842858 
1.1499999999998898, -1.325131958481915 
1.1599999999998887, -1.3248226861521848 
1.1699999999998876, -1.3246868104054381 
1.1799999999998865, -1.3247541219155963 
1.1899999999998854, -1.3249964876516027 
1.1999999999998843, -1.3253437619737662 
1.2099999999998832, -1.3257131600904257 
1.219999999999882, -1.326031605521286 
1.229999999999881, -1.3262447947308895 
1.2399999999998799, -1.3263168561185394 
1.2499999999998788, -1.326226416366241 
1.2599999999998777, -1.3259629674043567 
1.2699999999998766, -1.32552499787043 
1.2799999999998755, -1.324920033540033 
1.2899999999998744, -1.3241665622178007 
1.2999999999998733, -1.3232977682459688 
1.3099999999998722, -1.3223659236552128 
1.319999999999871, -1.3214438844526308 
1.32999999999987, -1.3206176829990244 
1.3399999999998689, -1.3199650767360134 
1.3499999999998678, -1.3195243839873856 
1.3599999999998666, -1.3192739177813841 
1.3699999999998655, -1.3191425128445073 
1.3799999999998644, -1.319043138998376 
1.3899999999998633, -1.3188999510722357 
1.3999999999998622, -1.3186528094249241 
1.4099999999998611, -1.3182456967654042 
1.41999999999986, -1.3176109144185175 
1.429999999999859, -1.316656720647066 
1.4399999999998578, -1.3152650148842384 
1.4499999999998567, -1.3133103741000047 
1.4599999999998556, -1.3107165872192947 
1.4699999999998545, -1.3075572657481351 
1.4799999999998534, -1.30416059880671 
1.4899999999998523, -1.3010990819722088 
1.4999999999998512, -1.2989462446969717 
1.5099999999998501, -1.297919340982759 
1.519999999999849, -1.2977717220454352 
1.529999999999848, -1.2980488954189044 
1.5399999999998468, -1.2983875229333122 
1.5499999999998457, -1.2986075716264105 
1.5599999999998446, -1.2986557833798043 
1.5699999999998435, -1.2985298616259666 
1.5799999999998424, -1.298232887241129 
1.5899999999998413, -1.2977545960773649 
1.5999999999998402, -1.297069886054139 
1.6099999999998391, -1.2961564683832427 
1.619999999999838, -1.2950468670996647 
1.629999999999837, -1.2939257141997886 
1.6399999999998358, -1.2932189243270487 
1.6499999999998347, -1.2935032510496778 
1.6599999999998336, -1.295125244393245 
1.6699999999998325, -1.297840044528562 
1.6799999999998314, -1.300938612091703 
1.6899999999998303, -1.3037300512806969 
1.6999999999998292, -1.3058552223434776 
1.709999999999828, -1.3072708715727877 
1.719999999999827, -1.3080947144595112 
1.729999999999826, -1.3084793842684956 
1.7399999999998248, -1.3085538656568434 
1.7499999999998237, -1.3084107538438197 
1.7599999999998226, -1.3081146755451152 
1.7699999999998215, -1.3077191310388883 
1.7799999999998204, -1.3072864672752729 
1.7899999999998193, -1.306903708444188 
1.7999999999998182, -1.3066789532144587 
1.809999999999817, -1.3067061814479144 
1.819999999999816, -1.307016234866135 
1.8299999999998149, -1.307557555360463 
1.8399999999998138, -1.3082239637787676 
1.8499999999998127, -1.3089004796047927 
1.8599999999998116, -1.309494305508404 
1.8699999999998105, -1.3099440719063655 
1.8799999999998094, -1.3102163612143212 
1.8899999999998083, -1.3102986389103592 
1.8999999999998072, -1.3101929913525139 
1.909999999999806, -1.309911763936554 
1.919999999999805, -1.309475177490719 
1.9299999999998039, -1.3089111128650006 
1.9399999999998028, -1.3082569727458506 
1.9499999999998017, -1.3075620110734798 
1.9599999999998006, -1.3068865023363638 
1.9699999999997995, -1.3062939053405647 
1.9799999999997984, -1.305835401311859 
1.9899999999997973, -1.3055318793840702 
1.9999999999997962, -1.3053637766918191 
2.0099999999998173, -1.3052778119394115 
2.0199999999998384, -1.3052068837824362 
2.0299999999998595, -1.305087801103271 
2.0399999999998806, -1.3048662990654063 
2.0499999999999017, -1.3044914925576294 
2.059999999999923, -1.303907625668717 
2.069999999999944, -1.3030497217591226 
2.079999999999965, -1.3018477445928696 
2.089999999999986, -1.300242996230349 
2.100000000000007, -1.2982189244751203 
2.1100000000000283, -1.2958434898457523 
2.1200000000000494, -1.2933076153955807 
2.1300000000000705, -1.2909224153516703 
2.1400000000000916, -1.2890289950358294 
2.1500000000001127, -1.2878336348674144 
2.160000000000134, -1.287295125078784 
2.170000000000155, -1.2871829765272156 
2.180000000000176, -1.2872394467566846 
2.190000000000197, -1.2872875661118452 
2.2000000000002182, -1.2872389589031399 
2.2100000000002393, -1.287054992553038 
2.2200000000002604, -1.2867089488014822 
2.2300000000002815, -1.2861617741393014 
2.2400000000003026, -1.2853492446145343 
2.2500000000003237, -1.2841825799657658 
2.260000000000345, -1.2825790525276037 
2.270000000000366, -1.2805535400543886 
2.280000000000387, -1.2783767847882106 
2.290000000000408, -1.2766744263565426 
2.3000000000004293, -1.276193891987926 
2.3100000000004504, -1.277230459256413 
2.3200000000004715, -1.2793250018230033 
2.3300000000004926, -1.281656562815465 
2.3400000000005137, -1.2836155314053583 
2.3500000000005348, -1.2849855104943715 
2.360000000000556, -1.285806673128671 
2.370000000000577, -1.2862043933246947 
2.380000000000598, -1.2862973100699553 
2.390000000000619, -1.286170271238581 
2.4000000000006403, -1.2858774306264702 
2.4100000000006614, -1.2854572348207411 
2.4200000000006825, -1.2849554305492177 
2.4300000000007036, -1.284455643747199 
2.4400000000007247, -1.284105175824918 
2.450000000000746, -1.284100974920889 
2.460000000000767, -1.2846064950595766 
2.470000000000788, -1.28564338962951 
2.480000000000809, -1.2870617181918051 
2.49000000000083, -1.2886189983085024 
2.5000000000008513, -1.2900874622181147 
2.5100000000008724, -1.291313991137458 
2.5200000000008935, -1.292226848193451 
2.5300000000009146, -1.2928162944890662 
2.5400000000009357, -1.2931102277763835 
2.550000000000957, -1.2931538508678315 
2.560000000000978, -1.2929962381227726 
2.570000000000999, -1.292684413226232 
2.58000000000102, -1.292264124146313 
2.5900000000010412, -1.2917847412421586 
2.6000000000010624, -1.2913033317985791 
2.6100000000010835, -1.2908815154840767 
2.6200000000011046, -1.2905722786395188 
2.6300000000011257, -1.2904029927821203 
2.6400000000011468, -1.2903660841310858 
2.650000000001168, -1.2904229917142755 
2.660000000001189, -1.2905176712942605 
2.67000000000121, -1.2905916177258219 
2.680000000001231, -1.290593615848426 
2.6900000000012523, -1.2904822913818927 
2.7000000000012734, -1.2902243680920296 
2.7100000000012945, -1.2897927897689638 
2.7200000000013156, -1.2891671186925402 
2.7300000000013367, -1.288336572352905 
2.740000000001358, -1.287305215445984 
2.750000000001379, -1.286098939799897 
2.7600000000014, -1.284773511492183 
2.770000000001421, -1.2834204093257822 
2.780000000001442, -1.2821621408862447 
2.7900000000014633, -1.2811259334485938 
2.8000000000014844, -1.280395831084937 
2.8100000000015055, -1.2799710141576068 
2.8200000000015266, -1.279768939038711 
2.8300000000015477, -1.2796728391733863 
2.840000000001569, -1.2795798058626797 
2.85000000000159, -1.2794172408691444 
2.860000000001611, -1.2791323340347742 
2.870000000001632, -1.2786722932484273 
2.8800000000016532, -1.2779657366915778 
2.8900000000016743, -1.2769092213199875 
2.9000000000016954, -1.2753652676576535 
2.9100000000017165, -1.2731879608105097 
2.9200000000017377, -1.2703007013934242 
2.9300000000017588, -1.2668326876155305 
2.94000000000178, -1.2632402163313685 
2.950000000001801, -1.2602321224959492 
2.960000000001822, -1.2583984337231675 
2.970000000001843, -1.2578188055960646 
2.9800000000018643, -1.2580814119962758 
2.9900000000018854, -1.2586556256343102 
3.0000000000019065, -1.2591845914730762 
3.0100000000019276, -1.2595224923000483 
3.0200000000019487, -1.2596470073494856 
3.03000000000197, -1.2595778313633355 
3.040000000001991, -1.2593342799429719 
3.050000000002012, -1.2589204332571826 
3.060000000002033, -1.258325576965155 
3.070000000002054, -1.257539151542289 
3.0800000000020753, -1.2565903567539842 
3.0900000000020964, -1.255621602819153 
3.1000000000021175, -1.2549652136748692 
3.1100000000021386, -1.2551081413518603 
3.1200000000021597, -1.2564314013388893 
3.130000000002181, -1.2588747400805165 
3.140000000002202, -1.2619051685224825 
3.150000000002223, -1.2648558400253358 
3.160000000002244, -1.2672713234919182 
3.1700000000022652, -1.2689990963049458 
3.1800000000022863, -1.270093150357491 
3.1900000000023074, -1.2706878206960526 
3.2000000000023285, -1.270918454484738 
3.2100000000023496, -1.2708910356470704 
3.2200000000023707, -1.2706804374363652 
3.230000000002392, -1.2703415294434732 
3.240000000002413, -1.269925920742938 
3.250000000002434, -1.269500283894393 
3.260000000002455, -1.2691576801016904 
3.2700000000024763, -1.2690066906202224 
3.2800000000024974, -1.2691317147619203 
3.2900000000025185, -1.26954822040396 
3.3000000000025396, -1.2701923264924182 
3.3100000000025607, -1.2709524353605757 
3.3200000000025818, -1.2717127797057763 
3.330000000002603, -1.2723812218114472 
3.340000000002624, -1.2728972139482964 
3.350000000002645, -1.2732285062027504 
3.360000000002666, -1.2733645880232174 
3.3700000000026873, -1.2733105475020339 
3.3800000000027084, -1.2730822639113537 
3.3900000000027295, -1.2727032078755662 
3.4000000000027506, -1.2722033446310417 
3.4100000000027717, -1.2716202610902232 
3.420000000002793, -1.27100102564689 
3.430000000002814, -1.2704012977401118 
3.440000000002835, -1.2698781840891111 
3.450000000002856, -1.269476924458679 
3.460000000002877, -1.2692165677050398 
3.4700000000028983, -1.2690823627340961 
3.4800000000029194, -1.269030336422084 
3.4900000000029405, -1.269001954595502 
3.5000000000029616, -1.2689391861422794 
3.5100000000029827, -1.2687914971312624 
3.520000000003004, -1.2685144871056238 
3.530000000003025, -1.2680654743421165 
3.540000000003046, -1.2674013131224264 
3.550000000003067, -1.2664813600862972 
3.5600000000030882, -1.2652763204197601 
3.5700000000031094, -1.2637821866894168 
3.5800000000031305, -1.2620373899274653 
3.5900000000031516, -1.2601391970080171 
3.6000000000031727, -1.2582496426656342 
3.6100000000031938, -1.2565731998029097 
3.620000000003215, -1.2552927763098651 
3.630000000003236, -1.2544869132654446 
3.640000000003257, -1.2540933758018162 
3.650000000003278, -1.253957472248581 
3.6600000000032993, -1.2539181413243485 
3.6700000000033204, -1.2538600900384937 
3.6800000000033415, -1.2537153923712474 
3.6900000000033626, -1.253440428785864 
3.7000000000033837, -1.2529910824067678 
3.710000000003405, -1.2523032818792728 
3.720000000003426, -1.2512795429096333 
3.730000000003447, -1.2497866660998727 
3.740000000003468, -1.2476822167146364 
3.750000000003489, -1.2448994225426786 
3.7600000000035103, -1.241600243101797 
3.7700000000035314, -1.2383051669854008 
3.7800000000035525, -1.2357788477386553 
3.7900000000035736, -1.2345816172748 
3.8000000000035947, -1.2346685519713079 
3.810000000003616, -1.235500781368255 
3.820000000003637, -1.236494133321631 
3.830000000003658, -1.2373040973416018 
3.840000000003679, -1.2378224908383804 
3.8500000000037002, -1.2380638558235029 
3.8600000000037213, -1.2380764582063537 
3.8700000000037424, -1.2379010869950375 
3.8800000000037635, -1.237559523822576 
3.8900000000037847, -1.2370574869395972 
3.9000000000038058, -1.2363988425831138 
3.910000000003827, -1.2356173374807802 
3.920000000003848, -1.2348319663377978 
3.930000000003869, -1.2343056890895658 
3.94000000000389, -1.2344295857640286 
3.9500000000039113, -1.2355452160970768 
3.9600000000039324, -1.2376813870165277 
3.9700000000039535, -1.2404687338100449 
3.9800000000039746, -1.2433468379608812 
3.9900000000039957, -1.2458534556019025 
4.000000000004016, -1.2477630564293964 
4.010000000003993, -1.249056783453444 
4.02000000000397, -1.2498268659255118 
4.030000000003946, -1.2501955463522163 
4.040000000003923, -1.250271863311879 
4.0500000000039, -1.2501386407834285 
4.0600000000038765, -1.2498563967058078 
4.070000000003853, -1.2494753984759774 
4.08000000000383, -1.2490512533056513 
4.090000000003807, -1.2486585131927197 
4.100000000003783, -1.248391482403934 
4.11000000000376, -1.2483414762893719 
4.120000000003737, -1.2485574935240726 
4.130000000003713, -1.2490199949511758 
4.14000000000369, -1.2496503262237664 
4.150000000003667, -1.2503448584637762 
4.1600000000036434, -1.251007130558417 
4.17000000000362, -1.2515641709218026 
4.180000000003597, -1.2519692130758435 
4.1900000000035735, -1.2521980018415015 
4.20000000000355, -1.2522437550583159 
4.210000000003527, -1.252112740195325 
4.220000000003504, -1.2518208477256292 
4.23000000000348, -1.251391441257292 
4.240000000003457, -1.2508549909731483 
4.250000000003434, -1.2502503886263 
4.26000000000341, -1.2496261219878986 
4.270000000003387, -1.2490378649760012 
4.280000000003364, -1.2485398007002653 
4.2900000000033405, -1.2481709717268554 
4.300000000003317, -1.2479424653581592 
4.310000000003294, -1.2478326828185247 
4.320000000003271, -1.2477944416284683 
4.330000000003247, -1.247769903287404 
4.340000000003224, -1.2477037828840771 
4.350000000003201, -1.247548421288895 
4.360000000003177, -1.2472618955376198 
4.370000000003154, -1.2468043590347617 
4.380000000003131, -1.2461370575803346 
4.390000000003107, -1.2452260675829327 
4.400000000003084, -1.2440507186081933 
4.410000000003061, -1.2426153901592063 
4.4200000000030375, -1.2409627721093917 
4.430000000003014, -1.2391853794697507 
4.440000000002991, -1.2374278995730004 
4.450000000002968, -1.235867131235271 
4.460000000002944, -1.234659956775671 
4.470000000002921, -1.2338767322172506 
4.480000000002898, -1.2334695273469232 
4.490000000002874, -1.2333073906017373 
4.500000000002851, -1.2332465327690527 
4.510000000002828, -1.2331778598949208 
4.520000000002804, -1.2330328444343919 
4.530000000002781, -1.2327655985689172 
4.540000000002758, -1.2323308901109982 
4.5500000000027345, -1.2316657802872297 
4.560000000002711, -1.23067631415958 
4.570000000002688, -1.2292334691158247 
4.580000000002665, -1.2271920493040158 
4.590000000002641, -1.2244560694266269 
4.600000000002618, -1.2211034095253672 
4.610000000002595, -1.2175160277966468 
4.620000000002571, -1.214356754463799 
4.630000000002548, -1.2122635228235903 
4.640000000002525, -1.2114456625805363 
4.6500000000025015, -1.211595873643842 
4.660000000002478, -1.2121911385354804 
4.670000000002455, -1.212819366264747 
4.6800000000024315, -1.213279785253722 
4.690000000002408, -1.2135215761405127 
4.700000000002385, -1.2135582721286926 
4.710000000002362, -1.213414641353208 
4.720000000002338, -1.2131039760463256 
4.730000000002315, -1.2126221174185217 
4.740000000002292, -1.2119516761380853 
4.750000000002268, -1.2110799808832948 
4.760000000002245, -1.2100422967352367 
4.770000000002222, -1.2089967082947826 
4.7800000000021985, -1.20829379968066 
4.790000000002175, -1.2084267345361879 
4.800000000002152, -1.2097659706410961 
4.810000000002129, -1.2122373899021057 
4.820000000002105, -1.215300095266413 
4.830000000002082, -1.2182816360071331 
4.840000000002059, -1.2207224725877714 
4.850000000002035, -1.2224701132412346 
4.860000000002012, -1.2235815196416202 
4.870000000001989, -1.2241937865483663 
4.880000000001965, -1.2244432707504287 
4.890000000001942, -1.2244351567118024 
4.900000000001919, -1.224241722211821 
4.9100000000018955, -1.223912870672862 
4.920000000001872, -1.2234922699360646 
4.930000000001849, -1.223037423255903 
4.940000000001826, -1.222639243046374 
