t, s[1].omega / s[0].omega 
0, -0.5099977539265292 
0.009999999999999995, -0.5097856903524502 
0.019999999999999934, -0.5095927422319038 
0.029999999999999874, -0.5094041165390222 
0.04000000000000012, -0.5092015336701827 
0.050000000000000405, -0.5089691148141864 
0.06000000000000069, -0.5086969562296597 
0.07000000000000098, -0.508381678749889 
0.08000000000000126, -0.5080250705482277 
0.09000000000000155, -0.5076325021969578 
0.10000000000000184, -0.507212324439217 
0.11000000000000212, -0.5067768146021684 
0.12000000000000241, -0.5063448849000658 
0.130000000000002, -0.5059466089046838 
0.1400000000000009, -0.5056292025946731 
0.1499999999999998, -0.5054626264770475 
0.1599999999999987, -0.5055393140246784 
0.1699999999999976, -0.5059561693091146 
0.1799999999999965, -0.5067625967714766 
0.1899999999999954, -0.5078744629988442 
0.1999999999999943, -0.5090145827529199 
0.2099999999999932, -0.5098005181579588 
0.2199999999999921, -0.5099947500027963 
0.229999999999991, -0.5096780880090873 
0.2399999999999899, -0.5091403185793555 
0.2499999999999888, -0.5086439425836147 
0.2599999999999877, -0.5083086628440381 
0.2699999999999866, -0.5081376367436461 
0.2799999999999855, -0.5080834627065621 
0.2899999999999844, -0.5080928026211651 
0.2999999999999833, -0.5081238422000492 
0.3099999999999822, -0.5081484801213145 
0.3199999999999811, -0.5081490233782343 
0.32999999999998, -0.5081141561765908 
0.3399999999999789, -0.508035894613024 
0.3499999999999778, -0.5079079963783046 
0.35999999999997667, -0.5077259341534686 
0.36999999999997557, -0.5074883476583157 
0.37999999999997447, -0.5071994100520312 
0.38999999999997337, -0.5068707258926872 
0.39999999999997227, -0.5065208468436924 
0.40999999999997117, -0.5061712664379385 
0.41999999999997006, -0.5058399476771159 
0.42999999999996896, -0.5055354447743714 
0.43999999999996786, -0.5052546663596871 
0.44999999999996676, -0.5049852609043172 
0.45999999999996566, -0.5047110669024474 
0.46999999999996456, -0.5044177237902507 
0.47999999999996346, -0.5040961067139299 
0.48999999999996235, -0.5037430707443203 
0.49999999999996125, -0.5033605743642597 
0.5099999999999602, -0.5029546970777432 
0.519999999999959, -0.5025356606060183 
0.529999999999958, -0.502119435388611 
0.5399999999999568, -0.5017312325345906 
0.5499999999999557, -0.501411029006997 
0.5599999999999546, -0.5012207886757205 
0.5699999999999535, -0.5012513893367234 
0.5799999999999524, -0.5016231780452138 
0.5899999999999513, -0.5024668562802843 
0.5999999999999502, -0.5038657320387103 
0.6099999999999491, -0.5057559232165396 
0.619999999999948, -0.5078454708563329 
0.6299999999999469, -0.5096849822288726 
0.6399999999999458, -0.5109268901646947 
0.6499999999999447, -0.5115407440771181 
0.6599999999999436, -0.5117485811056965 
0.6699999999999425, -0.5118013182571113 
0.6799999999999414, -0.5118451436063385 
0.6899999999999403, -0.5119231734702707 
0.6999999999999392, -0.5120257008092695 
0.7099999999999381, -0.5121288714376997 
0.719999999999937, -0.5122117238551666 
0.7299999999999359, -0.5122599709163462 
0.7399999999999348, -0.5122645615386002 
0.7499999999999337, -0.5122191911150726 
0.7599999999999326, -0.5121183936978012 
0.7699999999999315, -0.5119567976495835 
0.7799999999999304, -0.5117298143380945 
0.7899999999999293, -0.5114358002204578 
0.7999999999999282, -0.5110791293568506 
0.8099999999999271, -0.5106726149275457 
0.819999999999926, -0.5102371099142227 
0.8299999999999249, -0.5097970946033547 
0.8399999999999238, -0.5093736169566568 
0.8499999999999227, -0.5089780714566255 
0.8599999999999216, -0.5086099731960279 
0.8699999999999205, -0.5082594431229832 
0.8799999999999194, -0.5079125723898007 
0.8899999999999183, -0.5075567969797822 
0.8999999999999172, -0.5071842158009889 
0.9099999999999161, -0.5067925359084057 
0.919999999999915, -0.5063846913184142 
0.9299999999999139, -0.5059685146064381 
0.9399999999999128, -0.5055574837484055 
0.9499999999999117, -0.5051731403567132 
0.9599999999999106, -0.5048495574757206 
0.9699999999999095, -0.5046400873125305 
0.9799999999999084, -0.5046260831123337 
0.9899999999999073, -0.5049255119817855 
0.9999999999999062, -0.505695009656364 
1.0099999999999052, -0.5071110400659489 
1.019999999999904, -0.5093085274280554 
1.029999999999903, -0.5122677570837318 
1.039999999999902, -0.5157033397873795 
1.0499999999999008, -0.5190943229441812 
1.0599999999998997, -0.52193262360889 
1.0699999999998986, -0.5239971313827597 
1.0799999999998975, -0.5253790420591754 
1.0899999999998964, -0.5262964804011474 
1.0999999999998953, -0.5269336815975659 
1.1099999999998942, -0.5273977462843451 
1.119999999999893, -0.52773988154207 
1.129999999999892, -0.5279834671855814 
1.1399999999998909, -0.528140481463865 
1.1499999999998898, -0.5282180558547827 
1.1599999999998887, -0.5282201314902776 
1.1699999999998876, -0.5281474190937328 
1.1799999999998865, -0.5279972184547168 
1.1899999999998854, -0.5277639232715574 
1.1999999999998843, -0.527440835052483 
1.2099999999998832, -0.5270236653753162 
1.219999999999882, -0.5265152799173958 
1.229999999999881, -0.5259297625779922 
1.2399999999998799, -0.5252928382787163 
1.2499999999998788, -0.5246368804230241 
1.2599999999998777, -0.5239922159048068 
1.2699999999998766, -0.5233792673487273 
1.2799999999998755, -0.5228054171064856 
1.2899999999998744, -0.522267202681194 
1.2999999999998733, -0.5217555937230555 
1.3099999999998722, -0.5212613893083373 
1.319999999999871, -0.5207788784241234 
1.32999999999987, -0.5203075600979473 
1.3399999999998689, -0.5198528263975595 
1.3499999999998678, -0.5194267525343913 
1.3599999999998666, -0.5190498652286717 
1.3699999999998655, -0.518754429322642 
1.3799999999998644, -0.518589581224062 
1.3899999999998633, -0.5186284230221287 
1.3999999999998622, -0.5189766110891035 
1.4099999999998611, -0.5197803687886748 
1.41999999999986, -0.5212281925356526 
1.429999999999859, -0.5235339644720144 
1.4399999999998578, -0.5268820766320342 
1.4499999999998567, -0.5313202116544757 
1.4599999999998556, -0.5366282118822648 
1.4699999999998545, -0.5422721316251887 
1.4799999999998534, -0.5475650111770428 
1.4899999999998523, -0.5519725516528375 
1.4999999999998512, -0.5553058065884735 
1.5099999999998501, -0.5576662835211186 
1.519999999999849, -0.5592743060461574 
1.529999999999848, -0.5603432405168459 
1.5399999999998468, -0.5610347036172016 
1.5499999999998457, -0.5614587568492504 
1.5599999999998446, -0.5616864827594515 
1.5699999999998435, -0.5617615049932628 
1.5799999999998424, -0.5617077069481222 
1.5899999999998413, -0.561533805871277 
1.5999999999998402, -0.5612360844855215 
1.6099999999998391, -0.5608007377205978 
1.619999999999838, -0.5602075640441603 
1.629999999999837, -0.5594367859598448 
1.6399999999998358, -0.5584795737673608 
1.6499999999998347, -0.5573494955959724 
1.6599999999998336, -0.5560882479404512 
1.6699999999998325, -0.5547595606725235 
1.6799999999998314, -0.5534326413971146 
1.6899999999998303, -0.5521645483903806 
1.6999999999998292, -0.550990742129105 
1.709999999999828, -0.5499258561414095 
1.719999999999827, -0.5489706004918581 
1.729999999999826, -0.548119713869367 
1.7399999999998248, -0.5473680527175195 
1.7499999999998237, -0.546714249758839 
1.7599999999998226, -0.5461626100541487 
1.7699999999998215, -0.5457241458995628 
1.7799999999998204, -0.5454174098150631 
1.7899999999998193, -0.545269471376899 
1.7999999999998182, -0.5453171493307482 
1.809999999999817, -0.5456084208815255 
1.819999999999816, -0.5462036511113337 
1.8299999999998149, -0.547175721527413 
1.8399999999998138, -0.5486070679569675 
1.8499999999998127, -0.5505800065136677 
1.8599999999998116, -0.5531552568227974 
1.8699999999998105, -0.5563350182150444 
1.8799999999998094, -0.5600166570100455 
1.8899999999998083, -0.5639634406660481 
1.8999999999998072, -0.5678336524329161 
1.909999999999806, -0.5712823299369931 
1.919999999999805, -0.5740805407434865 
1.9299999999998039, -0.5761675988868336 
1.9399999999998028, -0.5776144302328953 
1.9499999999998017, -0.5785495560405661 
1.9599999999998006, -0.5791012641432438 
1.9699999999997995, -0.5793709212915796 
1.9799999999997984, -0.5794275383552533 
1.9899999999997973, -0.5793108728480308 
1.9999999999997962, -0.5790355740313128 
2.0099999999998173, -0.5785934181671648 
2.0199999999998384, -0.5779531713653537 
2.0299999999998595, -0.577059272474483 
2.0399999999998806, -0.5758327178713747 
2.0499999999999017, -0.574180692773618 
2.059999999999923, -0.5720231969515699 
2.069999999999944, -0.5693380902664487 
2.079999999999965, -0.5662055476526708 
2.089999999999986, -0.5628146183342732 
2.100000000000007, -0.5594121072056333 
2.1100000000000283, -0.5562233615065537 
2.1200000000000494, -0.5533970168601096 
2.1300000000000705, -0.5509960319039353 
2.1400000000000916, -0.549019774471262 
2.1500000000001127, -0.5474328635306229 
2.160000000000134, -0.5461871642749956 
2.170000000000155, -0.5452344379522647 
2.180000000000176, -0.5445320591508208 
2.190000000000197, -0.5440448319963769 
2.2000000000002182, -0.5437450629375629 
2.2100000000002393, -0.5436120920363818 
2.2200000000002604, -0.5436318319270997 
2.2300000000002815, -0.5437964873588578 
2.2400000000003026, -0.5441044005847255 
2.2500000000003237, -0.54455975924996 
2.260000000000345, -0.5451716158455053 
2.270000000000366, -0.5459512924578818 
2.280000000000387, -0.5469069842110386 
2.290000000000408, -0.5480347845490947 
2.3000000000004293, -0.5493072680057153 
2.3100000000004504, -0.5506644653572272 
2.3200000000004715, -0.5520153820292263 
2.3300000000004926, -0.5532557623722842 
2.3400000000005137, -0.5542967269655928 
2.3500000000005348, -0.5550879545231047 
2.360000000000556, -0.5556220912083651 
2.370000000000577, -0.5559219805399596 
2.380000000000598, -0.5560223563369383 
2.390000000000619, -0.5559554598780744 
2.4000000000006403, -0.555742971036838 
2.4100000000006614, -0.5553922072391473 
2.4200000000006825, -0.5548936518058732 
2.4300000000007036, -0.5542174944852027 
2.4400000000007247, -0.5533076353064464 
2.450000000000746, -0.5520725392804549 
2.460000000000767, -0.5503747674627262 
2.470000000000788, -0.5480275944627689 
2.480000000000809, -0.5448194181213984 
2.49000000000083, -0.5405946027064684 
2.5000000000008513, -0.5353892146076075 
2.5100000000008724, -0.5295335475423822 
2.5200000000008935, -0.5235897399202657 
2.5300000000009146, -0.518127439835154 
2.5400000000009357, -0.5135160682005785 
2.550000000000957, -0.5098718361133889 
2.560000000000978, -0.5071289273581667 
2.570000000000999, -0.5051375063925237 
2.58000000000102, -0.503732822275425 
2.5900000000010412, -0.5027689098796144 
2.6000000000010624, -0.5021291350749628 
2.6100000000010835, -0.5017255994703745 
2.6200000000011046, -0.501494594205231 
2.6300000000011257, -0.5013914848386574 
2.6400000000011468, -0.5013863273469705 
2.650000000001168, -0.5014605701158585 
2.660000000001189, -0.5016047989948058 
2.67000000000121, -0.5018172553953286 
2.680000000001231, -0.5021025975751903 
2.6900000000012523, -0.5024700456470207 
2.7000000000012734, -0.5029298384148373 
2.7100000000012945, -0.5034872509341091 
2.7200000000013156, -0.5041347149350893 
2.7300000000013367, -0.5048448238223477 
2.740000000001358, -0.5055689771217189 
2.750000000001379, -0.5062454996990469 
2.7600000000014, -0.5068155493298767 
2.770000000001421, -0.5072385535540185 
2.780000000001442, -0.5074985520745822 
2.7900000000014633, -0.5075998219691014 
2.8000000000014844, -0.507556937442631 
2.8100000000015055, -0.5073851617857738 
2.8200000000015266, -0.5070937671141033 
2.8300000000015477, -0.5066818300106342 
2.840000000001569, -0.5061348002836445 
2.85000000000159, -0.5054200169433476 
2.860000000001611, -0.5044795370334453 
2.870000000001632, -0.5032191979858461 
2.8800000000016532, -0.5014952193036374 
2.8900000000016743, -0.4991073035290188 
2.9000000000016954, -0.4958229464303024 
2.9100000000017165, -0.49146947451020545 
2.9200000000017377, -0.48609305055431634 
2.9300000000017588, -0.48007287103677 
2.94000000000178, -0.47403118135071776 
2.950000000001801, -0.46856412427831157 
2.960000000001822, -0.46402202634772893 
2.970000000001843, -0.4604806155364156 
2.9800000000018643, -0.4578387473924989 
2.9900000000018854, -0.4559269001275156 
3.0000000000019065, -0.45457462173691743 
3.0100000000019276, -0.4536388755999906 
3.0200000000019487, -0.4530099928296224 
3.03000000000197, -0.4526082750670247 
3.040000000001991, -0.4523781231118722 
3.050000000002012, -0.4522825409523035 
3.060000000002033, -0.4522989009405366 
3.070000000002054, -0.45241604935850893 
3.0800000000020753, -0.45263251253814063 
3.0900000000020964, -0.45295535178766977 
3.1000000000021175, -0.4533989210719386 
3.1100000000021386, -0.4539823812607331 
3.1200000000021597, -0.45472452408927105 
3.130000000002181, -0.4556347770077328 
3.140000000002202, -0.4567009975438888 
3.150000000002223, -0.4578783202137752 
3.160000000002244, -0.45908727366758545 
3.1700000000022652, -0.460228349040866 
3.1800000000022863, -0.4612098674691917 
3.1900000000023074, -0.46197351945306436 
3.2000000000023285, -0.4625024824984564 
3.2100000000023496, -0.46281139703315927 
3.2200000000023707, -0.4629290326068062 
3.230000000002392, -0.4628836498899506 
3.240000000002413, -0.4626942191682927 
3.250000000002434, -0.46236588829516256 
3.260000000002455, -0.46188695204252994 
3.2700000000024763, -0.46122527286974496 
3.2800000000024974, -0.4603234242104753 
3.2900000000025185, -0.4590940324260028 
3.3000000000025396, -0.4574210204820953 
3.3100000000025607, -0.4551785855659304 
3.3200000000025818, -0.4522811151599929 
3.330000000002603, -0.4487579364310358 
3.340000000002624, -0.4448041409057927 
3.350000000002645, -0.4407438693515142 
3.360000000002666, -0.43691129816749824 
3.3700000000026873, -0.43353812711506456 
3.3800000000027084, -0.43071853355361717 
3.3900000000027295, -0.42844118068580855 
3.4000000000027506, -0.4266404474672269 
3.4100000000027717, -0.42523579277364015 
3.420000000002793, -0.42415304045038865 
3.430000000002814, -0.42333267054346163 
3.440000000002835, -0.4227313345172286 
3.450000000002856, -0.4223207497608182 
3.460000000002877, -0.4220861463505499 
3.4700000000028983, -0.42202522658490454 
3.4800000000029194, -0.42214798070556725 
3.4900000000029405, -0.42247737940766167 
3.5000000000029616, -0.42305067037810584 
3.5100000000029827, -0.42392048847803226 
3.520000000003004, -0.4251539686445732 
3.530000000003025, -0.4268263262548787 
3.540000000003046, -0.42900337068575595 
3.550000000003067, -0.4317076232135803 
3.5600000000030882, -0.4348710449226575 
3.5700000000031094, -0.43829863855844914 
3.5800000000031305, -0.4416869614570401 
3.5900000000031516, -0.4447184238310973 
3.6000000000031727, -0.4471788560714467 
3.6100000000031938, -0.4490105664747511 
3.620000000003215, -0.4502775778547304 
3.630000000003236, -0.45109536775506276 
3.640000000003257, -0.45157763262531275 
3.650000000003278, -0.45181299459378754 
3.6600000000032993, -0.4518611722794266 
3.6700000000033204, -0.45175662100135205 
3.6800000000033415, -0.4515131746448959 
3.6900000000033626, -0.45112767829591904 
3.7000000000033837, -0.45058304888785133 
3.710000000003405, -0.44985263573495643 
3.720000000003426, -0.44890854032220984 
3.730000000003447, -0.44773563784329634 
3.740000000003468, -0.4463486382779457 
3.750000000003489, -0.44480275334657343 
3.7600000000035103, -0.4431869828943612 
3.7700000000035314, -0.4415996511032512 
3.7800000000035525, -0.44012043375126975 
3.7900000000035736, -0.4387948583464035 
3.8000000000035947, -0.4376353374641889 
3.810000000003616, -0.4366320034195221 
3.820000000003637, -0.4357650187660157 
3.830000000003658, -0.4350138239621237 
3.840000000003679, -0.43436251730399567 
3.8500000000037002, -0.4338024282569829 
3.8600000000037213, -0.4333333603926036 
3.8700000000037424, -0.4329647278038909 
3.8800000000037635, -0.43271742377764355 
3.8900000000037847, -0.4326269765673872 
3.9000000000038058, -0.4327483605753035 
3.910000000003827, -0.43316254768657164 
3.920000000003848, -0.43398406943453366 
3.930000000003869, -0.435366681931065 
3.94000000000389, -0.4374994024205178 
3.9500000000039113, -0.44057713116109526 
3.9600000000039324, -0.44472390950809554 
3.9700000000039535, -0.4498632216756945 
3.9800000000039746, -0.45559856787065944 
3.9900000000039957, -0.4612532358995088 
4.000000000004016, -0.46614726658814243 
4.010000000003993, -0.46991388835389303 
4.02000000000397, -0.4725694062259647 
4.030000000003946, -0.474345478620846 
4.040000000003923, -0.4755031560138008 
4.0500000000039, -0.4762459875562362 
4.0600000000038765, -0.4767097844637996 
4.070000000003853, -0.4769791726688405 
4.08000000000383, -0.4771051063560825 
4.090000000003807, -0.4771168881167752 
4.100000000003783, -0.47702936024377796 
4.11000000000376, -0.4768472282213415 
4.120000000003737, -0.47656827594841705 
4.130000000003713, -0.4761869136591713 
4.14000000000369, -0.4756990532098144 
4.150000000003667, -0.47510822954961973 
4.1600000000036434, -0.47443100055074294 
4.17000000000362, -0.4736981267147685 
4.180000000003597, -0.4729491250570936 
4.1900000000035735, -0.4722219292258455 
4.20000000000355, -0.4715430501387251 
4.210000000003527, -0.4709230825938274 
4.220000000003504, -0.4703585488780472 
4.23000000000348, -0.46983767320980646 
4.240000000003457, -0.46934674251302233 
4.250000000003434, -0.4688747409819392 
4.26000000000341, -0.46841565871231045 
4.270000000003387, -0.46796919901094497 
4.280000000003364, -0.4675410872663718 
4.2900000000033405, -0.4671440224478922 
4.300000000003317, -0.4667999778731578 
4.310000000003294, -0.4665443306186253 
4.320000000003271, -0.46643213069155626 
4.330000000003247, -0.4665463524257308 
4.340000000003224, -0.46700643760476923 
4.350000000003201, -0.4679714978682413 
4.360000000003177, -0.46962479586735284 
4.370000000003154, -0.47211694940467763 
4.380000000003131, -0.4754513230235274 
4.390000000003107, -0.4793518441383361 
4.400000000003084, -0.48325598653789587 
4.410000000003061, -0.48655846700717287 
4.4200000000030375, -0.48894754048811906 
4.430000000003014, -0.49049383180285294 
4.440000000002991, -0.49145713809459063 
4.450000000002968, -0.4920780794922857 
4.460000000002944, -0.4925048144510832 
4.470000000002921, -0.4928102610631358 
4.480000000002898, -0.49302659102155183 
4.490000000002874, -0.49316814308870527 
4.500000000002851, -0.49324199146441333 
4.510000000002828, -0.4932516473935763 
4.520000000002804, -0.4931979692842751 
4.530000000002781, -0.49307939905677356 
4.540000000002758, -0.49289258603430036 
4.5500000000027345, -0.4926340223006117 
4.560000000002711, -0.49230294267913666 
4.570000000002688, -0.4919049785324411 
4.580000000002665, -0.4914548993472597 
4.590000000002641, -0.49097612545964625 
4.600000000002618, -0.49049584188339346 
4.610000000002595, -0.49003735252680486 
4.620000000002571, -0.48961347635841446 
4.630000000002548, -0.48922424282753374 
4.640000000002525, -0.4888594984095029 
4.6500000000025015, -0.48850447101616484 
4.660000000002478, -0.4881453677706456 
4.670000000002455, -0.4877728980447301 
4.6800000000024315, -0.4873833448391003 
4.690000000002408, -0.48697818152567685 
4.700000000002385, -0.4865635998489772 
4.710000000002362, -0.4861509782199926 
4.720000000002338, -0.4857588827804946 
4.730000000002315, -0.48541694788276957 
4.740000000002292, -0.48517179863190474 
4.750000000002268, -0.4850945860885383 
4.760000000002245, -0.48528781842304125 
4.770000000002222, -0.48588462829199297 
4.7800000000021985, -0.4870257602392968 
4.790000000002175, -0.48879389506433946 
4.800000000002152, -0.4911035887776551 
4.810000000002129, -0.4936173640665829 
4.820000000002105, -0.4958328952755717 
4.830000000002082, -0.4973701434676312 
4.840000000002059, -0.4981961509098737 
4.850000000002035, -0.49854627746943614 
4.860000000002012, -0.49868706494589465 
4.870000000001989, -0.498779217951019 
4.880000000001965, -0.498878879283878 
4.890000000001942, -0.498986976353304 
4.900000000001919, -0.4990873094629228 
