t, s[1].omega / s[0].omega 
0, -1.7599969986045063 
0.009999999999999995, -1.7595029068874353 
0.019999999999999934, -1.7586152101602495 
0.029999999999999874, -1.7573129693805645 
0.04000000000000012, -1.755594415699099 
0.050000000000000405, -1.753554312291044 
0.06000000000000069, -1.7515085582361436 
0.07000000000000098, -1.7499866736009824 
0.08000000000000126, -1.7493188492286176 
0.09000000000000155, -1.7492669171104738 
0.10000000000000184, -1.7493555874230562 
0.11000000000000212, -1.7492903173777576 
0.12000000000000241, -1.7489533396174388 
0.130000000000002, -1.7482589878475951 
0.1400000000000009, -1.7470847397869342 
0.1499999999999998, -1.7453778030484048 
0.1599999999999987, -1.7436554464348528 
0.1699999999999976, -1.7436294967148236 
0.1799999999999965, -1.7469226776505054 
0.1899999999999954, -1.7524426599946854 
0.1999999999999943, -1.7576919803294715 
0.2099999999999932, -1.761441226920816 
0.2199999999999921, -1.7637071508118503 
0.229999999999991, -1.7648805395203762 
0.2399999999999899, -1.7653175364408775 
0.2499999999999888, -1.7652608363577258 
0.2599999999999877, -1.764863266362778 
0.2699999999999866, -1.764230988640249 
0.2799999999999855, -1.763461805494018 
0.2899999999999844, -1.7626646171691696 
0.2999999999999833, -1.7619612864905971 
0.3099999999999822, -1.7614675856467727 
0.3199999999999811, -1.7612189921829835 
0.32999999999998, -1.7611108611818946 
0.3399999999999789, -1.760967223365697 
0.3499999999999778, -1.7606292070863698 
0.35999999999997667, -1.7599371827180832 
0.36999999999997557, -1.7586362761536674 
0.37999999999997447, -1.75625585143653 
0.38999999999997337, -1.752074065927949 
0.39999999999997227, -1.7456986922008422 
0.40999999999997117, -1.7391421396965192 
0.41999999999997006, -1.7376087739603967 
0.42999999999996896, -1.742726100806743 
0.43999999999996786, -1.7495997637071095 
0.44999999999996676, -1.7545160401465068 
0.45999999999996566, -1.7571929066433873 
0.46999999999996456, -1.7584068836419804 
0.47999999999996346, -1.7587897176787277 
0.48999999999996235, -1.7586995238643728 
0.49999999999996125, -1.7583338475667585 
0.5099999999999602, -1.7578418277227672 
0.519999999999959, -1.7573871558518246 
0.529999999999958, -1.7571164200925478 
0.5399999999999568, -1.7570702872962964 
0.5499999999999557, -1.7571792484267408 
0.5599999999999546, -1.7573335813339015 
0.5699999999999535, -1.757420704184526 
0.5799999999999524, -1.7573348293013513 
0.5899999999999513, -1.7569728751230378 
0.5999999999999502, -1.7562050344642177 
0.6099999999999491, -1.7548285912988804 
0.619999999999948, -1.75252396246819 
0.6299999999999469, -1.7488585598880104 
0.6399999999999458, -1.7434945979519636 
0.6499999999999447, -1.7368955821645091 
0.6599999999999436, -1.7311800897779772 
0.6699999999999425, -1.7287902805359008 
0.6799999999999414, -1.7293800174295886 
0.6899999999999403, -1.7307797758939127 
0.6999999999999392, -1.7317691164748896 
0.7099999999999381, -1.732183279630961 
0.719999999999937, -1.7321555200139997 
0.7299999999999359, -1.7318041892986709 
0.7399999999999348, -1.7312167312010434 
0.7499999999999337, -1.7305528920688644 
0.7599999999999326, -1.7301700308518018 
0.7699999999999315, -1.7305035844175858 
0.7799999999999304, -1.7316110755398082 
0.7899999999999293, -1.7330672445525424 
0.7999999999999282, -1.7344090640408907 
0.8099999999999271, -1.7354036909025368 
0.819999999999926, -1.7359920862258782 
0.8299999999999249, -1.7361820285680682 
0.8399999999999238, -1.7359907655380193 
0.8499999999999227, -1.735423419718101 
0.8599999999999216, -1.734469369187515 
0.8699999999999205, -1.7331128149156232 
0.8799999999999194, -1.7313672409082816 
0.8899999999999183, -1.729354685190692 
0.8999999999999172, -1.7274130628915974 
0.9099999999999161, -1.7260387630017084 
0.919999999999915, -1.7254737639159896 
0.9299999999999139, -1.7254431277721731 
0.9399999999999128, -1.7255088521114412 
0.9499999999999117, -1.7254113964759317 
0.9599999999999106, -1.7250399770330014 
0.9699999999999095, -1.7242997899803072 
0.9799999999999084, -1.7230491420028962 
0.9899999999999073, -1.7212034124688067 
0.9999999999999062, -1.719247385337453 
1.0099999999999052, -1.7189630150784847 
1.019999999999904, -1.7222633220488341 
1.029999999999903, -1.7282146754278798 
1.039999999999902, -1.7340558553068324 
1.0499999999999008, -1.7382854683574869 
1.0599999999998997, -1.7408609224867586 
1.0699999999998986, -1.742217876519638 
1.0799999999998975, -1.7427669838566444 
1.0899999999998964, -1.7427888891488774 
1.0999999999998953, -1.7424585920790068 
1.1099999999998942, -1.7418941897672127 
1.119999999999893, -1.7411996380961994 
1.129999999999892, -1.7404840084448683 
1.1399999999998909, -1.7398557535902621 
1.1499999999998898, -1.739406876864337 
1.1599999999998887, -1.7391695346408445 
1.1699999999998876, -1.7390661034425243 
1.1799999999998865, -1.7389447114246877 
1.1899999999998854, -1.738654480983079 
1.1999999999998843, -1.7380458369447347 
1.2099999999998832, -1.73689521550566 
1.219999999999882, -1.7347924934975754 
1.229999999999881, -1.7310446204521068 
1.2399999999998799, -1.7248875135594666 
1.2499999999998788, -1.7168376945206156 
1.2599999999998777, -1.7108388348608148 
1.2699999999998766, -1.7113752823371517 
1.2799999999998755, -1.7165620534880834 
1.2899999999998744, -1.7216247140061154 
1.2999999999998733, -1.7247739463165748 
1.3099999999998722, -1.7263359732351642 
1.319999999999871, -1.7269338208880824 
1.32999999999987, -1.726977908471677 
1.3399999999998689, -1.7266934741386344 
1.3499999999998678, -1.7262293157043078 
1.3599999999998666, -1.725749365834433 
1.3699999999998655, -1.7254488213875132 
1.3799999999998644, -1.7254476989806053 
1.3899999999998633, -1.7256965803846456 
1.3999999999998622, -1.7260454617530123 
1.4099999999998611, -1.726350583282062 
1.41999999999986, -1.7265035412981817 
1.429999999999859, -1.7264208122966458 
1.4399999999998578, -1.7260229927963304 
1.4499999999998567, -1.725207797014138 
1.4599999999998556, -1.7238254995021767 
1.4699999999998545, -1.7216693246133778 
1.4799999999998534, -1.7185134418481607 
1.4899999999998523, -1.7142895481757527 
1.4999999999998512, -1.7095080585692444 
1.5099999999998501, -1.7055672893533451 
1.519999999999849, -1.7037947612759716 
1.529999999999848, -1.703891770190204 
1.5399999999998468, -1.7045798027761954 
1.5499999999998457, -1.7050745354964374 
1.5599999999998446, -1.7052005914478596 
1.5699999999998435, -1.7049872219819062 
1.5799999999998424, -1.7044690749431972 
1.5899999999998413, -1.7036810090138368 
1.5999999999998402, -1.7027959971806148 
1.6099999999998391, -1.7023455444136288 
1.619999999999838, -1.703079734592999 
1.629999999999837, -1.7051434373236962 
1.6399999999998358, -1.7077839161928523 
1.6499999999998347, -1.710174262192511 
1.6599999999998336, -1.711946069268485 
1.6699999999998325, -1.7130681622429633 
1.6799999999998314, -1.7136279381283845 
1.6899999999998303, -1.7137241323125239 
1.6999999999998292, -1.7134344152736556 
1.709999999999828, -1.7128135207855366 
1.719999999999827, -1.711905410062387 
1.729999999999826, -1.710766067580544 
1.7399999999998248, -1.709497174536399 
1.7499999999998237, -1.7082833681619136 
1.7599999999998226, -1.7073711169764674 
1.7699999999998215, -1.7069029808807286 
1.7799999999998204, -1.7067653622305632 
1.7899999999998193, -1.7067033098084914 
1.7999999999998182, -1.7065114854542833 
1.809999999999817, -1.7060532329930642 
1.819999999999816, -1.7051717610034511 
1.8299999999998149, -1.703596605714211 
1.8399999999998138, -1.7009254885053895 
1.8499999999998127, -1.6969886277117348 
1.8599999999998116, -1.6931577654959877 
1.8699999999998105, -1.693188245060633 
1.8799999999998094, -1.6990330935956997 
1.8899999999998083, -1.7071660874353747 
1.8999999999998072, -1.713664821518139 
1.909999999999806, -1.717631398366335 
1.919999999999805, -1.7196989684617736 
1.9299999999998039, -1.7206040547838835 
1.9399999999998028, -1.7208308979186602 
1.9499999999998017, -1.7206537726225821 
1.9599999999998006, -1.7202362938146993 
1.9699999999997995, -1.7197109770554948 
1.9799999999997984, -1.7192136006869407 
1.9899999999997973, -1.7188536442486586 
1.9999999999997962, -1.7186689488839577 
2.0099999999998173, -1.718629456758172 
2.0199999999998384, -1.7186582154622112 
2.0299999999998595, -1.718646404196143 
2.0399999999998806, -1.718478199879317 
2.0499999999999017, -1.7180359225630366 
2.059999999999923, -1.7171649689193842 
2.069999999999944, -1.7156144643174607 
2.079999999999965, -1.7129769111269675 
2.089999999999986, -1.7086916260804663 
2.100000000000007, -1.7023366449340032 
2.1100000000000283, -1.69458861959991 
2.1200000000000494, -1.6882104686095805 
2.1300000000000705, -1.6860239915838366 
2.1400000000000916, -1.6872412406240904 
2.1500000000001127, -1.689190574773594 
2.160000000000134, -1.6905317872074626 
2.170000000000155, -1.6911546172599234 
2.180000000000176, -1.6912602230154103 
2.190000000000197, -1.6910123023449732 
2.2000000000002182, -1.6905151328058714 
2.2100000000002393, -1.689897118093143 
2.2200000000002604, -1.6894239135472067 
2.2300000000002815, -1.6894755344647685 
2.2400000000003026, -1.690230129320435 
2.2500000000003237, -1.6914410944727005 
2.260000000000345, -1.6926950952714417 
2.270000000000366, -1.693715308898699 
2.280000000000387, -1.694392283297772 
2.290000000000408, -1.6947031945139934 
2.3000000000004293, -1.694651621533073 
2.3100000000004504, -1.6942394130230156 
2.3200000000004715, -1.693457283838042 
2.3300000000004926, -1.6922878163500168 
2.3400000000005137, -1.6907242475264028 
2.3500000000005348, -1.688819083417061 
2.360000000000556, -1.6867743485071724 
2.370000000000577, -1.6850021150855767 
2.380000000000598, -1.6839310128315461 
2.390000000000619, -1.6835974244902991 
2.4000000000006403, -1.6836310141686681 
2.4100000000006614, -1.6836576063286401 
2.4200000000006825, -1.6834864801212308 
2.4300000000007036, -1.6830234405226232 
2.4400000000007247, -1.6821575177217656 
2.450000000000746, -1.680720262671123 
2.460000000000767, -1.6786229215347503 
2.470000000000788, -1.67644008045666 
2.480000000000809, -1.676165123495436 
2.49000000000083, -1.6798500150630402 
2.5000000000008513, -1.6864310442362487 
2.5100000000008724, -1.6928836495094515 
2.5200000000008935, -1.6975518895309214 
2.5300000000009146, -1.7003911615264458 
2.5400000000009357, -1.7018963317249642 
2.550000000000957, -1.7025334987152743 
2.560000000000978, -1.7026190179420841 
2.570000000000999, -1.7023478138616575 
2.58000000000102, -1.7018489078625127 
2.5900000000010412, -1.7012333328441689 
2.6000000000010624, -1.7006140101598775 
2.6100000000010835, -1.700090895864276 
2.6200000000011046, -1.699729585958417 
2.6300000000011257, -1.6995438146516357 
2.6400000000011468, -1.6994716689818028 
2.650000000001168, -1.6993897767345754 
2.660000000001189, -1.6991642626887735 
2.67000000000121, -1.6986623369312297 
2.680000000001231, -1.6977036638449818 
2.6900000000012523, -1.6959772493818281 
2.7000000000012734, -1.6929505514473775 
2.7100000000012945, -1.6878784136916942 
2.7200000000013156, -1.6803114531968706 
2.7300000000013367, -1.6716394516835618 
2.740000000001358, -1.6659671059526313 
2.750000000001379, -1.665962466548418 
2.7600000000014, -1.6691538611702548 
2.770000000001421, -1.6722041241132035 
2.780000000001442, -1.6740596857625492 
2.7900000000014633, -1.674922291348749 
2.8000000000014844, -1.6751528901372623 
2.8100000000015055, -1.674989558411868 
2.8200000000015266, -1.6745724988090394 
2.8300000000015477, -1.6740333496018684 
2.840000000001569, -1.6735837500752264 
2.85000000000159, -1.6734975650570587 
2.860000000001611, -1.6739081220060874 
2.870000000001632, -1.6746684093692352 
2.8800000000016532, -1.6755036717979248 
2.8900000000016743, -1.6762042685066914 
2.9000000000016954, -1.676660601269391 
2.9100000000017165, -1.676822282028254 
2.9200000000017377, -1.6766601402930843 
2.9300000000017588, -1.6761433843357427 
2.94000000000178, -1.6752290471427655 
2.950000000001801, -1.6738629551220907 
2.960000000001822, -1.671998852049447 
2.970000000001843, -1.6696566902345673 
2.9800000000018643, -1.6670449860594367 
2.9900000000018854, -1.6646754359951477 
3.0000000000019065, -1.6631659822377851 
3.0100000000019276, -1.6626709387177736 
3.0200000000019487, -1.6627487825526628 
3.03000000000197, -1.6628942429056823 
3.040000000001991, -1.6628548980471543 
3.050000000002012, -1.6625434054257782 
3.060000000002033, -1.6618943018790613 
3.070000000002054, -1.6608052765036416 
3.0800000000020753, -1.6592124316138193 
3.0900000000020964, -1.657459482329638 
3.1000000000021175, -1.6568955007384134 
3.1100000000021386, -1.6593186747650477 
3.1200000000021597, -1.6645900035658212 
3.130000000002181, -1.6704668879085205 
3.140000000002202, -1.6751678249428914 
3.150000000002223, -1.6782796551634305 
3.160000000002244, -1.680079096019997 
3.1700000000022652, -1.6809554303598369 
3.1800000000022863, -1.681214712251958 
3.1900000000023074, -1.6810607773961745 
3.2000000000023285, -1.6806273117811361 
3.2100000000023496, -1.6800182941974782 
3.2200000000023707, -1.6793374173335907 
3.230000000002392, -1.6786912058619539 
3.240000000002413, -1.6781729492940898 
3.250000000002434, -1.6778422261599513 
3.260000000002455, -1.6776891023535678 
3.2700000000024763, -1.6776158211059964 
3.2800000000024974, -1.6774829795765989 
3.2900000000025185, -1.6771575593559795 
3.3000000000025396, -1.6764961608842153 
3.3100000000025607, -1.6752771245364506 
3.3200000000025818, -1.673108419606022 
3.330000000002603, -1.6693522312147855 
3.340000000002624, -1.6632657282169003 
3.350000000002645, -1.6549080475423712 
3.360000000002666, -1.6468867402893441 
3.3700000000026873, -1.6435561235751668 
3.3800000000027084, -1.6455448679444866 
3.3900000000027295, -1.6492657123275687 
3.4000000000027506, -1.6521254831581917 
3.4100000000027717, -1.6537181971383283 
3.420000000002793, -1.6544023399663321 
3.430000000002814, -1.6545252547230682 
3.440000000002835, -1.654295942299213 
3.450000000002856, -1.6538431582407074 
3.460000000002877, -1.6533073822700228 
3.4700000000028983, -1.6529147582445283 
3.4800000000029194, -1.6529229243905619 
3.4900000000029405, -1.6534124043462441 
3.5000000000029616, -1.6542033329326948 
3.5100000000029827, -1.6550310180516763 
3.520000000003004, -1.6557067671837458 
3.530000000003025, -1.6561333758890537 
3.540000000003046, -1.6562654359821747 
3.550000000003067, -1.6560756882092105 
3.5600000000030882, -1.6555352271928894 
3.5700000000031094, -1.6546051222327662 
3.5800000000031305, -1.653239058018722 
3.5900000000031516, -1.6514034053984257 
3.6000000000031727, -1.6491331931349422 
3.6100000000031938, -1.646641678208756 
3.620000000003215, -1.6444095633951612 
3.630000000003236, -1.6429897647974159 
3.640000000003257, -1.642506897017682 
3.650000000003278, -1.6425564963867605 
3.6600000000032993, -1.6426741591470873 
3.6700000000033204, -1.6426184083100175 
3.6800000000033415, -1.642297192221695 
3.6900000000033626, -1.64163612484596 
3.7000000000033837, -1.6405158816705139 
3.710000000003405, -1.6388263282061502 
3.720000000003426, -1.636805795353632 
3.730000000003447, -1.6357249597593628 
3.740000000003468, -1.6376747642201739 
3.750000000003489, -1.643060867477399 
3.7600000000035103, -1.6496064154958003 
3.7700000000035314, -1.6550596066298524 
3.7800000000035525, -1.6587361682557777 
3.7900000000035736, -1.6608932226989606 
3.8000000000035947, -1.6619847818488966 
3.810000000003616, -1.6623787684339892 
3.820000000003637, -1.66231916409238 
3.830000000003658, -1.6619611665830463 
3.840000000003679, -1.661418260255126 
3.8500000000037002, -1.660798580932963 
3.8600000000037213, -1.6602115092790157 
3.8700000000037424, -1.6597460814258191 
3.8800000000037635, -1.6594509098868646 
3.8900000000037847, -1.65931817570675 
3.9000000000038058, -1.6592701371119039 
3.910000000003827, -1.6591843248314935 
3.920000000003848, -1.6589360627814216 
3.930000000003869, -1.658397953515258 
3.94000000000389, -1.6573920179226072 
3.9500000000039113, -1.6556186902024517 
3.9600000000039324, -1.652588035748407 
3.9700000000039535, -1.6476459581524825 
3.9800000000039746, -1.6403961213815634 
3.9900000000039957, -1.6318945265643374 
4.000000000004016, -1.625477835740336 
4.010000000003993, -1.6239232124293324 
4.02000000000397, -1.6258751341555064 
4.030000000003946, -1.6283746910793213 
4.040000000003923, -1.6300730515659876 
4.0500000000039, -1.6309185252271423 
4.0600000000038765, -1.6311691964616668 
4.070000000003853, -1.6310286327452341 
4.08000000000383, -1.6306177016992787 
4.090000000003807, -1.6300424063674417 
4.100000000003783, -1.6294951188280173 
4.11000000000376, -1.6293026139861133 
4.120000000003737, -1.6297494709618843 
4.130000000003713, -1.6307864941055228 
4.14000000000369, -1.6320690275476069 
4.150000000003667, -1.6332584784069883 
4.1600000000036434, -1.6341700444872682 
4.17000000000362, -1.6347388278814325 
4.180000000003597, -1.6349552585171083 
4.1900000000035735, -1.634825776795384 
4.20000000000355, -1.6343554615401281 
4.210000000003527, -1.6335437651276046 
4.220000000003504, -1.6323903497854662 
4.23000000000348, -1.6309142360690447 
4.240000000003457, -1.6291941626530437 
4.250000000003434, -1.6274287570697819 
4.26000000000341, -1.625951332325601 
4.270000000003387, -1.6250613161360612 
4.280000000003364, -1.6247533986424596 
4.2900000000033405, -1.6247360655874767 
4.300000000003317, -1.6247111804908165 
4.310000000003294, -1.6245072274562187 
4.320000000003271, -1.624019048006323 
4.330000000003247, -1.6231113410696274 
4.340000000003224, -1.6215545681616672 
4.350000000003201, -1.6190638581251744 
4.360000000003177, -1.615710288726261 
4.370000000003154, -1.6129849391022684 
4.380000000003131, -1.6140196666685742 
4.390000000003107, -1.6200804293009792 
4.400000000003084, -1.6281590330116944 
4.410000000003061, -1.6348618987285388 
4.4200000000030375, -1.6391929381938994 
4.430000000003014, -1.641600740697657 
4.440000000002991, -1.6427608052903189 
4.450000000002968, -1.6431668785061562 
4.460000000002944, -1.6431164653220929 
4.470000000002921, -1.6427853418023273 
4.480000000002898, -1.6423010577486763 
4.490000000002874, -1.64179161565774 
4.500000000002851, -1.6413837453297446 
4.510000000002828, -1.641154066559773 
4.520000000002804, -1.641100325048694 
4.530000000002781, -1.6411621754064079 
4.540000000002758, -1.641247088393099 
4.5500000000027345, -1.6412501579321173 
4.560000000002711, -1.6410706633787207 
4.570000000002688, -1.6406063608132282 
4.580000000002665, -1.63972480172234 
4.590000000002641, -1.6382286187493638 
4.600000000002618, -1.6358333301554784 
4.610000000002595, -1.6321962663597618 
4.620000000002571, -1.6270984780418225 
4.630000000002548, -1.6209258873355445 
4.640000000002525, -1.6152103111930327 
4.6500000000025015, -1.611947902972311 
4.660000000002478, -1.611498624518879 
4.670000000002455, -1.6124044571240965 
4.6800000000024315, -1.6133423245855762 
4.690000000002408, -1.6138659769040118 
4.700000000002385, -1.6139755297196126 
4.710000000002362, -1.6137496612066407 
4.720000000002338, -1.613237800445645 
4.730000000002315, -1.6124869905896264 
4.740000000002292, -1.611666225519927 
4.750000000002268, -1.611240220886759 
4.760000000002245, -1.6118702060572563 
4.770000000002222, -1.6137821991349799 
4.7800000000021985, -1.6164175361715607 
4.790000000002175, -1.618994575824957 
4.800000000002152, -1.621058329438473 
4.810000000002129, -1.6224925681073952 
4.820000000002105, -1.6233438063709094 
4.830000000002082, -1.6237032107216778 
4.840000000002059, -1.6236583777759381 
4.850000000002035, -1.623280357041084 
4.860000000002012, -1.6226269517211953 
4.870000000001989, -1.6217556651770253 
4.880000000001965, -1.6207417145272853 
4.890000000001942, -1.61969531917759 
4.900000000001919, -1.618767934718718 
4.9100000000018955, -1.618112912709604 
4.920000000001872, -1.6177810532141776 
4.930000000001849, -1.617661690417992 
