t, s[1].omega / s[0].omega 
0, -0.7699976639108557 
0.009999999999999995, -0.7697384083193368 
0.019999999999999934, -0.7694271375641548 
0.029999999999999874, -0.7690615411970411 
0.04000000000000012, -0.7686414435138303 
0.050000000000000405, -0.7681718256287091 
0.06000000000000069, -0.7676644526334238 
0.07000000000000098, -0.7671384299869637 
0.08000000000000126, -0.7666206702070383 
0.09000000000000155, -0.7661467601733951 
0.10000000000000184, -0.765761776682589 
0.11000000000000212, -0.7655199376951833 
0.12000000000000241, -0.7654819907879196 
0.130000000000002, -0.7657099892947937 
0.1400000000000009, -0.7662602402279297 
0.1499999999999998, -0.7671759774941864 
0.1599999999999987, -0.7684810369610987 
0.1699999999999976, -0.7701745410634162 
0.1799999999999965, -0.7722253420631111 
0.1899999999999954, -0.7745652293226277 
0.1999999999999943, -0.7770828389721401 
0.2099999999999932, -0.7796251518561801 
0.2199999999999921, -0.7820158610470405 
0.229999999999991, -0.7840925224281817 
0.2399999999999899, -0.7857476611337464 
0.2499999999999888, -0.7869495627756797 
0.2599999999999877, -0.7877316013406502 
0.2699999999999866, -0.7881620576768734 
0.2799999999999855, -0.7883146370623118 
0.2899999999999844, -0.7882507894360894 
0.2999999999999833, -0.7880137144115167 
0.3099999999999822, -0.787629618854208 
0.3199999999999811, -0.7871129103692465 
0.32999999999998, -0.7864747779731729 
0.3399999999999789, -0.7857371496315243 
0.3499999999999778, -0.7849555668127766 
0.35999999999997667, -0.7842535131361931 
0.36999999999997557, -0.783863503689942 
0.37999999999997447, -0.7841523119340195 
0.38999999999997337, -0.7855822983234924 
0.39999999999997227, -0.7885560018862081 
0.40999999999997117, -0.7931610780180596 
0.41999999999997006, -0.7989802885625448 
0.42999999999996896, -0.8051871330027595 
0.43999999999996786, -0.8109195633101594 
0.44999999999996676, -0.8156295230938875 
0.45999999999996566, -0.8191661252738001 
0.46999999999996456, -0.8216467706789045 
0.47999999999996346, -0.8232924156982552 
0.48999999999996235, -0.824322080143833 
0.49999999999996125, -0.824909815240239 
0.5099999999999602, -0.825177260918065 
0.519999999999959, -0.8251995472313928 
0.529999999999958, -0.8250127600004342 
0.5399999999999568, -0.824618036286558 
0.5499999999999557, -0.8239804713169242 
0.5599999999999546, -0.8230223012504462 
0.5699999999999535, -0.8216112840975102 
0.5799999999999524, -0.8195492454486282 
0.5899999999999513, -0.816575116156122 
0.5999999999999502, -0.8124104248714004 
0.6099999999999491, -0.8068768339639993 
0.619999999999948, -0.8000694283002032 
0.6299999999999469, -0.792473358230618 
0.6399999999999458, -0.7848781226558696 
0.6499999999999447, -0.7780928741694589 
0.6599999999999436, -0.7726583392472135 
0.6699999999999425, -0.768735893399786 
0.6799999999999414, -0.7661791918639247 
0.6899999999999403, -0.7646824216632709 
0.6999999999999392, -0.7639115137989879 
0.7099999999999381, -0.7635813193015699 
0.719999999999937, -0.7634824673051737 
0.7299999999999359, -0.7634767508516146 
0.7399999999999348, -0.7634791869758424 
0.7499999999999337, -0.7634383732723846 
0.7599999999999326, -0.7633204036561914 
0.7699999999999315, -0.7630977164096793 
0.7799999999999304, -0.7627428323630068 
0.7899999999999293, -0.7622270310019548 
0.7999999999999282, -0.7615242888701191 
0.8099999999999271, -0.760619823686766 
0.819999999999926, -0.7595197401650294 
0.8299999999999249, -0.7582556180275786 
0.8399999999999238, -0.7568795351347486 
0.8499999999999227, -0.7554515606626482 
0.8599999999999216, -0.7540271252879298 
0.8699999999999205, -0.7526504370506997 
0.8799999999999194, -0.7513546367079849 
0.8899999999999183, -0.7501654748020031 
0.8999999999999172, -0.7491049999869648 
0.9099999999999161, -0.7481933712947153 
0.919999999999915, -0.7474485032834162 
0.9299999999999139, -0.7468841847928394 
0.9399999999999128, -0.7465077206561211 
0.9499999999999117, -0.7463181967175222 
0.9599999999999106, -0.7463061755953386 
0.9699999999999095, -0.7464550469169499 
0.9799999999999084, -0.7467436052766285 
0.9899999999999073, -0.7471489999729535 
0.9999999999999062, -0.7476491254709924 
1.0099999999999052, -0.7482236956023258 
1.019999999999904, -0.7488535016440918 
1.029999999999903, -0.7495177536234554 
1.039999999999902, -0.750190258304762 
1.0499999999999008, -0.7508365400450935 
1.0599999999998997, -0.7514148870257343 
1.0699999999998986, -0.7518829650419417 
1.0799999999998975, -0.7522077649285793 
1.0899999999998964, -0.7523733412971347 
1.0999999999998953, -0.7523819831586519 
1.1099999999998942, -0.7522493701646615 
1.119999999999893, -0.7519979578819418 
1.129999999999892, -0.7516526619612797 
1.1399999999998909, -0.7512407309359992 
1.1499999999998898, -0.7507960739619037 
1.1599999999998887, -0.750367813127408 
1.1699999999998876, -0.7500325961444201 
1.1799999999998865, -0.7499091791886487 
1.1899999999998854, -0.7501713403215771 
1.1999999999998843, -0.7510514711259332 
1.2099999999998832, -0.7528235408496954 
1.219999999999882, -0.7557532131830712 
1.229999999999881, -0.7600090373816315 
1.2399999999998799, -0.7655481581552376 
1.2499999999998788, -0.7720262712490238 
1.2599999999998777, -0.778814448524667 
1.2699999999998766, -0.7851752868235432 
1.2799999999998755, -0.7905258228922963 
1.2899999999998744, -0.7946110172462548 
1.2999999999998733, -0.7974858088273769 
1.3099999999998722, -0.799374368881085 
1.319999999999871, -0.8005331139564305 
1.32999999999987, -0.8011768593238229 
1.3399999999998689, -0.8014586036231 
1.3499999999998678, -0.8014747363547403 
1.3599999999998666, -0.801276145952183 
1.3699999999998655, -0.8008766817613908 
1.3799999999998644, -0.8002564334937649 
1.3899999999998633, -0.7993595759998711 
1.3999999999998622, -0.7980875159398545 
1.4099999999998611, -0.7962897991155071 
1.41999999999986, -0.793759783198731 
1.429999999999859, -0.7902514633224057 
1.4399999999998578, -0.7855459104890912 
1.4499999999998567, -0.7795921674340436 
1.4599999999998556, -0.7726875805066532 
1.4699999999998545, -0.7655462973645766 
1.4799999999998534, -0.7590903052559602 
1.4899999999998523, -0.7540433002337938 
1.4999999999998512, -0.7506516024457832 
1.5099999999998501, -0.748719329498513 
1.519999999999849, -0.7478346629083993 
1.529999999999848, -0.7475801976804497 
1.5399999999998468, -0.7476372816654261 
1.5499999999998457, -0.7478020907841134 
1.5599999999998446, -0.7479603884987867 
1.5699999999998435, -0.748054246146513 
1.5799999999998424, -0.7480548771436659 
1.5899999999998413, -0.7479441885363983 
1.5999999999998402, -0.7477033143193633 
1.6099999999998391, -0.7473060435166354 
1.619999999999838, -0.7467163976112224 
1.629999999999837, -0.7458913744366471 
1.6399999999998358, -0.7447907320935682 
1.6499999999998347, -0.7433936313135996 
1.6599999999998336, -0.7417161368857067 
1.6699999999998325, -0.7398183723287106 
1.6799999999998314, -0.737793771077737 
1.6899999999998303, -0.735745561501233 
1.6999999999998292, -0.7337645486572913 
1.709999999999828, -0.73191827113034 
1.719999999999827, -0.7302514123796551 
1.729999999999826, -0.7287915223370107 
1.7399999999998248, -0.7275546421714258 
1.7499999999998237, -0.7265484773952224 
1.7599999999998226, -0.7257732269117806 
1.7699999999998215, -0.7252212912572855 
1.7799999999998204, -0.7248771865256101 
1.7899999999998193, -0.724718515293832 
1.7999999999998182, -0.7247181379590035 
1.809999999999817, -0.7248470716633918 
1.819999999999816, -0.725077369867301 
1.8299999999998149, -0.7253843394288686 
1.8399999999998138, -0.7257477266376474 
1.8499999999998127, -0.7261516713729369 
1.8599999999998116, -0.7265832163303891 
1.8699999999998105, -0.727029266864138 
1.8799999999998094, -0.7274726012735665 
1.8899999999998083, -0.7278888113453427 
1.8999999999998072, -0.7282468072941083 
1.909999999999806, -0.7285141877654536 
1.919999999999805, -0.7286654043173533 
1.9299999999998039, -0.728688102917892 
1.9399999999998028, -0.7285842690484005 
1.9499999999998017, -0.7283667923584227 
1.9599999999998006, -0.7280548615305718 
1.9699999999997995, -0.7276714004952182 
1.9799999999997984, -0.727244090066769 
1.9899999999997973, -0.7268102554480909 
1.9999999999997962, -0.7264253850858189 
2.0099999999998173, -0.7261745972633462 
2.0199999999998384, -0.7261852218895981 
2.0299999999998595, -0.7266364396750528 
2.0399999999998806, -0.7277588400395888 
2.0499999999999017, -0.7298137864104796 
2.059999999999923, -0.7330416446606006 
2.069999999999944, -0.7375735316219368 
2.079999999999965, -0.7433210200253987 
2.089999999999986, -0.7498964779471768 
2.100000000000007, -0.756648634103549 
2.1100000000000283, -0.7628565976409283 
2.1200000000000494, -0.76798985792787 
2.1300000000000705, -0.7718539268376181 
2.1400000000000916, -0.7745440818206734 
2.1500000000001127, -0.776297385844199 
2.160000000000134, -0.7773651308228906 
2.170000000000155, -0.7779505718825002 
2.180000000000176, -0.7781953750099542 
2.190000000000197, -0.7781869238133534 
2.2000000000002182, -0.777969189515777 
2.2100000000002393, -0.7775500800889468 
2.2200000000002604, -0.7769032259200065 
2.2300000000002815, -0.7759638696925949 
2.2400000000003026, -0.7746193101720178 
2.2500000000003237, -0.7726963797928048 
2.260000000000345, -0.7699544564204135 
2.270000000000366, -0.7661052253251209 
2.280000000000387, -0.7608952833853643 
2.290000000000408, -0.7542758874488905 
2.3000000000004293, -0.7465980034977683 
2.3100000000004504, -0.7386474396966056 
2.3200000000004715, -0.7313826633793228 
2.3300000000004926, -0.7255287964218757 
2.3400000000005137, -0.7213452799490491 
2.3500000000005348, -0.7186807647685367 
2.360000000000556, -0.7171749108253219 
2.370000000000577, -0.7164398392180275 
2.380000000000598, -0.7161569401877277 
2.390000000000619, -0.7161022803266857 
2.4000000000006403, -0.7161343713584586 
2.4100000000006614, -0.716170070464171 
2.4200000000006825, -0.7161617066026607 
2.4300000000007036, -0.7160797896570839 
2.4400000000007247, -0.7159015206641502 
2.450000000000746, -0.7156042256727655 
2.460000000000767, -0.7151632404800725 
2.470000000000788, -0.7145544479591039 
2.480000000000809, -0.713761393407071 
2.49000000000083, -0.7127847535017816 
2.5000000000008513, -0.7116488657616313 
2.5100000000008724, -0.7103997399328864 
2.5200000000008935, -0.7090940979327588 
2.5300000000009146, -0.707785665652899 
2.5400000000009357, -0.7065162397614673 
2.550000000000957, -0.7053143135265973 
2.560000000000978, -0.7041989165151057 
2.570000000000999, -0.7031847673359147 
2.58000000000102, -0.702286123734697 
2.5900000000010412, -0.7015185080285135 
2.6000000000010624, -0.7008985570219087 
2.6100000000010835, -0.7004426182928525 
2.6200000000011046, -0.7001647949949873 
2.6300000000011257, -0.7000751406365733 
2.6400000000011468, -0.7001785963287418 
2.650000000001168, -0.7004749752070956 
2.660000000001189, -0.7009598642188316 
2.67000000000121, -0.7016258583140866 
2.680000000001231, -0.7024631916930391 
2.6900000000012523, -0.7034586786439228 
2.7000000000012734, -0.7045921016565917 
2.7100000000012945, -0.7058301854728929 
2.7200000000013156, -0.707120439707392 
2.7300000000013367, -0.7083897712763362 
2.740000000001358, -0.7095530991035235 
2.750000000001379, -0.7105320189018023 
2.7600000000014, -0.7112748360322598 
2.770000000001421, -0.7117660463975374 
2.780000000001442, -0.7120208955528932 
2.7900000000014633, -0.7120711705988002 
2.8000000000014844, -0.7119514414331106 
2.8100000000015055, -0.7116908086937868 
2.8200000000015266, -0.7113104941974365 
2.8300000000015477, -0.7108258826968619 
2.840000000001569, -0.7102522693621011 
2.85000000000159, -0.7096149839155078 
2.860000000001611, -0.7089656304231455 
2.870000000001632, -0.7084057573007468 
2.8800000000016532, -0.7081152393194046 
2.8900000000016743, -0.708371949160599 
2.9000000000016954, -0.7095316458185634 
2.9100000000017165, -0.7119262050898041 
2.9200000000017377, -0.7156733768542619 
2.9300000000017588, -0.7205008259338069 
2.94000000000178, -0.7257739753577637 
2.950000000001801, -0.7307780059737834 
2.960000000001822, -0.7350239497689821 
2.970000000001843, -0.7383413819821635 
2.9800000000018643, -0.7407840468525455 
2.9900000000018854, -0.7425016567835278 
3.0000000000019065, -0.7436574719837399 
3.0100000000019276, -0.7443917919589073 
3.0200000000019487, -0.7448112730190599 
3.03000000000197, -0.7449893038351374 
3.040000000001991, -0.7449695796853306 
3.050000000002012, -0.7447690962158809 
3.060000000002033, -0.7443788948348666 
3.070000000002054, -0.743762129349572 
3.0800000000020753, -0.7428503699145173 
3.0900000000020964, -0.7415415709250193 
3.1000000000021175, -0.7397073688902839 
3.1100000000021386, -0.7372210471221201 
3.1200000000021597, -0.7340123301156187 
3.130000000002181, -0.7301322015010053 
3.140000000002202, -0.7257829655781393 
3.150000000002223, -0.7212769751604515 
3.160000000002244, -0.7169428462211804 
3.1700000000022652, -0.7130395859068399 
3.1800000000022863, -0.709719429776406 
3.1900000000023074, -0.7070351597589571 
3.2000000000023285, -0.7049670767635855 
3.2100000000023496, -0.7034507848927603 
3.2200000000023707, -0.7023989096059995 
3.230000000002392, -0.7017166206107376 
3.240000000002413, -0.7013123826756432 
3.250000000002434, -0.7011048531495891 
3.260000000002455, -0.70102636757684 
3.2700000000024763, -0.7010235458714946 
3.2800000000024974, -0.7010559205849847 
3.2900000000025185, -0.7010937291786863 
3.3000000000025396, -0.7011159232902227 
3.3100000000025607, -0.7011089982703012 
3.3200000000025818, -0.701066487546255 
3.330000000002603, -0.7009881631636835 
3.340000000002624, -0.7008777760597538 
3.350000000002645, -0.7007391551284547 
3.360000000002666, -0.7005722259233689 
3.3700000000026873, -0.7003713888929569 
3.3800000000027084, -0.7001275106832225 
3.3900000000027295, -0.6998323432771271 
3.4000000000027506, -0.6994827176284875 
3.4100000000027717, -0.699082646849289 
3.420000000002793, -0.6986435115134604 
3.430000000002814, -0.6981838470512818 
3.440000000002835, -0.6977301754125773 
3.450000000002856, -0.6973194563851459 
3.460000000002877, -0.6970028473879477 
3.4700000000028983, -0.6968498012732305 
3.4800000000029194, -0.6969510546095987 
3.4900000000029405, -0.6974187522835638 
3.5000000000029616, -0.6983818353782424 
3.5100000000029827, -0.6999747400931645 
3.520000000003004, -0.7023171448401682 
3.530000000003025, -0.7054822878292353 
3.540000000003046, -0.7094535333974016 
3.550000000003067, -0.7140779781342255 
3.5600000000030882, -0.7190437918108927 
3.5700000000031094, -0.7239205219821347 
3.5800000000031305, -0.7282760545278395 
3.5900000000031516, -0.7318156789057204 
3.6000000000031727, -0.7344510455947513 
3.6100000000031938, -0.7362643576057235 
3.620000000003215, -0.7374190138000901 
3.630000000003236, -0.7380832636997907 
3.640000000003257, -0.7383919616092997 
3.650000000003278, -0.7384373677084413 
3.6600000000032993, -0.7382727239040876 
3.6700000000033204, -0.7379178944915727 
3.6800000000033415, -0.737362293219596 
3.6900000000033626, -0.7365634410181625 
3.7000000000033837, -0.7354407392042044 
3.710000000003405, -0.7338650567898373 
3.720000000003426, -0.7316475265524358 
3.730000000003447, -0.7285384747549583 
3.740000000003468, -0.7242619562072488 
3.750000000003489, -0.7186237451496483 
3.7600000000035103, -0.7117005929285312 
3.7700000000035314, -0.7040034059614861 
3.7800000000035525, -0.6964078275813386 
3.7900000000035736, -0.6898017483704229 
3.8000000000035947, -0.6847158465858684 
3.810000000003616, -0.6812174872328203 
3.820000000003637, -0.6790534348175448 
3.830000000003658, -0.677854296228068 
3.840000000003679, -0.6772745172821292 
3.8500000000037002, -0.6770496605424301 
3.8600000000037213, -0.677000690680125 
3.8700000000037424, -0.6770160227932009 
3.8800000000037635, -0.677029490448131 
3.8900000000037847, -0.6770017950625687 
3.9000000000038058, -0.6769072431258278 
3.910000000003827, -0.6767253815851215 
3.920000000003848, -0.6764368613479047 
3.930000000003869, -0.6760232722598853 
3.94000000000389, -0.6754708029458079 
3.9500000000039113, -0.6747765394676416 
3.9600000000039324, -0.6739540972708061 
3.9700000000039535, -0.6730341085017706 
3.9800000000039746, -0.6720575227629214 
3.9900000000039957, -0.6710648721133847 
4.000000000004016, -0.6700876222268619 
4.010000000003993, -0.6691455445305711 
4.02000000000397, -0.6682495366114298 
4.030000000003946, -0.6674067365451254 
4.040000000003923, -0.6666251271041131 
4.0500000000039, -0.6659164681845525 
4.0600000000038765, -0.6652976562531931 
4.070000000003853, -0.6647909906744662 
4.08000000000383, -0.6644236871388045 
4.090000000003807, -0.6642267990671378 
4.100000000003783, -0.6642336976447754 
4.11000000000376, -0.664478355678316 
4.120000000003737, -0.6649936915685991 
4.130000000003713, -0.6658099874257917 
4.14000000000369, -0.6669528423646411 
4.150000000003667, -0.6684393748184281 
4.1600000000036434, -0.6702708387011256 
4.17000000000362, -0.6724203415499155 
4.180000000003597, -0.6748173386413956 
4.1900000000035735, -0.6773367222359413 
4.20000000000355, -0.6798061361948193 
4.210000000003527, -0.6820408741233865 
4.220000000003504, -0.683895528528745 
4.23000000000348, -0.6853018438403303 
4.240000000003457, -0.6862698738040833 
4.250000000003434, -0.6868591920818681 
4.26000000000341, -0.6871442559013231 
4.270000000003387, -0.6871907276467017 
4.280000000003364, -0.6870450032432825 
4.2900000000033405, -0.68673186663906 
4.300000000003317, -0.6862550077029774 
4.310000000003294, -0.6855972770234657 
4.320000000003271, -0.6847193232398157 
4.330000000003247, -0.6835562325113311 
4.340000000003224, -0.6820123704176853 
4.350000000003201, -0.6799556305909615 
4.360000000003177, -0.6772158049102 
4.370000000003154, -0.6736021989014237 
4.380000000003131, -0.6689731452644904 
4.390000000003107, -0.66338357519679 
4.400000000003084, -0.6572406179543157 
4.410000000003061, -0.6512684057065459 
4.4200000000030375, -0.6461980192035954 
4.430000000003014, -0.6424318169569083 
4.440000000002991, -0.6399648385864308 
4.450000000002968, -0.6385364620406938 
4.460000000002944, -0.6378185533390234 
4.470000000002921, -0.6375279521539758 
4.480000000002898, -0.637461454104391 
4.490000000002874, -0.6374888864670574 
4.500000000002851, -0.6375328116159398 
4.510000000002828, -0.6375487151426561 
4.520000000002804, -0.637510027690761 
4.530000000002781, -0.6373982054339488 
4.540000000002758, -0.6371970337169324 
4.5500000000027345, -0.6368905585247763 
4.560000000002711, -0.63646450232568 
4.570000000002688, -0.6359108338941276 
4.580000000002665, -0.6352337755474385 
4.590000000002641, -0.6344535855168618 
4.600000000002618, -0.6336043233571026 
4.610000000002595, -0.6327252988343308 
4.620000000002571, -0.6318506768857552 
4.630000000002548, -0.6310029623137848 
4.640000000002525, -0.6301927808430269 
4.6500000000025015, -0.6294232324120137 
4.660000000002478, -0.6286954739117376 
4.670000000002455, -0.6280131507703157 
4.6800000000024315, -0.627385064715658 
4.690000000002408, -0.6268266006534838 
4.700000000002385, -0.6263606265923182 
4.710000000002362, -0.6260182518373707 
4.720000000002338, -0.6258394641941142 
4.730000000002315, -0.6258734804010111 
4.740000000002292, -0.6261786060633643 
4.750000000002268, -0.6268213514166892 
4.760000000002245, -0.6278742648735974 
4.770000000002222, -0.6294112139158556 
4.7800000000021985, -0.6314976384219471 
4.790000000002175, -0.6341722347929665 
4.800000000002152, -0.6374176286791177 
4.810000000002129, -0.6411246037077448 
4.820000000002105, -0.6450693281158142 
4.830000000002082, -0.6489354876889115 
4.840000000002059, -0.6523968616426823 
4.850000000002035, -0.6552231635989274 
4.860000000002012, -0.6573378851160914 
4.870000000001989, -0.6587965461627389 
4.880000000001965, -0.659720719180614 
4.890000000001942, -0.6602388312679064 
4.900000000001919, -0.6604548622876909 
4.9100000000018955, -0.6604393659482801 
4.920000000001872, -0.6602306304629892 
