t, s[1].omega / s[0].omega 
0, -0.07999782207495328 
0.009999999999999995, -0.07981723043795892 
0.019999999999999934, -0.0797045897658982 
0.029999999999999874, -0.07964407134762766 
0.04000000000000012, -0.07961317664867154 
0.050000000000000405, -0.07958759142728736 
0.06000000000000069, -0.07954586664603919 
0.07000000000000098, -0.07947224183212812 
0.08000000000000126, -0.07935694353001414 
0.09000000000000155, -0.07919457626054538 
0.10000000000000184, -0.07898180022256027 
0.11000000000000212, -0.07871528359444778 
0.12000000000000241, -0.07839047865955082 
0.130000000000002, -0.07800153282562057 
0.1400000000000009, -0.0775426352241905 
0.1499999999999998, -0.07701102192883075 
0.1599999999999987, -0.07641127929464032 
0.1699999999999976, -0.07575932293337957 
0.1799999999999965, -0.07508328025990166 
0.1899999999999954, -0.07441918475258708 
0.1999999999999943, -0.07380249568943792 
0.2099999999999932, -0.07325950456221039 
0.2199999999999921, -0.07280251886688285 
0.229999999999991, -0.0724297898045689 
0.2399999999999899, -0.0721286762501565 
0.2499999999999888, -0.0718800853970085 
0.2599999999999877, -0.0716628350131375 
0.2699999999999866, -0.07145708231761778 
0.2799999999999855, -0.07124626753212625 
0.2899999999999844, -0.07101743288333988 
0.2999999999999833, -0.07076024889665085 
0.3099999999999822, -0.07046533386291685 
0.3199999999999811, -0.07012242493843004 
0.32999999999998, -0.06971885526398514 
0.3399999999999789, -0.0692388576982716 
0.3499999999999778, -0.06866453866115499 
0.35999999999997667, -0.06797969182732054 
0.36999999999997557, -0.06717714915488315 
0.37999999999997447, -0.06626803659609884 
0.38999999999997337, -0.06528757994283851 
0.39999999999997227, -0.06429098415127112 
0.40999999999997117, -0.06333861266559154 
0.41999999999997006, -0.062478467833086894 
0.42999999999996896, -0.061735894550537726 
0.43999999999996786, -0.061113617237131046 
0.44999999999996676, -0.06059823055840654 
0.45999999999996566, -0.06016794733627111 
0.46999999999996456, -0.05979871129390383 
0.47999999999996346, -0.05946798287395864 
0.48999999999996235, -0.05915645409076834 
0.49999999999996125, -0.0588481646368174 
0.5099999999999602, -0.058529500916589275 
0.519999999999959, -0.05818749699497343 
0.529999999999958, -0.05780774178123238 
0.5399999999999568, -0.057372134217804446 
0.5499999999999557, -0.056856913559587094 
0.5599999999999546, -0.056232042128847345 
0.5699999999999535, -0.05546412828612864 
0.5799999999999524, -0.05452573226685933 
0.5899999999999513, -0.05341158786980123 
0.5999999999999502, -0.05215493336610473 
0.6099999999999491, -0.05082982678013087 
0.619999999999948, -0.049530814476531876 
0.6299999999999469, -0.04834063426485525 
0.6399999999999458, -0.0473075579403386 
0.6499999999999447, -0.04644273657784391 
0.6599999999999436, -0.04573112681427717 
0.6699999999999425, -0.045144950318627065 
0.6799999999999414, -0.044653562046241255 
0.6899999999999403, -0.04422879179713617 
0.6999999999999392, -0.04384693429039347 
0.7099999999999381, -0.04348869289348305 
0.719999999999937, -0.04313795808384997 
0.7299999999999359, -0.04277989427339402 
0.7399999999999348, -0.04239850756086628 
0.7499999999999337, -0.04197370079823791 
0.7599999999999326, -0.04147793712861278 
0.7699999999999315, -0.040873363685114704 
0.7799999999999304, -0.040111998092712674 
0.7899999999999293, -0.03914393881333904 
0.7999999999999282, -0.03793823587619299 
0.8099999999999271, -0.03651192875953577 
0.819999999999926, -0.03494632163366142 
0.8299999999999249, -0.033367669310670506 
0.8399999999999238, -0.03189899141106814 
0.8499999999999227, -0.030618841248829055 
0.8599999999999216, -0.02955154222209771 
0.8699999999999205, -0.028682020147715915 
0.8799999999999194, -0.027976263024089794 
0.8899999999999183, -0.02739619002927777 
0.8999999999999172, -0.026907255853794824 
0.9099999999999161, -0.026481002286509008 
0.919999999999915, -0.026094878310470075 
0.9299999999999139, -0.025730749921471514 
0.9399999999999128, -0.025372740858260478 
0.9499999999999117, -0.025004537298848172 
0.9599999999999106, -0.024605995037034305 
0.9699999999999095, -0.024148877594947403 
0.9799999999999084, -0.023592201577558657 
0.9899999999999073, -0.022879688157909594 
0.9999999999999062, -0.021945468508762053 
1.0099999999999052, -0.02073629100592001 
1.019999999999904, -0.01924980318765666 
1.029999999999903, -0.01756486700662414 
1.039999999999902, -0.01582770546515861 
1.0499999999999008, -0.014192484658124177 
1.0599999999998997, -0.012763073289479926 
1.0699999999998986, -0.01157545022844543 
1.0799999999998975, -0.010615156522836344 
1.0899999999998964, -0.009843611133854006 
1.0999999999998953, -0.00921718151076658 
1.1099999999998942, -0.008696629514071514 
1.119999999999893, -0.008250076116064304 
1.129999999999892, -0.007852675859604467 
1.1399999999998909, -0.007484866104043554 
1.1499999999998898, -0.007129974117339293 
1.1599999999998887, -0.006771306554949542 
1.1699999999998876, -0.006388477482948604 
1.1799999999998865, -0.0059526718984768984 
1.1899999999998854, -0.005421184605712604 
1.1999999999998843, -0.004733785862970802 
1.2099999999998832, -0.0038177584116440904 
1.219999999999882, -0.0026114942612406565 
1.229999999999881, -0.0011073969006226156 
1.2399999999998799, 0.00046372930577444967 
1.2499999999998788, 0.0018069407078685402 
1.2599999999998777, 0.0030437695391768247 
1.2699999999998766, 0.0040643693502106 
1.2799999999998755, 0.0048325143480132445 
1.2899999999998744, 0.0053652558973985385 
1.2999999999998733, 0.005704107634013415 
1.3099999999998722, 0.005894939067278102 
1.319999999999871, 0.00597843611345187 
1.32999999999987, 0.005987366622678029 
1.3399999999998689, 0.005947160258379344 
1.3499999999998678, 0.005877860317934745 
1.3599999999998666, 0.00579667533539105 
1.3699999999998655, 0.005721033785854041 
1.3799999999998644, 0.005672393395756089 
1.3899999999998633, 0.00568105077974776 
1.3999999999998622, 0.005791408508552259 
1.4099999999998611, 0.006064728318617167 
1.41999999999986, 0.006572117701631351 
1.429999999999859, 0.007368517991781615 
1.4399999999998578, 0.008449929891047784 
1.4499999999998567, 0.009723723392478885 
1.4599999999998556, 0.011030960053984339 
1.4699999999998545, 0.012214308820562566 
1.4799999999998534, 0.013176072885865345 
1.4899999999998523, 0.01388944672045781 
1.4999999999998512, 0.01437603492095145 
1.5099999999998501, 0.01467827656231276 
1.519999999999849, 0.01484122685962902 
1.529999999999848, 0.01490429880545038 
1.5399999999998468, 0.01489914700170048 
1.5499999999998457, 0.014850484858178286 
1.5599999999998446, 0.014778123203631857 
1.5699999999998435, 0.014699576139553841 
1.5799999999998424, 0.014633166396661823 
1.5899999999998413, 0.014601821953331432 
1.5999999999998402, 0.014637605701591427 
1.6099999999998391, 0.014786000008683266 
1.619999999999838, 0.015106390057332632 
1.629999999999837, 0.015661565760640917 
1.6399999999998358, 0.016489585243128595 
1.6499999999998347, 0.017565581172416092 
1.6599999999998336, 0.018784731584911445 
1.6699999999998325, 0.019994796540188348 
1.6799999999998314, 0.021059823680212635 
1.6899999999998303, 0.021904386188625502 
1.6999999999998292, 0.022515435813423253 
1.709999999999828, 0.022919258157566035 
1.719999999999827, 0.023157551372051825 
1.729999999999826, 0.023272627981898417 
1.7399999999998248, 0.023301050227805795 
1.7499999999998237, 0.02327225106950042 
1.7599999999998226, 0.02320953230324146 
1.7699999999998215, 0.02313210200323989 
1.7799999999998204, 0.023057645784242083 
1.7899999999998193, 0.023005358001898995 
1.7999999999998182, 0.022999476118896283 
1.809999999999817, 0.023073015856563548 
1.819999999999816, 0.023270176670584987 
1.8299999999998149, 0.023643495502443625 
1.8399999999998138, 0.024239773562790147 
1.8499999999998127, 0.025072617067385755 
1.8599999999998116, 0.02609447613427619 
1.8699999999998105, 0.027195640288399013 
1.8799999999998094, 0.02824292665800097 
1.8899999999998083, 0.02913155594994458 
1.8999999999998072, 0.029812183272882143 
1.909999999999806, 0.030284973440842262 
1.919999999999805, 0.0305787511789589 
1.9299999999998039, 0.03073235762088793 
1.9399999999998028, 0.030783781220052025 
1.9499999999998017, 0.030765672284285776 
1.9599999999998006, 0.0307045455432316 
1.9699999999997995, 0.03062180982338645 
1.9799999999997984, 0.030535682986794998 
1.9899999999997973, 0.03046359921486817 
1.9999999999997962, 0.03042496193962734 
2.0099999999998173, 0.030444054558184386 
2.0199999999998384, 0.030552415951580168 
2.0299999999998595, 0.03078876835049737 
2.0399999999998806, 0.031192942735507802 
2.0499999999999017, 0.031790370859675586 
2.059999999999923, 0.03256984023156973 
2.069999999999944, 0.03346914769664653 
2.079999999999965, 0.034386819074861345 
2.089999999999986, 0.035218563429845605 
2.100000000000007, 0.03589277484045478 
2.1100000000000283, 0.03638284466382926 
2.1200000000000494, 0.03669785198877218 
2.1300000000000705, 0.03686612874503586 
2.1400000000000916, 0.03692207068900285 
2.1500000000001127, 0.03689866897570511 
2.160000000000134, 0.03682439645633662 
2.170000000000155, 0.03672266878932283 
2.180000000000176, 0.03661272708734924 
2.190000000000197, 0.03651131541118503 
2.2000000000002182, 0.03643479330681686 
2.2100000000002393, 0.036401401121857795 
2.2200000000002604, 0.036433247089054634 
2.2300000000002815, 0.036557068882072795 
2.2400000000003026, 0.03680193903762179 
2.2500000000003237, 0.03719156164304453 
2.260000000000345, 0.03773066605870567 
2.270000000000366, 0.0383910008873328 
2.280000000000387, 0.03910873046397702 
2.290000000000408, 0.039801119509627295 
2.3000000000004293, 0.0403943739936853 
2.3100000000004504, 0.04084423289095946 
2.3200000000004715, 0.04113947065956212 
2.3300000000004926, 0.04129312408673445 
2.3400000000005137, 0.041330967275138686 
2.3500000000005348, 0.041282717677922874 
2.360000000000556, 0.04117687566341792 
2.370000000000577, 0.041038296180813644 
2.380000000000598, 0.04088757384241824 
2.390000000000619, 0.04074165125815311 
2.4000000000006403, 0.040615214195385434 
2.4100000000006614, 0.040522461953044195 
2.4200000000006825, 0.04047881224781702 
2.4300000000007036, 0.04050195133560534 
2.4400000000007247, 0.04061129154013761 
2.450000000000746, 0.04082453519346871 
2.460000000000767, 0.041150448268152964 
2.470000000000788, 0.041579302720577256 
2.480000000000809, 0.04207647996765572 
2.49000000000083, 0.042586278264493356 
2.5000000000008513, 0.04304713230538545 
2.5100000000008724, 0.043409893897582125 
2.5200000000008935, 0.043648561938241626 
2.5300000000009146, 0.043760261415683864 
2.5400000000009357, 0.043758785787630525 
2.550000000000957, 0.043667102738721326 
2.560000000000978, 0.04351144228449288 
2.570000000000999, 0.043317298371736174 
2.58000000000102, 0.04310704956590967 
2.5900000000010412, 0.04289901688227145 
2.6000000000010624, 0.042707780579209535 
2.6100000000010835, 0.04254537881200178 
2.6200000000011046, 0.04242284529749648 
2.6300000000011257, 0.04235149629392152 
2.6400000000011468, 0.04234334077684542 
2.650000000001168, 0.04240989597305767 
2.660000000001189, 0.04255876224356013 
2.67000000000121, 0.04278810200244648 
2.680000000001231, 0.04308105870829433 
2.6900000000012523, 0.04340411299470635 
2.7000000000012734, 0.04371264695399543 
2.7100000000012945, 0.04396233988730385 
2.7200000000013156, 0.04412039493611989 
2.7300000000013367, 0.044171191578940214 
2.740000000001358, 0.04411571551474664 
2.750000000001379, 0.04396755962916403 
2.7600000000014, 0.04374817218663437 
2.770000000001421, 0.043482439552589916 
2.780000000001442, 0.043194861896937185 
2.7900000000014633, 0.04290669331492768 
2.8000000000014844, 0.04263453722814017 
2.8100000000015055, 0.04239050309404445 
2.8200000000015266, 0.04218345308426957 
2.8300000000015477, 0.04202056674201526 
2.840000000001569, 0.0419084914226925 
2.85000000000159, 0.041853502278095304 
2.860000000001611, 0.04186024103997522 
2.870000000001632, 0.04192889699984718 
2.8800000000016532, 0.04205144945141045 
2.8900000000016743, 0.042208781447528765 
2.9000000000016954, 0.04237115108538004 
2.9100000000017165, 0.04250326191921276 
2.9200000000017377, 0.04257220794794455 
2.9300000000017588, 0.0425545708456387 
2.94000000000178, 0.042440016487812676 
2.950000000001801, 0.042231399932189016 
2.960000000001822, 0.041942775748438535 
2.970000000001843, 0.04159625395977273 
2.9800000000018643, 0.04121793380862294 
2.9900000000018854, 0.040833390901031885 
3.0000000000019065, 0.04046390615933358 
3.0100000000019276, 0.04012462141256734 
3.0200000000019487, 0.039824852758383995 
3.03000000000197, 0.039569769919848036 
3.040000000001991, 0.0393623095044539 
3.050000000002012, 0.03920445088751386 
3.060000000002033, 0.03909738491977464 
3.070000000002054, 0.03904041899771439 
3.0800000000020753, 0.039028801632355135 
3.0900000000020964, 0.039051208624190495 
3.1000000000021175, 0.03908828522177344 
3.1100000000021386, 0.03911373469464529 
3.1200000000021597, 0.03909835813637579 
3.130000000002181, 0.03901569394542517 
3.140000000002202, 0.038847074608842055 
3.150000000002223, 0.0385847659751213 
3.160000000002244, 0.0382331723018816 
3.1700000000022652, 0.03780836944301019 
3.1800000000022863, 0.03733564922601069 
3.1900000000023074, 0.03684479020440732 
3.2000000000023285, 0.036364070533380824 
3.2100000000023496, 0.03591532010107694 
3.2200000000023707, 0.035511905286830875 
3.230000000002392, 0.03515971113695237 
3.240000000002413, 0.03485969353184109 
3.250000000002434, 0.03461039344492732 
3.260000000002455, 0.03440945525549101 
3.2700000000024763, 0.034253858508184895 
3.2800000000024974, 0.03413896667290439 
3.2900000000025185, 0.03405677376060178 
3.3000000000025396, 0.03399407947443989 
3.3100000000025607, 0.03393164863433022 
3.3200000000025818, 0.03384530238812306 
3.330000000002603, 0.03370908236173953 
3.340000000002624, 0.03349959239853552 
3.350000000002645, 0.03320027730344259 
3.360000000002666, 0.032804922819837955 
3.3700000000026873, 0.03232009123328185 
3.3800000000027084, 0.03176573734134332 
3.3900000000027295, 0.031172612818836386 
3.4000000000027506, 0.03057593623617209 
3.4100000000027717, 0.030007337826234964 
3.420000000002793, 0.029488802895390392 
3.430000000002814, 0.029031050267108838 
3.440000000002835, 0.028635778242809894 
3.450000000002856, 0.028299410584598096 
3.460000000002877, 0.02801626708809619 
3.4700000000028983, 0.027780257259288045 
3.4800000000029194, 0.027585078790807183 
3.4900000000029405, 0.027423274825008365 
3.5000000000029616, 0.027284658956950043 
3.5100000000029827, 0.027154794178979952 
3.520000000003004, 0.027014357979274577 
3.530000000003025, 0.02684007090891058 
3.540000000003046, 0.026607292291529777 
3.550000000003067, 0.026293759668371573 
3.5600000000030882, 0.025883803009947703 
3.5700000000031094, 0.02537259466971974 
3.5800000000031305, 0.024769758593313766 
3.5900000000031516, 0.024100589891148695 
3.6000000000031727, 0.023402556890116652 
3.6100000000031938, 0.02271669528697198 
3.620000000003215, 0.022077361973504628 
3.630000000003236, 0.021505576941738828 
3.640000000003257, 0.021008483489709233 
3.650000000003278, 0.020583248387336665 
3.6600000000032993, 0.020222008599648723 
3.6700000000033204, 0.019915517538350323 
3.6800000000033415, 0.019654830702459644 
3.6900000000033626, 0.019431338982073002 
3.7000000000033837, 0.019235715732764096 
3.710000000003405, 0.019056359678317706 
3.720000000003426, 0.018877971307934442 
3.730000000003447, 0.018680958716064688 
3.740000000003468, 0.01844222356110973 
3.750000000003489, 0.018137465316281066 
3.7600000000035103, 0.01774474336637198 
3.7700000000035314, 0.01724896359980184 
3.7800000000035525, 0.016646931630287472 
3.7900000000035736, 0.01595184868341443 
3.8000000000035947, 0.015194603775140661 
3.810000000003616, 0.0144188816054936 
3.820000000003637, 0.013670229149714871 
3.830000000003658, 0.01298415764215149 
3.840000000003679, 0.012379630604186795 
3.8500000000037002, 0.011860006027410167 
3.8600000000037213, 0.01141848799330503 
3.8700000000037424, 0.011043926311771148 
3.8800000000037635, 0.010724632459206991 
3.8900000000037847, 0.010449893505884726 
3.9000000000038058, 0.010209777463300308 
3.910000000003827, 0.009993931549731837 
3.920000000003848, 0.009789980295446274 
3.930000000003869, 0.009582119456986511 
3.94000000000389, 0.009350527110943075 
3.9500000000039113, 0.009072089111242033 
3.9600000000039324, 0.008722615270087414 
3.9700000000039535, 0.008280433948576395 
3.9800000000039746, 0.00773118584423403 
3.9900000000039957, 0.007073417648044046 
4.000000000004016, 0.0063234610675788495 
4.010000000003993, 0.005516355377196711 
4.02000000000397, 0.0046996254356857755 
4.030000000003946, 0.003920783326787086 
4.040000000003923, 0.003214808061319655 
4.0500000000039, 0.0025983332446784997 
4.0600000000038765, 0.002071863361706506 
4.070000000003853, 0.0016261655738201135 
4.08000000000383, 0.0012483886747007198 
4.090000000003807, 0.0009257875487077162 
4.100000000003783, 0.0006470177128787989 
4.11000000000376, 0.00040175166759270057 
4.120000000003737, 0.00017936437689043843 
4.130000000003713, 7.146228851071895e-7 
4.14000000000369, -4.2388700039824084e-7 
4.150000000003667, -8.615933531370011e-7 
4.1600000000036434, -0.0000010957967678325351 
4.17000000000362, -3.6223425158854755e-7 
4.180000000003597, -0.00002639232861020173 
4.1900000000035735, -0.00015520569092611155 
4.20000000000355, -0.00039134450314594755 
4.210000000003527, -0.0007169113766591357 
4.220000000003504, -0.0010954982332277124 
4.23000000000348, -0.0014790516727895896 
4.240000000003457, -0.0018206714229782712 
4.250000000003434, -0.002086789546260923 
4.26000000000341, -0.002262284323755478 
4.270000000003387, -0.002347737975503424 
4.280000000003364, -0.002352917176479958 
4.2900000000033405, -0.002290793789094467 
4.300000000003317, -0.0021740214286774195 
4.310000000003294, -0.0020137960367701416 
4.320000000003271, -0.0018203333897307797 
4.330000000003247, -0.0016042328670699206 
4.340000000003224, -0.0013781387000966494 
4.350000000003201, -0.0011581243418425351 
4.360000000003177, -0.0009641997143874737 
4.370000000003154, -0.0008194681257987855 
4.380000000003131, -0.0007477734671685032 
4.390000000003107, -0.0007699522113236042 
4.400000000003084, -0.0008988947074295171 
4.410000000003061, -0.0011339458149313998 
4.4200000000030375, -0.0014563990032824049 
4.430000000003014, -0.0018294295786419085 
4.440000000002991, -0.0022052586074565827 
4.450000000002968, -0.0025379049234335012 
4.460000000002944, -0.0027949439428292177 
4.470000000002921, -0.0029621415265673858 
4.480000000002898, -0.0030404881627121316 
4.490000000002874, -0.003039741843168383 
4.500000000002851, -0.0029726335113106623 
4.510000000002828, -0.002851509601002421 
4.520000000002804, -0.002687295463943874 
4.530000000002781, -0.002490025575114887 
4.540000000002758, -0.002270230590942425 
4.5500000000027345, -0.0020405987693132566 
4.560000000002711, -0.0018173296535517213 
4.570000000002688, -0.0016205718892673966 
4.580000000002665, -0.0014734804200753778 
4.590000000002641, -0.0013997622609193774 
4.600000000002618, -0.0014198615153806948 
4.610000000002595, -0.0015460236192893645 
4.620000000002571, -0.0017768123439768472 
4.630000000002548, -0.002092869575459359 
4.640000000002525, -0.0024572038080137664 
4.6500000000025015, -0.0028225731696430835 
4.660000000002478, -0.0031440820397144803 
4.670000000002455, -0.0033904629966506434 
4.6800000000024315, -0.0035482609542822887 
4.690000000002408, -0.0036187174268695046 
4.700000000002385, -0.003611434370530411 
4.710000000002362, -0.0035387876796468347 
4.720000000002338, -0.0034127347402144867 
4.730000000002315, -0.0032438716619904093 
4.740000000002292, -0.003042008405943208 
4.750000000002268, -0.0028175752948806448 
4.760000000002245, -0.0025832834972283475 
4.770000000002222, -0.0023554466555369595 
4.7800000000021985, -0.002154344930966438 
