t, s[1].omega / s[0].omega 
0, -0.5099977540984355 
0.009999999999999995, -0.5097874012157384 
0.019999999999999934, -0.5095990392295805 
0.029999999999999874, -0.5094166308420875 
0.04000000000000012, -0.5092203386496142 
0.050000000000000405, -0.5089929099270141 
0.06000000000000069, -0.5087235639739864 
0.07000000000000098, -0.5084085891479294 
0.08000000000000126, -0.5080498626022938 
0.09000000000000155, -0.5076531304668643 
0.10000000000000184, -0.5072273768491542 
0.11000000000000212, -0.5067859122226348 
0.12000000000000241, -0.5063494478412964 
0.130000000000002, -0.505951289419543 
0.1400000000000009, -0.5056443700944255 
0.1499999999999998, -0.5055082379558986 
0.1599999999999987, -0.5056498865440944 
0.1699999999999976, -0.5061844933949617 
0.1799999999999965, -0.5071755432274075 
0.1899999999999954, -0.5085307064559197 
0.1999999999999943, -0.5099234701760559 
0.2099999999999932, -0.5108925026813008 
0.2199999999999921, -0.5111481814463551 
0.229999999999991, -0.5107897014435407 
0.2399999999999899, -0.5101689094680373 
0.2499999999999888, -0.5095990622806981 
0.2599999999999877, -0.5092186311521999 
0.2699999999999866, -0.5090283120986462 
0.2799999999999855, -0.5089716680453753 
0.2899999999999844, -0.5089872094985972 
0.2999999999999833, -0.5090276930453123 
0.3099999999999822, -0.5090618965886037 
0.3199999999999811, -0.5090704631456362 
0.32999999999998, -0.5090411790105094 
0.3399999999999789, -0.5089654931672605 
0.3499999999999778, -0.5088367121212152 
0.35999999999997667, -0.5086499434102165 
0.36999999999997557, -0.5084036799023466 
0.37999999999997447, -0.5081024058842609 
0.38999999999997337, -0.5077587032697568 
0.39999999999997227, -0.5073927457230715 
0.40999999999997117, -0.5070279332417738 
0.41999999999997006, -0.5066838462327197 
0.42999999999996896, -0.5063698758192071 
0.43999999999996786, -0.5060828165425098 
0.44999999999996676, -0.5058094439011809 
0.45999999999996566, -0.5055323877073292 
0.46999999999996456, -0.505236185065988 
0.47999999999996346, -0.5049109985328345 
0.48999999999996235, -0.5045534397097166 
0.49999999999996125, -0.5041656543035294 
0.5099999999999602, -0.5037543143545085 
0.519999999999959, -0.5033307319735602 
0.529999999999958, -0.5029127520780727 
0.5399999999999568, -0.5025288060981554 
0.5499999999999557, -0.5022243908270907 
0.5599999999999546, -0.502070768268797 
0.5699999999999535, -0.5021739021545334 
0.5799999999999524, -0.5026769659216462 
0.5899999999999513, -0.503740886514379 
0.5999999999999502, -0.5054788261392307 
0.6099999999999491, -0.5078352422396276 
0.619999999999948, -0.5104763896925563 
0.6299999999999469, -0.5128578279600862 
0.6399999999999458, -0.5145355386300148 
0.6499999999999447, -0.5154446718058068 
0.6599999999999436, -0.5158361742622957 
0.6699999999999425, -0.5160068189239029 
0.6799999999999414, -0.5161340994030361 
0.6899999999999403, -0.516275615000672 
0.6999999999999392, -0.5164272273657866 
0.7099999999999381, -0.5165675442312467 
0.719999999999937, -0.5166772750829886 
0.7299999999999359, -0.5167435289006286 
0.7399999999999348, -0.516758324710701 
0.7499999999999337, -0.5167159748791932 
0.7599999999999326, -0.5166111088182916 
0.7699999999999315, -0.5164379574760722 
0.7799999999999304, -0.5161912130411718 
0.7899999999999293, -0.5158685565262771 
0.7999999999999282, -0.5154742733003537 
0.8099999999999271, -0.5150222055459088 
0.819999999999926, -0.5145355298193698 
0.8299999999999249, -0.5140419339545861 
0.8399999999999238, -0.5135657242444231 
0.8499999999999227, -0.513120825549214 
0.8599999999999216, -0.5127082043466066 
0.8699999999999205, -0.5123184562001377 
0.8799999999999194, -0.5119375250784689 
0.8899999999999183, -0.5115524776225365 
0.8999999999999172, -0.5111551524514655 
0.9099999999999161, -0.5107433528758001 
0.919999999999915, -0.5103206786389151 
0.9299999999999139, -0.5098964517473161 
0.9399999999999128, -0.509486839473097 
0.9499999999999117, -0.5091178566600949 
0.9599999999999106, -0.5088307309826628 
0.9699999999999095, -0.5086900004126369 
0.9799999999999084, -0.5087942027732495 
0.9899999999999073, -0.5092871801665504 
0.9999999999999062, -0.5103632500347963 
1.0099999999999052, -0.5122501903517503 
1.019999999999904, -0.5151432294737135 
1.029999999999903, -0.5190709660286604 
1.039999999999902, -0.5237408337524259 
1.0499999999999008, -0.5285267055836402 
1.0599999999998997, -0.5327348513349867 
1.0699999999998986, -0.5359710146922362 
1.0799999999998975, -0.5382473672419336 
1.0899999999998964, -0.5397955408276723 
1.0999999999998953, -0.5408560303325778 
1.1099999999998942, -0.5415952814251412 
1.119999999999893, -0.5421115289742672 
1.129999999999892, -0.5424612911389219 
1.1399999999998909, -0.5426785373202634 
1.1499999999998898, -0.5427843091325697 
1.1599999999998887, -0.5427907219370878 
1.1699999999998876, -0.5427024894055733 
1.1799999999998865, -0.5425177225400166 
1.1899999999998854, -0.542229107951163 
1.1999999999998843, -0.5418264510255533 
1.2099999999998832, -0.5413013769692993 
1.219999999999882, -0.5406539783554971 
1.229999999999881, -0.5398991073114661 
1.2399999999998799, -0.5390681859419555 
1.2499999999998788, -0.5382035911739851 
1.2599999999998777, -0.5373474522847079 
1.2699999999998766, -0.5365309411024629 
1.2799999999998755, -0.5357694379713966 
1.2899999999998744, -0.5350644814044881 
1.2999999999998733, -0.5344096689382034 
1.3099999999998722, -0.5337969454318772 
1.319999999999871, -0.5332211421914838 
1.32999999999987, -0.5326824778025518 
1.3399999999998689, -0.5321878751001923 
1.3499999999998678, -0.5317521876098568 
1.3599999999998666, -0.5314001527563638 
1.3699999999998655, -0.5311695352186636 
1.3799999999998644, -0.5311156675349542 
1.3899999999998633, -0.5313173511389404 
1.3999999999998622, -0.5318835756623472 
1.4099999999998611, -0.5329592613373406 
1.41999999999986, -0.5347254719213423 
1.429999999999859, -0.5373845877132317 
1.4399999999998578, -0.541115018878475 
1.4499999999998567, -0.5459813506112232 
1.4599999999998556, -0.5518136156287254 
1.4699999999998545, -0.5581343030960043 
1.4799999999998534, -0.5642523099811662 
1.4899999999998523, -0.5695331793575324 
1.4999999999998512, -0.573648621920708 
1.5099999999998501, -0.5766094240356016 
1.519999999999849, -0.5786219515750564 
1.529999999999848, -0.579933668416316 
1.5399999999998468, -0.5807522758754755 
1.5499999999998457, -0.5812265278102402 
1.5599999999998446, -0.5814537272217113 
1.5699999999998435, -0.5814923971110539 
1.5799999999998424, -0.5813723534678705 
1.5899999999998413, -0.5811008906909512 
1.5999999999998402, -0.5806659889675332 
1.6099999999998391, -0.5800383570229474 
1.619999999999838, -0.5791751248988345 
1.629999999999837, -0.5780290580291374 
1.6399999999998358, -0.5765664418167356 
1.6499999999998347, -0.5747912173375875 
1.6599999999998336, -0.5727630661180554 
1.6699999999998325, -0.5705931344392684 
1.6799999999998314, -0.5684142171712357 
1.6899999999998303, -0.5663430503550846 
1.6999999999998292, -0.5644568758839241 
1.709999999999828, -0.5627913781434041 
1.719999999999827, -0.5613521365123535 
1.729999999999826, -0.5601288474969814 
1.7399999999998248, -0.5591062455986762 
1.7499999999998237, -0.5582704677918319 
1.7599999999998226, -0.5576119246931228 
1.7699999999998215, -0.5571261631106308 
1.7799999999998204, -0.5568138571311966 
1.7899999999998193, -0.5566806128226891 
1.7999999999998182, -0.5567369309442738 
1.809999999999817, -0.5569984305356777 
1.819999999999816, -0.5574862049344411 
1.8299999999998149, -0.558226855633641 
1.8399999999998138, -0.5592512338987337 
1.8499999999998127, -0.5605902070477182 
1.8599999999998116, -0.5622651597527488 
1.8699999999998105, -0.5642714704232545 
1.8799999999998094, -0.5665568213870777 
1.8899999999998083, -0.5690041908733231 
1.8999999999998072, -0.5714372362392872 
1.909999999999806, -0.5736601325012185 
1.919999999999805, -0.5755175478293844 
1.9299999999998039, -0.5769369334463373 
1.9399999999998028, -0.5779280083208548 
1.9499999999998017, -0.5785504709995097 
1.9599999999998006, -0.5788777780774328 
1.9699999999997995, -0.5789737059448681 
1.9799999999997984, -0.5788824094259358 
1.9899999999997973, -0.5786259737795098 
1.9999999999997962, -0.5782039088430748 
2.0099999999998173, -0.5775912712357804 
2.0199999999998384, -0.5767338361074519 
2.0299999999998595, -0.575540262764041 
2.0399999999998806, -0.573874145359633 
2.0499999999999017, -0.5715554790609667 
2.059999999999923, -0.5683912104747021 
2.069999999999944, -0.5642563287560629 
2.079999999999965, -0.5592127232979857 
2.089999999999986, -0.5535818852993426 
2.100000000000007, -0.547872389008407 
2.1100000000000283, -0.5425863176489866 
2.1200000000000494, -0.5380529968409969 
2.1300000000000705, -0.5343891698203737 
2.1400000000000916, -0.5315558716281308 
2.1500000000001127, -0.5294368746244792 
2.160000000000134, -0.5278958663191091 
2.170000000000155, -0.5268063195893158 
2.180000000000176, -0.5260626614985212 
2.190000000000197, -0.5255818270659056 
2.2000000000002182, -0.5253009319220158 
2.2100000000002393, -0.5251739318158907 
2.2200000000002604, -0.5251684815714859 
2.2300000000002815, -0.5252634139869823 
2.2400000000003026, -0.5254469023049312 
2.2500000000003237, -0.5257151462980448 
2.260000000000345, -0.5260711514980316 
2.270000000000366, -0.5265228095462767 
2.280000000000387, -0.5270792050205017 
2.290000000000408, -0.5277443030709946 
2.3000000000004293, -0.5285084484252263 
2.3100000000004504, -0.5293405465385149 
2.3200000000004715, -0.5301861929038353 
2.3300000000004926, -0.5309763534945786 
2.3400000000005137, -0.5316451430264348 
2.3500000000005348, -0.5321474682101723 
2.360000000000556, -0.5324664167058168 
2.370000000000577, -0.5326082593926199 
2.380000000000598, -0.5325910146868215 
2.390000000000619, -0.5324335177740867 
2.4000000000006403, -0.5321480502202796 
2.4100000000006614, -0.5317360053798216 
2.4200000000006825, -0.5311846531953529 
2.4300000000007036, -0.5304629750082208 
2.4400000000007247, -0.5295146900344125 
2.450000000000746, -0.5282467830175942 
2.460000000000767, -0.5265132460009097 
2.470000000000788, -0.5241000149672039 
2.480000000000809, -0.5207339900025755 
2.49000000000083, -0.5161623805401788 
2.5000000000008513, -0.5103328831886882 
2.5100000000008724, -0.5035830775130316 
2.5200000000008935, -0.49661821800022865 
2.5300000000009146, -0.49020770341561937 
2.5400000000009357, -0.4848578431088284 
2.550000000000957, -0.48071629041359565 
2.560000000000978, -0.47767790339083493 
2.570000000000999, -0.47553156259148055 
2.58000000000102, -0.47405787855652914 
2.5900000000010412, -0.473071722517699 
2.6000000000010624, -0.4724317523168594 
2.6100000000010835, -0.47203594066357396 
2.6200000000011046, -0.47181331503170043 
2.6300000000011257, -0.471716121909875 
2.6400000000011468, -0.47171370456402456 
2.650000000001168, -0.47178822090504974 
2.660000000001189, -0.4719319285481764 
2.67000000000121, -0.4721455780139546 
2.680000000001231, -0.47243721688482704 
2.6900000000012523, -0.47282036702414343 
2.7000000000012734, -0.4733102903829952 
2.7100000000012945, -0.4739173467668335 
2.7200000000013156, -0.47463777667656465 
2.7300000000013367, -0.47544476822242443 
2.740000000001358, -0.4762853464494136 
2.750000000001379, -0.4770884107136094 
2.7600000000014, -0.47778320084093046 
2.770000000001421, -0.4783187902049478 
2.780000000001442, -0.4786733252042258 
2.7900000000014633, -0.47884986173613414 
2.8000000000014844, -0.4788647027785249 
2.8100000000015055, -0.4787357252083656 
2.8200000000015266, -0.47847417803798536 
2.8300000000015477, -0.4780795049402139 
2.840000000001569, -0.4775351155535401 
2.85000000000159, -0.47680293198619267 
2.860000000001611, -0.47581500692370027 
2.870000000001632, -0.4744617842389213 
2.8800000000016532, -0.4725806252945447 
2.8900000000016743, -0.469958443986085 
2.9000000000016954, -0.4663777035058484 
2.9100000000017165, -0.4617332000605939 
2.9200000000017377, -0.4561828962999466 
2.9300000000017588, -0.4501936530228606 
2.94000000000178, -0.4443769743588522 
2.950000000001801, -0.43922916848030014 
2.960000000001822, -0.4349890274792612 
2.970000000001843, -0.4316664550871655 
2.9800000000018643, -0.4291453256701992 
2.9900000000018854, -0.42727138140328763 
3.0000000000019065, -0.4259000296593808 
3.0100000000019276, -0.4249138791707776 
3.0200000000019487, -0.4242248043438271 
3.03000000000197, -0.42377023785350054 
3.040000000001991, -0.42350840161871944 
3.050000000002012, -0.42341430725492313 
3.060000000002033, -0.4234770338650381 
3.070000000002054, -0.42369825633315683 
3.0800000000020753, -0.4240917427521726 
3.0900000000020964, -0.42468325621906516 
3.1000000000021175, -0.4255097759726768 
3.1100000000021386, -0.4266160863392325 
3.1200000000021597, -0.4280457441618192 
3.130000000002181, -0.42982320362891 
3.140000000002202, -0.43192693002560895 
3.150000000002223, -0.4342626836316226 
3.160000000002244, -0.43665880300684046 
3.1700000000022652, -0.4389040870026145 
3.1800000000022863, -0.44081776016218743 
3.1900000000023074, -0.442305493995322 
3.2000000000023285, -0.443365398191866 
3.2100000000023496, -0.44405388680698643 
3.2200000000023707, -0.44444513006811726 
3.230000000002392, -0.44460485934768845 
3.240000000002413, -0.4445796420147496 
3.250000000002434, -0.44439484200262747 
3.260000000002455, -0.4440553859026438 
3.2700000000024763, -0.4435465018929544 
3.2800000000024974, -0.4428342131489643 
3.2900000000025185, -0.44186769914885027 
3.3000000000025396, -0.4405880141785006 
3.3100000000025607, -0.43894843177771375 
3.3200000000025818, -0.4369462042249029 
3.330000000002603, -0.4346511739721228 
3.340000000002624, -0.4322054641847447 
3.350000000002645, -0.4297831128304894 
3.360000000002666, -0.42753350591595607 
3.3700000000026873, -0.4255456795130758 
3.3800000000027084, -0.4238469188593664 
3.3900000000027295, -0.42242241345973114 
3.4000000000027506, -0.42123790076333806 
3.4100000000027717, -0.4202560273025872 
3.420000000002793, -0.4194453190299102 
3.430000000002814, -0.41878401707065 
3.440000000002835, -0.4182613409728132 
3.450000000002856, -0.41787803860411354 
3.460000000002877, -0.4176473558135381 
3.4700000000028983, -0.41759708627721037 
3.4800000000029194, -0.4177731067723376 
3.4900000000029405, -0.41824458557141436 
3.5000000000029616, -0.4191105445240348 
3.5100000000029827, -0.42050605152488074 
3.520000000003004, -0.4226029751888746 
3.530000000003025, -0.42559382895383224 
3.540000000003046, -0.4296392669257054 
3.550000000003067, -0.43476211912598883 
3.5600000000030882, -0.44071172596852437 
3.5700000000031094, -0.44691055508821564 
3.5800000000031305, -0.4526219869446481 
3.5900000000031516, -0.45728386619937095 
3.6000000000031727, -0.4607208861985269 
3.6100000000031938, -0.4630781251301129 
3.620000000003215, -0.4646238305900761 
3.630000000003236, -0.4656075196879761 
3.640000000003257, -0.46621208197594494 
3.650000000003278, -0.466557313838759 
3.6600000000032993, -0.4667169455357751 
3.6700000000033204, -0.4667336582590987 
3.6800000000033415, -0.4666291649404255 
3.6900000000033626, -0.466410519467739 
3.7000000000033837, -0.4660745957995033 
3.710000000003405, -0.4656126624819592 
3.720000000003426, -0.4650166283319841 
3.730000000003447, -0.4642872954014937 
3.740000000003468, -0.4634423735519852 
3.750000000003489, -0.4625194305026882 
3.7600000000035103, -0.4615697919350241 
3.7700000000035314, -0.460645046949735 
3.7800000000035525, -0.4597834657382241 
3.7900000000035736, -0.4590032642198403 
3.8000000000035947, -0.4583042261116722 
3.810000000003616, -0.45767449820592737 
3.820000000003637, -0.4570983147169535 
3.830000000003658, -0.45656185278837463 
3.840000000003679, -0.45605644802269535 
3.8500000000037002, -0.45557987317013937 
3.8600000000037213, -0.455136952258773 
3.8700000000037424, -0.4547406736888059 
3.8800000000037635, -0.45441464275186105 
3.8900000000037847, -0.45419748679630867 
3.9000000000038058, -0.4541496947646566 
3.910000000003827, -0.4543630217222076 
3.920000000003848, -0.45497127188003395 
3.930000000003869, -0.4561575137983206 
3.94000000000389, -0.4581444638719404 
3.9500000000039113, -0.4611421606127915 
3.9600000000039324, -0.4652240689600699 
3.9700000000039535, -0.4701516643786371 
3.9800000000039746, -0.47529601368918095 
3.9900000000039957, -0.47986062071980407 
4.000000000004016, -0.4833205591753272 
4.010000000003993, -0.485643713620514 
4.02000000000397, -0.48711391274633237 
4.030000000003946, -0.48804943852384064 
4.040000000003923, -0.4886700065161529 
4.0500000000039, -0.48909663830750266 
4.0600000000038765, -0.4893900860615534 
4.070000000003853, -0.4895810990795827 
4.08000000000383, -0.48968622703470716 
4.090000000003807, -0.48971449778341036 
4.100000000003783, -0.4896699001985626 
4.11000000000376, -0.48955244277383303 
4.120000000003737, -0.4893592348881694 
4.130000000003713, -0.489086462139874 
4.14000000000369, -0.4887327026189552 
4.150000000003667, -0.48830319457609733 
4.1600000000036434, -0.4878133184124411 
4.17000000000362, -0.4872886320829428 
4.180000000003597, -0.4867598681510651 
4.1900000000035735, -0.4862544549011062 
4.20000000000355, -0.4857887852327213 
4.210000000003527, -0.4853650590486673 
4.220000000003504, -0.48497362105321995 
4.23000000000348, -0.4845988241785787 
4.240000000003457, -0.48422526626959456 
4.250000000003434, -0.48384197786838756 
4.26000000000341, -0.4834439393269503 
4.270000000003387, -0.4830318665160111 
4.280000000003364, -0.48261173365685106 
4.2900000000033405, -0.48219521205459426 
4.300000000003317, -0.48180174219351224 
4.310000000003294, -0.48146269417853976 
4.320000000003271, -0.48122792362966865 
4.330000000003247, -0.4811745280657725 
4.340000000003224, -0.4814157970413313 
4.350000000003201, -0.482103576658242 
4.360000000003177, -0.48340802516314174 
4.370000000003154, -0.4854491330011891 
4.380000000003131, -0.4881678500125191 
4.390000000003107, -0.4912036514015619 
4.400000000003084, -0.49395671681118636 
4.410000000003061, -0.4959212356590215 
4.4200000000030375, -0.497002744748564 
4.430000000003014, -0.49746677089737606 
4.440000000002991, -0.49764626548198115 
4.450000000002968, -0.49775179473616615 
4.460000000002944, -0.4978620854149736 
4.470000000002921, -0.49798382326313123 
4.480000000002898, -0.4981001316404412 
4.490000000002874, -0.4981930323170145 
4.500000000002851, -0.4982496055586763 
4.510000000002828, -0.49826150730795166 
4.520000000002804, -0.49822287814407823 
4.530000000002781, -0.4981286452045698 
4.540000000002758, -0.4979739447947987 
4.5500000000027345, -0.49775498398010054 
4.560000000002711, -0.4974713600654595 
4.570000000002688, -0.4971291785102835 
4.580000000002665, -0.4967432726508621 
4.590000000002641, -0.49633630383050675 
4.600000000002618, -0.4959337017302631 
4.610000000002595, -0.49555610532883876 
4.620000000002571, -0.49521300920867145 
4.630000000002548, -0.4949008084664497 
4.640000000002525, -0.4946058772093059 
4.6500000000025015, -0.49431067695349107 
4.660000000002478, -0.49399974436479444 
4.670000000002455, -0.4936632250807314 
4.6800000000024315, -0.4932975824939108 
4.690000000002408, -0.49290469446792723 
4.700000000002385, -0.4924909301921326 
4.710000000002362, -0.4920673476518605 
4.720000000002338, -0.4916516225862049 
4.730000000002315, -0.4912720568525761 
4.740000000002292, -0.4909738546496256 
4.750000000002268, -0.4908272472688126 
4.760000000002245, -0.49093494993329123 
4.770000000002222, -0.49143121023866804 
4.7800000000021985, -0.4924555132990034 
4.790000000002175, -0.4940775982636737 
4.800000000002152, -0.49617438454795143 
4.810000000002129, -0.4983486073551228 
4.820000000002105, -0.5000603466444755 
4.830000000002082, -0.5009738004706413 
4.840000000002059, -0.5011728029642349 
4.850000000002035, -0.5010000546496949 
4.860000000002012, -0.5007639071557035 
4.870000000001989, -0.5006116432311509 
4.880000000001965, -0.5005648515986516 
4.890000000001942, -0.5005911884753862 
