t, s[1].omega / s[0].omega 
0, -0.5899977301679253 
0.009999999999999995, -0.5897735974322603 
0.019999999999999934, -0.5895501893106884 
0.029999999999999874, -0.5893150861962269 
0.04000000000000012, -0.5890538004729057 
0.050000000000000405, -0.5887552707647299 
0.06000000000000069, -0.5884149796689659 
0.07000000000000098, -0.5880353925371655 
0.08000000000000126, -0.587625153394877 
0.09000000000000155, -0.587198817146571 
0.10000000000000184, -0.5867783380749476 
0.11000000000000212, -0.5863969469693362 
0.12000000000000241, -0.5861057757611118 
0.130000000000002, -0.5859834326237131 
0.1400000000000009, -0.5861482123967926 
0.1499999999999998, -0.5867710085005713 
0.1599999999999987, -0.5880831359793192 
0.1699999999999976, -0.590365953534951 
0.1799999999999965, -0.593899539836755 
0.1899999999999954, -0.5988465689412169 
0.1999999999999943, -0.605083075386317 
0.2099999999999932, -0.6120796915797947 
0.2199999999999921, -0.6190025997946561 
0.229999999999991, -0.6250586937159736 
0.2399999999999899, -0.62982253371179 
0.2499999999999888, -0.6332828422033461 
0.2599999999999877, -0.6356655317499003 
0.2699999999999866, -0.6372476172687336 
0.2799999999999855, -0.6382630835239629 
0.2899999999999844, -0.6388813183259427 
0.2999999999999833, -0.6392153742522024 
0.3099999999999822, -0.6393357108398712 
0.3199999999999811, -0.6392811001874971 
0.32999999999998, -0.6390652946982931 
0.3399999999999789, -0.6386801506684533 
0.3499999999999778, -0.6380966200725229 
0.35999999999997667, -0.6372659744778133 
0.36999999999997557, -0.6361252718207878 
0.37999999999997447, -0.6346123465528788 
0.38999999999997337, -0.632692948080436 
0.39999999999997227, -0.630392341726873 
0.40999999999997117, -0.6278108824920909 
0.41999999999997006, -0.6251055241986124 
0.42999999999996896, -0.6224441650309384 
0.43999999999996786, -0.6199618219252704 
0.44999999999996676, -0.6177411553804951 
0.45999999999996566, -0.6158171436310387 
0.46999999999996456, -0.6141927487197866 
0.47999999999996346, -0.6128542051680688 
0.48999999999996235, -0.6117813180406706 
0.49999999999996125, -0.6109528307361335 
0.5099999999999602, -0.6103485624169647 
0.519999999999959, -0.6099499767310281 
0.529999999999958, -0.6097402894152576 
0.5399999999999568, -0.6097046774979625 
0.5499999999999557, -0.609830757556062 
0.5599999999999546, -0.6101092464769733 
0.5699999999999535, -0.6105345454001742 
0.5799999999999524, -0.61110481224035 
0.5899999999999513, -0.6118208475144651 
0.5999999999999502, -0.6126828815899008 
0.6099999999999491, -0.6136844710842889 
0.619999999999948, -0.6148038327855169 
0.6299999999999469, -0.6159955143665408 
0.6399999999999458, -0.6171883185066392 
0.6499999999999447, -0.6182953374874671 
0.6599999999999436, -0.6192352711263681 
0.6699999999999425, -0.6199542805364119 
0.6799999999999414, -0.6204353626580452 
0.6899999999999403, -0.620691823904172 
0.6999999999999392, -0.6207523547445069 
0.7099999999999381, -0.6206470680079235 
0.719999999999937, -0.6203988120590727 
0.7299999999999359, -0.6200192773140953 
0.7399999999999348, -0.6195077256625929 
0.7499999999999337, -0.6188504793292907 
0.7599999999999326, -0.6180200168250136 
0.7699999999999315, -0.61697284065241 
0.7799999999999304, -0.6156449653328784 
0.7899999999999293, -0.6139432878834576 
0.7999999999999282, -0.6117328140272319 
0.8099999999999271, -0.6088313237663722 
0.819999999999926, -0.6050510510993403 
0.8299999999999249, -0.6003386154611794 
0.8399999999999238, -0.5949662457453757 
0.8499999999999227, -0.5895552266480109 
0.8599999999999216, -0.5847994664688574 
0.8699999999999205, -0.5811252180353803 
0.8799999999999194, -0.5785887050024247 
0.8899999999999183, -0.5770006541958753 
0.8999999999999172, -0.5760936479074503 
0.9099999999999161, -0.5756253182105804 
0.919999999999915, -0.5754139605387067 
0.9299999999999139, -0.5753370856983105 
0.9399999999999128, -0.5753172376672314 
0.9499999999999117, -0.5753069741004395 
0.9599999999999106, -0.5752770325998899 
0.9699999999999095, -0.5752082730621153 
0.9799999999999084, -0.5750869742628676 
0.9899999999999073, -0.5749030139947268 
0.9999999999999062, -0.5746505145422189 
1.0099999999999052, -0.574330153792431 
1.019999999999904, -0.5739514331114589 
1.029999999999903, -0.5735325102087703 
1.039999999999902, -0.5730960716082774 
1.0499999999999008, -0.5726623603532238 
1.0599999999998997, -0.5722428802530692 
1.0699999999998986, -0.571838144657203 
1.0799999999998975, -0.5714402543726167 
1.0899999999998964, -0.5710383095556504 
1.0999999999998953, -0.5706236493202279 
1.1099999999998942, -0.5701929774029721 
1.119999999999893, -0.5697493575028691 
1.129999999999892, -0.5693023513076614 
1.1399999999998909, -0.5688687303744986 
1.1499999999998898, -0.5684747324570996 
1.1599999999998887, -0.5681603792649487 
1.1699999999998876, -0.567986117614799 
1.1799999999998865, -0.5680417953506434 
1.1899999999998854, -0.5684573103886179 
1.1999999999998843, -0.5694124797367401 
1.2099999999998832, -0.5711396967665229 
1.219999999999882, -0.5739058344086317 
1.229999999999881, -0.5779516698872046 
1.2399999999998799, -0.5833703332695915 
1.2499999999998788, -0.5899486055133956 
1.2599999999998777, -0.5970852685940036 
1.2699999999998766, -0.6039390382710389 
1.2799999999998755, -0.6097824001348411 
1.2899999999998744, -0.6142819956870686 
1.2999999999998733, -0.6174934334702025 
1.3099999999998722, -0.6196707855512124 
1.319999999999871, -0.621093869591453 
1.32999999999987, -0.6219891783840837 
1.3399999999998689, -0.622516395637985 
1.3499999999998678, -0.6227795779544693 
1.3599999999998666, -0.6228414887676439 
1.3699999999998655, -0.6227342627486487 
1.3799999999998644, -0.6224656205068719 
1.3899999999998633, -0.6220216543013362 
1.3999999999998622, -0.621367956368657 
1.4099999999998611, -0.6204519953235229 
1.41999999999986, -0.6192112985333154 
1.429999999999859, -0.6175923668145182 
1.4399999999998578, -0.6155802312998019 
1.4499999999998567, -0.6132263068761522 
1.4599999999998556, -0.6106526970359871 
1.4699999999998545, -0.6080220468297858 
1.4799999999998534, -0.6054896754136454 
1.4899999999998523, -0.603167791959262 
1.4999999999998512, -0.601116335099738 
1.5099999999998501, -0.599353645343305 
1.519999999999849, -0.5978731975373657 
1.529999999999848, -0.5966574343442101 
1.5399999999998468, -0.5956861823779496 
1.5499999999998457, -0.5949406036305911 
1.5599999999998446, -0.5944044839893325 
1.5699999999998435, -0.5940643408073079 
1.5799999999998424, -0.5939092668629863 
1.5899999999998413, -0.5939309574874524 
1.5999999999998402, -0.5941240387989453 
1.6099999999998391, -0.5944865806487203 
1.619999999999838, -0.5950204656442685 
1.629999999999837, -0.5957310199468775 
1.6399999999998358, -0.5966249690871195 
1.6499999999998347, -0.5977055276182155 
1.6599999999998336, -0.5989637932272852 
1.6699999999998325, -0.6003674549471132 
1.6799999999998314, -0.6018515436394465 
1.6899999999998303, -0.6033195523289303 
1.6999999999998292, -0.6046612760092835 
1.709999999999828, -0.6057825991670451 
1.719999999999827, -0.6066304115849845 
1.729999999999826, -0.6071978924554484 
1.7399999999998248, -0.6075110285091017 
1.7499999999998237, -0.6076087413249067 
1.7599999999998226, -0.6075272062393975 
1.7699999999998215, -0.6072912524183339 
1.7799999999998204, -0.6069107253931059 
1.7899999999998193, -0.6063786749528558 
1.7999999999998182, -0.6056689404064988 
1.809999999999817, -0.6047314208314748 
1.819999999999816, -0.6034836174865301 
1.8299999999998149, -0.6017975509058384 
1.8399999999998138, -0.5994842217633833 
1.8499999999998127, -0.5962888084031298 
1.8599999999998116, -0.5919332976193212 
1.8699999999998105, -0.5862578864035599 
1.8799999999998094, -0.5794428751096219 
1.8899999999998083, -0.5721198642983141 
1.8999999999998072, -0.5651623717618887 
1.909999999999806, -0.559280075990166 
1.919999999999805, -0.5547748166465125 
1.9299999999998039, -0.5515849107609894 
1.9399999999998028, -0.5494621078822023 
1.9499999999998017, -0.5481207087729025 
1.9599999999998006, -0.5473131723477345 
1.9699999999997995, -0.5468518281227398 
1.9799999999997984, -0.5466047232569705 
1.9899999999997973, -0.5464832380339246 
1.9999999999997962, -0.5464294730770418 
2.0099999999998173, -0.5464061243047019 
2.0199999999998384, -0.5463893225826632 
2.0299999999998595, -0.5463641844246422 
2.0399999999998806, -0.5463226385928049 
2.0499999999999017, -0.5462629207317877 
2.059999999999923, -0.5461897207417922 
2.069999999999944, -0.5461134908714531 
2.079999999999965, -0.5460475105772493 
2.089999999999986, -0.5460025377873083 
2.100000000000007, -0.5459808565208377 
2.1100000000000283, -0.5459728091781839 
2.1200000000000494, -0.5459581998996007 
2.1300000000000705, -0.5459123379412544 
2.1400000000000916, -0.5458136131780251 
2.1500000000001127, -0.5456487017654077 
2.160000000000134, -0.5454135507654392 
2.170000000000155, -0.5451112025976008 
2.180000000000176, -0.5447488693406152 
2.190000000000197, -0.5443361766211746 
2.2000000000002182, -0.54388546411912 
2.2100000000002393, -0.543414443520805 
2.2200000000002604, -0.5429514453296602 
2.2300000000002815, -0.5425434574956218 
2.2400000000003026, -0.5422663623834609 
2.2500000000003237, -0.5422338580124015 
2.260000000000345, -0.5425946624522033 
2.270000000000366, -0.5434971264966996 
2.280000000000387, -0.5449986596457187 
2.290000000000408, -0.5469396582605027 
2.3000000000004293, -0.5489047871552963 
2.3100000000004504, -0.5504207940027712 
2.3200000000004715, -0.551281155537867 
2.3300000000004926, -0.5516367420469875 
2.3400000000005137, -0.55177620195512 
2.3500000000005348, -0.5519005311276451 
2.360000000000556, -0.5520748582788886 
2.370000000000577, -0.5522846764304399 
2.380000000000598, -0.552493366561633 
2.390000000000619, -0.5526697584802841 
2.4000000000006403, -0.5527942172329536 
2.4100000000006614, -0.5528559398057592 
2.4200000000006825, -0.5528484855393231 
2.4300000000007036, -0.5527661438588258 
2.4400000000007247, -0.5526018416292244 
2.450000000000746, -0.5523468597477619 
2.460000000000767, -0.5519926774058017 
2.470000000000788, -0.5515350256577886 
2.480000000000809, -0.5509791439054941 
2.49000000000083, -0.5503435207640143 
2.5000000000008513, -0.5496587434730251 
2.5100000000008724, -0.5489603740757787 
2.5200000000008935, -0.5482790179917856 
2.5300000000009146, -0.5476329522789348 
2.5400000000009357, -0.547026670756906 
2.550000000000957, -0.5464547660785647 
2.560000000000978, -0.5459080757254949 
2.570000000000999, -0.5453790708330171 
2.58000000000102, -0.5448651089643903 
2.5900000000010412, -0.5443698960770161 
2.6000000000010624, -0.5439043518989249 
2.6100000000010835, -0.5434880354653604 
2.6200000000011046, -0.5431518861293144 
2.6300000000011257, -0.5429426879024084 
2.6400000000011468, -0.5429294385947612 
2.650000000001168, -0.543211493013165 
2.660000000001189, -0.5439275273009812 
2.67000000000121, -0.5452623062748294 
2.680000000001231, -0.5474438498764891 
2.6900000000012523, -0.5507163159065585 
2.7000000000012734, -0.5552674153741097 
2.7100000000012945, -0.5610992295298745 
2.7200000000013156, -0.5678853274356821 
2.7300000000013367, -0.5749448400452065 
2.740000000001358, -0.5814562042777973 
2.750000000001379, -0.5868111536266958 
2.7600000000014, -0.5908153894711319 
2.770000000001421, -0.5936100223338749 
2.780000000001442, -0.595471897421488 
2.7900000000014633, -0.5966685948614853 
2.8000000000014844, -0.5974043485188875 
2.8100000000015055, -0.5978181410367064 
2.8200000000015266, -0.5979978209243988 
2.8300000000015477, -0.5979940191192499 
2.840000000001569, -0.5978296412527333 
2.85000000000159, -0.5975051218848741 
2.860000000001611, -0.5970009094371378 
2.870000000001632, -0.5962794296171903 
2.8800000000016532, -0.595289982358358 
2.8900000000016743, -0.5939810508250495 
2.9000000000016954, -0.592322634439961 
2.9100000000017165, -0.5903331840904745 
2.9200000000017377, -0.5880946721702552 
2.9300000000017588, -0.5857394031951471 
2.94000000000178, -0.5834118533400873 
2.950000000001801, -0.5812294982527637 
2.960000000001822, -0.5792639278084786 
2.970000000001843, -0.57754412958601 
2.9800000000018643, -0.5760708115976033 
2.9900000000018854, -0.5748310411054645 
3.0000000000019065, -0.573808402933256 
3.0100000000019276, -0.572988404387726 
3.0200000000019487, -0.5723605963823302 
3.03000000000197, -0.5719189581948825 
3.040000000001991, -0.571661631034855 
3.050000000002012, -0.5715906229310855 
3.060000000002033, -0.5717117737052244 
3.070000000002054, -0.5720350220076413 
3.0800000000020753, -0.5725747708440143 
3.0900000000020964, -0.5733498143248614 
3.1000000000021175, -0.5743818000603227 
3.1100000000021386, -0.5756906121494169 
3.1200000000021597, -0.5772847788596546 
3.130000000002181, -0.5791461163831044 
3.140000000002202, -0.5812118962477348 
3.150000000002223, -0.58336488374222 
3.160000000002244, -0.5854458053273371 
3.1700000000022652, -0.5872931516812162 
3.1800000000022863, -0.5887918294287735 
3.1900000000023074, -0.5898995933805345 
3.2000000000023285, -0.5906380682038497 
3.2100000000023496, -0.5910629895251416 
3.2200000000023707, -0.5912355524912346 
3.230000000002392, -0.5912051960756846 
3.240000000002413, -0.5910025117756803 
3.250000000002434, -0.5906370531647381 
3.260000000002455, -0.5900956396608821 
3.2700000000024763, -0.5893383887558464 
3.2800000000024974, -0.5882908513826899 
3.2900000000025185, -0.5868319091369864 
3.3000000000025396, -0.5847807109167593 
3.3100000000025607, -0.581895565660657 
3.3200000000025818, -0.5779143555939671 
3.330000000002603, -0.5726719024275155 
3.340000000002624, -0.5662766353746086 
3.350000000002645, -0.5592110261384724 
3.360000000002666, -0.5522006221535639 
3.3700000000026873, -0.5459117817734269 
3.3800000000027084, -0.540725434817844 
3.3900000000027295, -0.5367171537761315 
3.4000000000027506, -0.5337661248113765 
3.4100000000027717, -0.5316732408108817 
3.420000000002793, -0.5302357500858299 
3.430000000002814, -0.5292801809137253 
3.440000000002835, -0.5286705526006824 
3.450000000002856, -0.5283055659202743 
3.460000000002877, -0.5281122976901705 
3.4700000000028983, -0.5280397395132186 
3.4800000000029194, -0.528053399506087 
3.4900000000029405, -0.5281312772842275 
3.5000000000029616, -0.5282611539266757 
3.5100000000029827, -0.5284389072632931 
3.520000000003004, -0.52866725837517 
3.530000000003025, -0.5289539718347233 
3.540000000003046, -0.5293083468793998 
3.550000000003067, -0.5297353421946966 
3.5600000000030882, -0.5302281940758256 
3.5700000000031094, -0.5307625192847696 
3.5800000000031305, -0.5312961710399696 
3.5900000000031516, -0.5317774056432554 
3.6000000000031727, -0.532158715835127 
3.6100000000031938, -0.5324088850495229 
3.620000000003215, -0.5325168367723837 
3.630000000003236, -0.5324870530111276 
3.640000000003257, -0.5323312057262195 
3.650000000003278, -0.532060560437769 
3.6600000000032993, -0.5316809226224029 
3.6700000000033204, -0.5311896306143181 
3.6800000000033415, -0.5305732274990735 
3.6900000000033626, -0.5298042655249915 
3.7000000000033837, -0.5288353863158269 
3.710000000003405, -0.5275880406354974 
3.720000000003426, -0.525932819355358 
3.730000000003447, -0.5236627730674589 
3.740000000003468, -0.5204811525629232 
3.750000000003489, -0.5160660808488343 
3.7600000000035103, -0.5102817784594448 
3.7700000000035314, -0.5034505554427284 
3.7800000000035525, -0.49637133370855235 
3.7900000000035736, -0.48993990911630647 
3.8000000000035947, -0.4847209165231036 
3.810000000003616, -0.48083701455495953 
3.820000000003637, -0.4781211291806719 
3.830000000003658, -0.47630476872728683 
3.840000000003679, -0.4751311219084573 
3.8500000000037002, -0.4743964820243381 
3.8600000000037213, -0.4739536308558555 
3.8700000000037424, -0.4737016131542469 
3.8800000000037635, -0.473573484994734 
3.8900000000037847, -0.4735260926089535 
3.9000000000038058, -0.4735327044926567 
3.910000000003827, -0.47357823490975337 
3.920000000003848, -0.4736565252592987 
3.930000000003869, -0.47376903035518925 
3.94000000000389, -0.4739240132798562 
3.9500000000039113, -0.4741350145763733 
3.9600000000039324, -0.4744172771764231 
3.9700000000039535, -0.47478147020588335 
3.9800000000039746, -0.475225672595425 
3.9900000000039957, -0.47572871017726676 
4.000000000004016, -0.4762492893387152 
4.010000000003993, -0.4767338814283514 
4.02000000000397, -0.47713111358264265 
4.030000000003946, -0.47740508535227255 
4.040000000003923, -0.4775404651091093 
4.0500000000039, -0.4775384896040518 
4.0600000000038765, -0.4774084113245559 
4.070000000003853, -0.4771592043778045 
4.08000000000383, -0.4767934774211214 
4.090000000003807, -0.4763030020634157 
4.100000000003783, -0.4756641223091763 
4.11000000000376, -0.47483094325289754 
4.120000000003737, -0.47372400245547946 
4.130000000003713, -0.47221261309507556 
4.14000000000369, -0.47009318632108155 
4.150000000003667, -0.46708034719508423 
4.1600000000036434, -0.46285645817994264 
4.17000000000362, -0.45723682959972056 
4.180000000003597, -0.45041218040758785 
4.1900000000035735, -0.44303769256304315 
4.20000000000355, -0.4359751447612038 
4.210000000003527, -0.42988634235850176 
4.220000000003504, -0.4250390630039077 
4.23000000000348, -0.42138369028170714 
4.240000000003457, -0.4187201694987902 
4.250000000003434, -0.41682127452221945 
4.26000000000341, -0.4154898677307878 
4.270000000003387, -0.4145741208698147 
4.280000000003364, -0.4139644289242039 
4.2900000000033405, -0.4135851236176806 
4.300000000003317, -0.4133864081846622 
4.310000000003294, -0.41333817070291223 
4.320000000003271, -0.41342585457681125 
4.330000000003247, -0.41364808151842397 
4.340000000003224, -0.4140155382542881 
4.350000000003201, -0.41455040014487554 
4.360000000003177, -0.4152850908746609 
4.370000000003154, -0.4162584390578399 
4.380000000003131, -0.4175065735025269 
4.390000000003107, -0.4190461931866444 
4.400000000003084, -0.4208512638828622 
4.410000000003061, -0.4228326084822216 
4.4200000000030375, -0.4248390674221671 
4.430000000003014, -0.42669402674424867 
4.440000000002991, -0.42825342497936314 
4.450000000002968, -0.42944689180910994 
4.460000000002944, -0.4302776633441918 
4.470000000002921, -0.4307931260044476 
4.480000000002898, -0.4310525020433282 
4.490000000002874, -0.43110633140977483 
4.500000000002851, -0.43098773216040137 
4.510000000002828, -0.4307099971945682 
4.520000000002804, -0.4302660056196549 
4.530000000002781, -0.4296274406490159 
4.540000000002758, -0.42874433190092515 
4.5500000000027345, -0.4275483262717933 
4.560000000002711, -0.4259661997819766 
4.570000000002688, -0.4239499988441689 
4.580000000002665, -0.4215195487577964 
4.590000000002641, -0.41879164756734133 
4.600000000002618, -0.415962386280873 
4.610000000002595, -0.4132420817665336 
4.620000000002571, -0.410787348542727 
4.630000000002548, -0.4086728405408926 
4.640000000002525, -0.4069040791085315 
4.6500000000025015, -0.405446913156667 
4.660000000002478, -0.40425350716335107 
4.670000000002455, -0.40327831836582206 
4.6800000000024315, -0.4024855942856432 
4.690000000002408, -0.401851921771868 
4.700000000002385, -0.40136673534168266 
4.710000000002362, -0.40103262140735996 
4.720000000002338, -0.4008664671765456 
4.730000000002315, -0.40090207880413314 
4.740000000002292, -0.4011946931178138 
4.750000000002268, -0.40182758007933045 
4.760000000002245, -0.40292023489369233 
4.770000000002222, -0.4046356220209308 
4.7800000000021985, -0.40717905610025945 
4.790000000002175, -0.4107722153013647 
4.800000000002152, -0.4155760533400078 
4.810000000002129, -0.4215467541572556 
4.820000000002105, -0.4282796770066368 
4.830000000002082, -0.435011661264556 
4.840000000002059, -0.4409154837223265 
4.850000000002035, -0.4454977824243386 
4.860000000002012, -0.44873185398504434 
4.870000000001989, -0.4508791656349767 
4.880000000001965, -0.45225775513770994 
4.890000000001942, -0.45312333317143977 
4.900000000001919, -0.4536488660644009 
4.9100000000018955, -0.453942218068494 
