t, s[1].omega / s[0].omega 
0, -0.5999977269916469 
0.009999999999999995, -0.5997723237705086 
0.019999999999999934, -0.5995457441949801 
0.029999999999999874, -0.5993055749441704 
0.04000000000000012, -0.5990374618628219 
0.050000000000000405, -0.5987306884803365 
0.06000000000000069, -0.598381320921234 
0.07000000000000098, -0.59799265752458 
0.08000000000000126, -0.5975744900730278 
0.09000000000000155, -0.5971430039636261 
0.10000000000000184, -0.5967225489644482 
0.11000000000000212, -0.596349895596118 
0.12000000000000241, -0.5960812873533242 
0.130000000000002, -0.5960023924828418 
0.1400000000000009, -0.5962406715337996 
0.1499999999999998, -0.5969780042127105 
0.1599999999999987, -0.5984576043941681 
0.1699999999999976, -0.6009721695975933 
0.1799999999999965, -0.6048109601834027 
0.1899999999999954, -0.6101422643258005 
0.1999999999999943, -0.6168414009596541 
0.2099999999999932, -0.6243641882516759 
0.2199999999999921, -0.6318373481790699 
0.229999999999991, -0.6384067070173247 
0.2399999999999899, -0.6435905613765176 
0.2499999999999888, -0.6473531903140117 
0.2599999999999877, -0.6499297462849195 
0.2699999999999866, -0.6516233074415706 
0.2799999999999855, -0.6526947665235221 
0.2899999999999844, -0.6533340052472496 
0.2999999999999833, -0.6536671976863045 
0.3099999999999822, -0.6537719399201942 
0.3199999999999811, -0.6536896694389398 
0.32999999999998, -0.6534331843667738 
0.3399999999999789, -0.6529897824035039 
0.3499999999999778, -0.6523214597891325 
0.35999999999997667, -0.6513647916844698 
0.36999999999997557, -0.6500354260160431 
0.37999999999997447, -0.6482446666261102 
0.38999999999997337, -0.6459338494841335 
0.39999999999997227, -0.6431193999479696 
0.40999999999997117, -0.6399212156017875 
0.41999999999997006, -0.6365444898097061 
0.42999999999996896, -0.6332183037204033 
0.43999999999996786, -0.6301311206997813 
0.44999999999996676, -0.6273991290983875 
0.45999999999996566, -0.6250701759369269 
0.46999999999996456, -0.6231448577267049 
0.47999999999996346, -0.6215979291953253 
0.48999999999996235, -0.620393071901707 
0.49999999999996125, -0.6194909870727747 
0.5099999999999602, -0.6188531391689824 
0.519999999999959, -0.6184433583110427 
0.529999999999958, -0.6182286761277259 
0.5399999999999568, -0.6181800113020525 
0.5499999999999557, -0.6182728485285057 
0.5599999999999546, -0.6184878400307149 
0.5699999999999535, -0.6188111846362344 
0.5799999999999524, -0.6192345594169673 
0.5899999999999513, -0.6197541853108404 
0.5999999999999502, -0.620368347397759 
0.6099999999999491, -0.6210726874014381 
0.619999999999948, -0.6218533943256425 
0.6299999999999469, -0.6226803509994662 
0.6399999999999458, -0.6235045314762759 
0.6499999999999447, -0.6242640179557895 
0.6599999999999436, -0.6248985389364782 
0.6699999999999425, -0.6253654929469976 
0.6799999999999414, -0.6256481389330277 
0.6899999999999403, -0.6257525166548822 
0.6999999999999392, -0.6256974926783722 
0.7099999999999381, -0.6255046157690025 
0.719999999999937, -0.6251915576012438 
0.7299999999999359, -0.6247695171919025 
0.7399999999999348, -0.6242435738817378 
0.7499999999999337, -0.6236151906041736 
0.7599999999999326, -0.6228867656207777 
0.7699999999999315, -0.6220684309699783 
0.7799999999999304, -0.6211862836453835 
0.7899999999999293, -0.6202875785731305 
0.7999999999999282, -0.6194316573990585 
0.8099999999999271, -0.6186519378646713 
0.819999999999926, -0.6178956461552445 
0.8299999999999249, -0.6170089993251677 
0.8399999999999238, -0.6158570090435339 
0.8499999999999227, -0.6145064251672127 
0.8599999999999216, -0.6132300114191084 
0.8699999999999205, -0.612295684468769 
0.8799999999999194, -0.6117960245332458 
0.8899999999999183, -0.6116594063603045 
0.8999999999999172, -0.6117491375419873 
0.9099999999999161, -0.6119395294540905 
0.919999999999915, -0.612143326107716 
0.9299999999999139, -0.6123095272917459 
0.9399999999999128, -0.6124116016091335 
0.9499999999999117, -0.6124359697619356 
0.9599999999999106, -0.6123736144538974 
0.9699999999999095, -0.6122148518602504 
0.9799999999999084, -0.6119468347089222 
0.9899999999999073, -0.6115538094329993 
0.9999999999999062, -0.6110205903232406 
1.0099999999999052, -0.6103392579567531 
1.019999999999904, -0.609517102392127 
1.029999999999903, -0.608581246757639 
1.039999999999902, -0.6075753751910231 
1.0499999999999008, -0.606548679699238 
1.0599999999998997, -0.6055430329054551 
1.0699999999998986, -0.6045853583057763 
1.0799999999998975, -0.6036876474658673 
1.0899999999998964, -0.602852189058777 
1.0999999999998953, -0.6020780478411163 
1.1099999999998942, -0.6013661582928786 
1.119999999999893, -0.6007223916213527 
1.129999999999892, -0.6001591754425252 
1.1399999999998909, -0.5996964791786549 
1.1499999999998898, -0.59936267997777 
1.1599999999998887, -0.5991954649269581 
1.1699999999998876, -0.5992427075079538 
1.1799999999998865, -0.5995631487027483 
1.1899999999998854, -0.6002265609290627 
1.1999999999998843, -0.6013126562533528 
1.2099999999998832, -0.6029070836324616 
1.219999999999882, -0.6050913656717583 
1.229999999999881, -0.6079221656977977 
1.2399999999998799, -0.6113962359531395 
1.2499999999998788, -0.6154056382929858 
1.2599999999998777, -0.6197065851697185 
1.2699999999998766, -0.6239422016686831 
1.2799999999998755, -0.627740081654355 
1.2899999999998744, -0.630838807231836 
1.2999999999998733, -0.6331552331620576 
1.3099999999998722, -0.6347561478252504 
1.319999999999871, -0.6357801829097321 
1.32999999999987, -0.6363708016371358 
1.3399999999998689, -0.6366427871957125 
1.3499999999998678, -0.6366739028710728 
1.3599999999998666, -0.6365073277441715 
1.3699999999998655, -0.6361555034857814 
1.3799999999998644, -0.6356011450485523 
1.3899999999998633, -0.6347938731571215 
1.3999999999998622, -0.6336424246459406 
1.4099999999998611, -0.6320048638497879 
1.41999999999986, -0.6296853494721293 
1.429999999999859, -0.6264570472579722 
1.4399999999998578, -0.6221380230627378 
1.4499999999998567, -0.6167220924659257 
1.4599999999998556, -0.6104913354711415 
1.4699999999998545, -0.603986904613558 
1.4799999999998534, -0.5978142331738148 
1.4899999999998523, -0.5924261762273784 
1.4999999999998512, -0.5880311843775592 
1.5099999999998501, -0.584631621987723 
1.519999999999849, -0.582111411009935 
1.529999999999848, -0.5803107305743029 
1.5399999999998468, -0.5790702560801682 
1.5499999999998457, -0.5782510364016702 
1.5599999999998446, -0.5777403010308618 
1.5699999999998435, -0.5774506091947635 
1.5799999999998424, -0.577316423757787 
1.5899999999998413, -0.5772900812506034 
1.5999999999998402, -0.577338065729953 
1.6099999999998391, -0.577438006599259 
1.619999999999838, -0.5775765455069921 
1.629999999999837, -0.5777479209085761 
1.6399999999998358, -0.5779526965176681 
1.6499999999998347, -0.5781956359508148 
1.6599999999998336, -0.5784817330883444 
1.6699999999998325, -0.5788103449337798 
1.6799999999998314, -0.5791691839851303 
1.6899999999998303, -0.5795315341275692 
1.6999999999998292, -0.5798597028178987 
1.709999999999828, -0.5801144353897485 
1.719999999999827, -0.5802656384149796 
1.729999999999826, -0.5802985013538322 
1.7399999999998248, -0.5802126669792991 
1.7499999999998237, -0.5800168302614449 
1.7599999999998226, -0.5797227916035935 
1.7699999999998215, -0.5793415690787345 
1.7799999999998204, -0.5788822441643889 
1.7899999999998193, -0.578353317629561 
1.7999999999998182, -0.57776638838613 
1.809999999999817, -0.577142211024687 
1.819999999999816, -0.5765187762938961 
1.8299999999998149, -0.5759587665902075 
1.8399999999998138, -0.5755479840527951 
1.8499999999998127, -0.5753678205566669 
1.8599999999998116, -0.5754255329190227 
1.8699999999998105, -0.5755672597727554 
1.8799999999998094, -0.5754857503175235 
1.8899999999998083, -0.5749269173740367 
1.8999999999998072, -0.573939441932115 
1.909999999999806, -0.5728470636451475 
1.919999999999805, -0.5719730255839456 
1.9299999999998039, -0.5714510381701763 
1.9399999999998028, -0.5712439307926187 
1.9499999999998017, -0.571244344732938 
1.9599999999998006, -0.5713474975097068 
1.9699999999997995, -0.5714777338596351 
1.9799999999997984, -0.5715884810449747 
1.9899999999997973, -0.5716534815898673 
1.9999999999997962, -0.5716578059062833 
2.0099999999998173, -0.5715912174650074 
2.0199999999998384, -0.5714441589779398 
2.0299999999998595, -0.5712062122922681 
2.0399999999998806, -0.5708670924137741 
2.0499999999999017, -0.5704202167545807 
2.059999999999923, -0.5698679968260538 
2.069999999999944, -0.5692262643389265 
2.079999999999965, -0.5685241980772792 
2.089999999999986, -0.5677979595322069 
2.100000000000007, -0.5670806099056891 
2.1100000000000283, -0.5663938036271955 
2.1200000000000494, -0.5657452839769587 
2.1300000000000705, -0.5651321480775107 
2.1400000000000916, -0.5645469140441058 
2.1500000000001127, -0.5639831767936462 
2.160000000000134, -0.5634392294270494 
2.170000000000155, -0.5629198357062581 
2.180000000000176, -0.5624372847440774 
2.190000000000197, -0.5620128610552187 
2.2000000000002182, -0.5616794382621177 
2.2100000000002393, -0.5614855008769267 
2.2200000000002604, -0.5615006202356627 
2.2300000000002815, -0.5618221000081136 
2.2400000000003026, -0.5625818344109497 
2.2500000000003237, -0.563950844684602 
2.260000000000345, -0.5661356898469032 
2.270000000000366, -0.5693555093262858 
2.280000000000387, -0.5737831637451829 
2.290000000000408, -0.5794394716869448 
2.3000000000004293, -0.5860667951034022 
2.3100000000004504, -0.5930790904517425 
2.3200000000004715, -0.5997064269364227 
2.3300000000004926, -0.6053023769821386 
2.3400000000005137, -0.6095806115171791 
2.3500000000005348, -0.6126068686269149 
2.360000000000556, -0.6146292094721286 
2.370000000000577, -0.6159199658959332 
2.380000000000598, -0.6166999864583641 
2.390000000000619, -0.6171240434414313 
2.4000000000006403, -0.6172907961396812 
2.4100000000006614, -0.6172564320743102 
2.4200000000006825, -0.6170447012039129 
2.4300000000007036, -0.616652196654817 
2.4400000000007247, -0.6160498512914188 
2.450000000000746, -0.6151828299089263 
2.460000000000767, -0.6139729782796821 
2.470000000000788, -0.6123308146894033 
2.480000000000809, -0.610184539517384 
2.49000000000083, -0.6075246043832203 
2.5000000000008513, -0.6044418881888836 
2.5100000000008724, -0.601125040565055 
2.5200000000008935, -0.5978064320168908 
2.5300000000009146, -0.5946906479785772 
2.5400000000009357, -0.5919104195830469 
2.550000000000957, -0.5895233928774609 
2.560000000000978, -0.5875331432537266 
2.570000000000999, -0.5859138800335243 
2.58000000000102, -0.5846285169591041 
2.5900000000010412, -0.5836387654632451 
2.6000000000010624, -0.582909564227237 
2.6100000000010835, -0.5824104637009603 
2.6200000000011046, -0.5821157797818063 
2.6300000000011257, -0.5820044938651853 
2.6400000000011468, -0.5820602989012943 
2.650000000001168, -0.5822718547428354 
2.660000000001189, -0.5826331185085555 
2.67000000000121, -0.5831434382797233 
2.680000000001231, -0.5838068386234443 
2.6900000000012523, -0.5846295743060034 
2.7000000000012734, -0.5856148120193698 
2.7100000000012945, -0.586753813794872 
2.7200000000013156, -0.5880150408350288 
2.7300000000013367, -0.5893362474817666 
2.740000000001358, -0.5906274426570001 
2.750000000001379, -0.5917893593832482 
2.7600000000014, -0.5927409469540528 
2.770000000001421, -0.5934398324602648 
2.780000000001442, -0.5938841888282222 
2.7900000000014633, -0.5940990303801541 
2.8000000000014844, -0.5941184597875339 
2.8100000000015055, -0.5939723626584855 
2.8200000000015266, -0.593679234927781 
2.8300000000015477, -0.5932429385493798 
2.840000000001569, -0.5926505741987325 
2.85000000000159, -0.5918692603343044 
2.860000000001611, -0.5908400442277514 
2.870000000001632, -0.5894672054603838 
2.8800000000016532, -0.5876017876489302 
2.8900000000016743, -0.5850227473632289 
2.9000000000016954, -0.581435225765131 
2.9100000000017165, -0.5765364501535368 
2.9200000000017377, -0.5702059907899477 
2.9300000000017588, -0.5627579668670347 
2.94000000000178, -0.5549894786006244 
2.950000000001801, -0.5478496588451741 
2.960000000001822, -0.5419958849248057 
2.970000000001843, -0.5376217668095293 
2.9800000000018643, -0.5345784736395339 
2.9900000000018854, -0.5325749312396149 
3.0000000000019065, -0.5313153378191987 
3.0100000000019276, -0.5305576367377431 
3.0200000000019487, -0.5301240405865635 
3.03000000000197, -0.5298917895691442 
3.040000000001991, -0.5297792523335315 
3.050000000002012, -0.5297333960057876 
3.060000000002033, -0.5297202906177425 
3.070000000002054, -0.5297186730638374 
3.0800000000020753, -0.5297161414702882 
3.0900000000020964, -0.5297074326332157 
3.1000000000021175, -0.5296940136645965 
3.1100000000021386, -0.5296837813294302 
3.1200000000021597, -0.5296893333024199 
3.130000000002181, -0.5297237213088228 
3.140000000002202, -0.5297941526384771 
3.150000000002223, -0.5298960668254314 
3.160000000002244, -0.530010925267091 
3.1700000000022652, -0.5301098028361174 
3.1800000000022863, -0.5301616512692361 
3.1900000000023074, -0.5301419892801105 
3.2000000000023285, -0.5300376078692361 
3.2100000000023496, -0.529845987562339 
3.2200000000023707, -0.5295714589871806 
3.230000000002392, -0.5292210514043477 
3.240000000002413, -0.5288018676916195 
3.250000000002434, -0.5283204856683189 
3.260000000002455, -0.5277842418018823 
3.2700000000024763, -0.527204123729867 
3.2800000000024974, -0.5265987118938462 
3.2900000000025185, -0.5259972197147269 
3.3000000000025396, -0.5254359049962282 
3.3100000000025607, -0.5249355599962605 
3.3200000000025818, -0.5244449631767268 
3.330000000002603, -0.5237609558294729 
3.340000000002624, -0.5225174390938955 
3.350000000002645, -0.520387733402787 
3.360000000002666, -0.5174292795594689 
3.3700000000026873, -0.5141626461885525 
3.3800000000027084, -0.5112189197227484 
3.3900000000027295, -0.5089665665985109 
3.4000000000027506, -0.5074493452781899 
3.4100000000027717, -0.5065273736587315 
3.420000000002793, -0.5060175547334179 
3.430000000002814, -0.5057635854622845 
3.440000000002835, -0.5056534085279263 
3.450000000002856, -0.5056137205396305 
3.460000000002877, -0.5055988447229388 
3.4700000000028983, -0.5055807626197458 
3.4800000000029194, -0.5055420244672726 
3.4900000000029405, -0.5054715099251706 
3.5000000000029616, -0.5053626465675898 
3.5100000000029827, -0.5052136279954408 
3.520000000003004, -0.5050288531742615 
3.530000000003025, -0.504820136336593 
3.540000000003046, -0.5046057616187156 
3.550000000003067, -0.5044061427104516 
3.5600000000030882, -0.5042369300689846 
3.5700000000031094, -0.5041025505165806 
3.5800000000031305, -0.503993575593918 
3.5900000000031516, -0.5038895346546381 
3.6000000000031727, -0.503765858701642 
3.6100000000031938, -0.5036013763229306 
3.620000000003215, -0.5033828695395149 
3.630000000003236, -0.5031055673613237 
3.640000000003257, -0.5027709746819525 
3.650000000003278, -0.502384270109013 
3.6600000000032993, -0.5019528524499396 
3.6700000000033204, -0.5014866865627344 
3.6800000000033415, -0.5010005985741393 
3.6900000000033626, -0.5005184902602744 
3.7000000000033837, -0.500078979315023 
3.710000000003405, -0.4997401770036841 
3.720000000003426, -0.499576576305541 
3.730000000003447, -0.4996524916520751 
3.740000000003468, -0.49995118714066084 
3.750000000003489, -0.5002663781190668 
3.7600000000035103, -0.5001607123498835 
3.7700000000035314, -0.49917311731132974 
3.7800000000035525, -0.49722374012015996 
3.7900000000035736, -0.49475619995324716 
3.8000000000035947, -0.49239312772203236 
3.810000000003616, -0.490534155392803 
3.820000000003637, -0.4892672585168901 
3.830000000003658, -0.48849518999536823 
3.840000000003679, -0.48806949209651274 
3.8500000000037002, -0.487859067178548 
3.8600000000037213, -0.4877688210829887 
3.8700000000037424, -0.4877362472950636 
3.8800000000037635, -0.487722296690436 
3.8900000000037847, -0.48770298781220206 
3.9000000000038058, -0.4876634637408591 
3.910000000003827, -0.4875945609377455 
3.920000000003848, -0.4874915776001343 
3.930000000003869, -0.48735478999890713 
3.94000000000389, -0.4871908688064699 
3.9500000000039113, -0.4870136851875696 
3.9600000000039324, -0.48684268473974457 
3.9700000000039535, -0.486697912003081 
3.9800000000039746, -0.4865928776022398 
3.9900000000039957, -0.48652837388404346 
4.000000000004016, -0.4864905248167517 
4.010000000003993, -0.48645449461642254 
4.02000000000397, -0.48639227672002716 
4.030000000003946, -0.48628064089463097 
4.040000000003923, -0.4861055409993388 
4.0500000000039, -0.4858619827091447 
4.0600000000038765, -0.48555104594686116 
4.070000000003853, -0.48517647373454154 
4.08000000000383, -0.4847423470220996 
4.090000000003807, -0.4842522445898815 
4.100000000003783, -0.4837096332680947 
4.11000000000376, -0.48311883979048564 
4.120000000003737, -0.48248513525493814 
4.130000000003713, -0.4818102392340532 
4.14000000000369, -0.4810750796143994 
4.150000000003667, -0.480197190109128 
4.1600000000036434, -0.4789602176426456 
4.17000000000362, -0.4769699955606539 
4.180000000003597, -0.47378440701102625 
4.1900000000035735, -0.46929116719215536 
4.20000000000355, -0.464004159028992 
4.210000000003527, -0.45882281922635304 
4.220000000003504, -0.4544715561533562 
4.23000000000348, -0.4512182145031206 
4.240000000003457, -0.4489766769504152 
4.250000000003434, -0.44751760238371663 
4.26000000000341, -0.446607063284101 
4.270000000003387, -0.44605935056684665 
4.280000000003364, -0.4457430506610106 
4.2900000000033405, -0.4455707478913317 
4.300000000003317, -0.4454864578641403 
4.310000000003294, -0.44545544608737586 
4.320000000003271, -0.44545722128016835 
4.330000000003247, -0.4454813081088055 
4.340000000003224, -0.4455251601874606 
4.350000000003201, -0.44559346390045185 
4.360000000003177, -0.4456978088965127 
4.370000000003154, -0.44585534707261465 
4.380000000003131, -0.446085056752179 
4.390000000003107, -0.4464010552093091 
4.400000000003084, -0.44680412622330284 
4.410000000003061, -0.44727471208949715 
4.4200000000030375, -0.44777187963109444 
4.430000000003014, -0.44824127808506925 
4.440000000002991, -0.44862988117185826 
4.450000000002968, -0.44889980723566625 
4.460000000002944, -0.44903382321563107 
4.470000000002921, -0.4490314960166352 
4.480000000002898, -0.4489005448206921 
4.490000000002874, -0.44864827427117965 
4.500000000002851, -0.4482750521831286 
4.510000000002828, -0.4477691642203746 
4.520000000002804, -0.44710115126983097 
4.530000000002781, -0.4462153391271255 
4.540000000002758, -0.4450162968292239 
4.5500000000027345, -0.4433495157923503 
4.560000000002711, -0.44098278242050526 
4.570000000002688, -0.43761424938542826 
4.580000000002665, -0.4329603578201423 
4.590000000002641, -0.4269580178470072 
4.600000000002618, -0.4199722101633553 
4.610000000002595, -0.41275659659962766 
4.620000000002571, -0.406108134782096 
4.630000000002548, -0.4005257000860466 
4.640000000002525, -0.39613707507616264 
4.6500000000025015, -0.3928275838746361 
4.660000000002478, -0.39039150362185954 
4.670000000002455, -0.38862383099420017 
4.6800000000024315, -0.3873563188929062 
4.690000000002408, -0.38646345011072736 
4.700000000002385, -0.3858570286810223 
4.710000000002362, -0.38547849831471714 
4.720000000002338, -0.3852924134199814 
4.730000000002315, -0.3852819619246627 
4.740000000002292, -0.385446524850656 
4.750000000002268, -0.3858009710160593 
4.760000000002245, -0.3863762009464104 
4.770000000002222, -0.3872200420413497 
4.7800000000021985, -0.38839666554133334 
4.790000000002175, -0.3899810165924282 
4.800000000002152, -0.39204262103768744 
4.810000000002129, -0.3946128013607361 
4.820000000002105, -0.3976368147640804 
4.830000000002082, -0.4009337809262565 
4.840000000002059, -0.4042097592190033 
4.850000000002035, -0.4071493063697832 
4.860000000002012, -0.4095352367677728 
4.870000000001989, -0.4113054924345395 
4.880000000001965, -0.41252022584510134 
4.890000000001942, -0.4132915509441763 
4.900000000001919, -0.41372988334221683 
4.9100000000018955, -0.4139203103775137 
