t, s[1].omega / s[0].omega 
0, -0.6599977061574893 
0.009999999999999995, -0.6597577994090862 
0.019999999999999934, -0.6594948334126026 
0.029999999999999874, -0.6592034919957893 
0.04000000000000012, -0.6588785066893854 
0.050000000000000405, -0.6585177142103378 
0.06000000000000069, -0.6581237147143486 
0.07000000000000098, -0.657704191241911 
0.08000000000000126, -0.6572718662689321 
0.09000000000000155, -0.6568450908501574 
0.10000000000000184, -0.6564495781800329 
0.11000000000000212, -0.6561212834243721 
0.12000000000000241, -0.6559100391897916 
0.130000000000002, -0.6558831881607223 
0.1400000000000009, -0.6561279804620815 
0.1499999999999998, -0.6567508280612832 
0.1599999999999987, -0.6578705857559732 
0.1699999999999976, -0.6596020368359647 
0.1799999999999965, -0.66202572512596 
0.1899999999999954, -0.6651440170833367 
0.1999999999999943, -0.6688348406973023 
0.2099999999999932, -0.6728326157663995 
0.2199999999999921, -0.6767720144886836 
0.229999999999991, -0.6802963923583779 
0.2399999999999899, -0.6831718554603594 
0.2499999999999888, -0.6853325645984131 
0.2599999999999877, -0.6868436619386958 
0.2699999999999866, -0.6878302118488463 
0.2799999999999855, -0.6884206658001456 
0.2899999999999844, -0.6887193131102932 
0.2999999999999833, -0.6887994987852764 
0.3099999999999822, -0.6887059196921099 
0.3199999999999811, -0.6884585997234978 
0.32999999999998, -0.6880552571412101 
0.3399999999999789, -0.6874710094329621 
0.3499999999999778, -0.686655500636249 
0.35999999999997667, -0.6855287955232431 
0.36999999999997557, -0.683979970304382 
0.37999999999997447, -0.6818768298565753 
0.38999999999997337, -0.6790990067810037 
0.39999999999997227, -0.6756003820979753 
0.40999999999997117, -0.6714796389193622 
0.41999999999997006, -0.6670047975243483 
0.42999999999996896, -0.6625496330934135 
0.43999999999996786, -0.6584712563367459 
0.44999999999996676, -0.6550094370042701 
0.45999999999996566, -0.6522572534220983 
0.46999999999996456, -0.6501901855283349 
0.47999999999996346, -0.6487152558983983 
0.48999999999996235, -0.6477134451260605 
0.49999999999996125, -0.6470669971997991 
0.5099999999999602, -0.6466733303904276 
0.519999999999959, -0.6464499024326139 
0.529999999999958, -0.6463338527514388 
0.5399999999999568, -0.6462790980227766 
0.5499999999999557, -0.6462526074021447 
0.5599999999999546, -0.646230926610224 
0.5699999999999535, -0.6461975742275239 
0.5799999999999524, -0.6461415781273577 
0.5899999999999513, -0.6460570169526239 
0.5999999999999502, -0.645942927051309 
0.6099999999999491, -0.6458025514940744 
0.619999999999948, -0.6456411414041165 
0.6299999999999469, -0.6454626120775953 
0.6399999999999458, -0.6452666417276578 
0.6499999999999447, -0.6450480338930423 
0.6599999999999436, -0.6447988607394697 
0.6699999999999425, -0.6445120831666311 
0.6799999999999414, -0.6441846033655441 
0.6899999999999403, -0.6438185797307325 
0.6999999999999392, -0.643421329981955 
0.7099999999999381, -0.6430049960346389 
0.719999999999937, -0.6425870480161416 
0.7299999999999359, -0.642192179490949 
0.7399999999999348, -0.6418556719598552 
0.7499999999999337, -0.6416279631143775 
0.7599999999999326, -0.6415797665738707 
0.7699999999999315, -0.641806439982451 
0.7799999999999304, -0.642429192462342 
0.7899999999999293, -0.6435890654660751 
0.7999999999999282, -0.6454277548889136 
0.8099999999999271, -0.6480490512016133 
0.819999999999926, -0.6514605776841668 
0.8299999999999249, -0.6555135127541 
0.8399999999999238, -0.6598836950356859 
0.8499999999999227, -0.6641396403169348 
0.8599999999999216, -0.6678857703746222 
0.8699999999999205, -0.670891113045277 
0.8799999999999194, -0.6731189517409032 
0.8899999999999183, -0.6746653178628489 
0.8999999999999172, -0.6756754153269868 
0.9099999999999161, -0.676287158420432 
0.919999999999915, -0.6766080802773374 
0.9299999999999139, -0.6767122378669554 
0.9399999999999128, -0.6766444500635814 
0.9499999999999117, -0.6764250873594315 
0.9599999999999106, -0.6760528278964507 
0.9699999999999095, -0.6755048205846921 
0.9799999999999084, -0.6747347746775078 
0.9899999999999073, -0.6736708433341867 
0.9999999999999062, -0.6722176724098264 
1.0099999999999052, -0.6702703371279636 
1.019999999999904, -0.6677483152962715 
1.029999999999903, -0.6646472383924699 
1.039999999999902, -0.6610829499795157 
1.0499999999999008, -0.6572883800400683 
1.0599999999998997, -0.6535501699665495 
1.0699999999998986, -0.6501223154376081 
1.0799999999998975, -0.6471690377975775 
1.0899999999998964, -0.6447557725388359 
1.0999999999998953, -0.6428719216713614 
1.1099999999998942, -0.6414616369185653 
1.119999999999893, -0.640449063600811 
1.129999999999892, -0.6397548176503343 
1.1399999999998909, -0.6393052304967605 
1.1499999999998898, -0.6390367470554394 
1.1599999999998887, -0.6388973270490014 
1.1699999999998876, -0.6388460736642554 
1.1799999999998865, -0.6388519241432297 
1.1899999999998854, -0.6388920243530829 
1.1999999999998843, -0.6389502437202541 
1.2099999999998832, -0.6390160633460892 
1.219999999999882, -0.6390837331707238 
1.229999999999881, -0.6391512078986514 
1.2399999999998799, -0.6392182124034557 
1.2499999999998788, -0.6392832345207846 
1.2599999999998777, -0.63934031227345 
1.2699999999998766, -0.6393774209364564 
1.2799999999998755, -0.6393779663526844 
1.2899999999998744, -0.6393250930799528 
1.2999999999998733, -0.6392065351320608 
1.3099999999998722, -0.6390174382609322 
1.319999999999871, -0.638760270509989 
1.32999999999987, -0.6384429402386724 
1.3399999999998689, -0.6380769710056187 
1.3499999999998678, -0.6376770894332641 
1.3599999999998666, -0.6372628249848598 
1.3699999999998655, -0.6368622965634538 
1.3799999999998644, -0.6365182163225832 
1.3899999999998633, -0.6362958960509677 
1.3999999999998622, -0.6362922192024215 
1.4099999999998611, -0.6366426080110597 
1.41999999999986, -0.6375195445527301 
1.429999999999859, -0.6391117610160159 
1.4399999999998578, -0.6415716771632518 
1.4499999999998567, -0.6449298875835658 
1.4599999999998556, -0.6490097220679257 
1.4699999999998545, -0.653415500809411 
1.4799999999998534, -0.6576501336504307 
1.4899999999998523, -0.6613067613668482 
1.4999999999998512, -0.6641932410520446 
1.5099999999998501, -0.6663191415085566 
1.519999999999849, -0.6678042683738449 
1.529999999999848, -0.6687946147269589 
1.5399999999998468, -0.6694181978498261 
1.5499999999998457, -0.6697717770190812 
1.5599999999998446, -0.6699218603324981 
1.5699999999998435, -0.6699096073124554 
1.5799999999998424, -0.6697552172034956 
1.5899999999998413, -0.6694604833929529 
1.5999999999998402, -0.669009521024462 
1.6099999999998391, -0.6683685019660783 
1.619999999999838, -0.6674863573142171 
1.629999999999837, -0.6663000458339813 
1.6399999999998358, -0.6647490542718038 
1.6499999999998347, -0.6628011252966104 
1.6599999999998336, -0.660481826112957 
1.6699999999998325, -0.6578893966229791 
1.6799999999998314, -0.6551785469876872 
1.6899999999998303, -0.6525184805292366 
1.6999999999998292, -0.6500503424434997 
1.709999999999828, -0.647865295414211 
1.719999999999827, -0.6460051536024578 
1.729999999999826, -0.6444749645595921 
1.7399999999998248, -0.6432571283934284 
1.7499999999998237, -0.6423221484063889 
1.7599999999998226, -0.6416354273484888 
1.7699999999998215, -0.6411612406765198 
1.7799999999998204, -0.6408651106493143 
1.7899999999998193, -0.640715349004643 
1.7999999999998182, -0.6406841012888596 
1.809999999999817, -0.6407479890474396 
1.819999999999816, -0.640888379400281 
1.8299999999998149, -0.6410913055532463 
1.8399999999998138, -0.6413470022741139 
1.8499999999998127, -0.641648859263242 
1.8599999999998116, -0.6419914344446701 
1.8699999999998105, -0.6423672975038291 
1.8799999999998094, -0.6427631959245931 
1.8899999999998083, -0.6431572144542739 
1.8999999999998072, -0.6435192774062568 
1.909999999999806, -0.6438162209091114 
1.919999999999805, -0.6440197079007499 
1.9299999999998039, -0.6441128137931209 
1.9399999999998028, -0.6440918674945932 
1.9499999999998017, -0.6439635429653447 
1.9599999999998006, -0.6437399189098035 
1.9699999999997995, -0.6434343460000769 
1.9799999999997984, -0.6430595443127152 
1.9899999999997973, -0.6426281578338846 
1.9999999999997962, -0.6421556459188498 
2.0099999999998173, -0.6416655737363469 
2.0199999999998384, -0.6411975016541622 
2.0299999999998595, -0.6408171400560365 
2.0399999999998806, -0.6406264213510837 
2.0499999999999017, -0.640766821018783 
2.059999999999923, -0.6414032835584318 
2.069999999999944, -0.6426743990663468 
2.079999999999965, -0.6446109502520139 
2.089999999999986, -0.6470674297091003 
2.100000000000007, -0.6497416026563725 
2.1100000000000283, -0.6523004260012621 
2.1200000000000494, -0.654515745685322 
2.1300000000000705, -0.6563045117297491 
2.1400000000000916, -0.6576828908097788 
2.1500000000001127, -0.6587072955162976 
2.160000000000134, -0.6594403243496966 
2.170000000000155, -0.6599379387919467 
2.180000000000176, -0.6602458159485415 
2.190000000000197, -0.6603984916804811 
2.2000000000002182, -0.6604192505085803 
2.2100000000002393, -0.6603201465756026 
2.2200000000002604, -0.6601018856618633 
2.2300000000002815, -0.659753581380554 
2.2400000000003026, -0.6592529257872626 
2.2500000000003237, -0.6585681270422084 
2.260000000000345, -0.657663741151418 
2.270000000000366, -0.6565121609619944 
2.280000000000387, -0.6551094123185197 
2.290000000000408, -0.6534883424809272 
2.3000000000004293, -0.651719422132089 
2.3100000000004504, -0.6498954426847041 
2.3200000000004715, -0.6481080846167758 
2.3300000000004926, -0.6464294683397498 
2.3400000000005137, -0.6449056805627411 
2.3500000000005348, -0.6435601912776125 
2.360000000000556, -0.6424012361117918 
2.370000000000577, -0.6414286134502325 
2.380000000000598, -0.6406381406232476 
2.390000000000619, -0.6400238902649533 
2.4000000000006403, -0.6395790131646478 
2.4100000000006614, -0.6392959496688712 
2.4200000000006825, -0.639166578939786 
2.4300000000007036, -0.639182568558434 
2.4400000000007247, -0.6393359411271683 
2.450000000000746, -0.6396196863857659 
2.460000000000767, -0.64002810204568 
2.470000000000788, -0.6405564143413065 
2.480000000000809, -0.6411991226335918 
2.49000000000083, -0.6419465861489064 
2.5000000000008513, -0.6427799666431302 
2.5100000000008724, -0.6436660521387432 
2.5200000000008935, -0.6445552835729179 
2.5300000000009146, -0.6453866984528183 
2.5400000000009357, -0.6461003511780343 
2.550000000000957, -0.6466519943322251 
2.560000000000978, -0.6470218692843718 
2.570000000000999, -0.6472133921320519 
2.58000000000102, -0.647244523145146 
2.5900000000010412, -0.6471377946024135 
2.6000000000010624, -0.6469130999748984 
2.6100000000010835, -0.646584113760379 
2.6200000000011046, -0.6461574388464588 
2.6300000000011257, -0.645633411683291 
2.6400000000011468, -0.6450080163616735 
2.650000000001168, -0.644275848656192 
2.660000000001189, -0.6434341079385456 
2.67000000000121, -0.6424867931926309 
2.680000000001231, -0.6414464727741528 
2.6900000000012523, -0.640329582493323 
2.7000000000012734, -0.6391451028335189 
2.7100000000012945, -0.637890237440819 
2.7200000000013156, -0.6365760530554164 
2.7300000000013367, -0.6352746620757495 
2.740000000001358, -0.6341254456250824 
2.750000000001379, -0.6332655681500012 
2.7600000000014, -0.632750085962068 
2.770000000001421, -0.6325376917202381 
2.780000000001442, -0.6325338488459309 
2.7900000000014633, -0.6326398017506345 
2.8000000000014844, -0.6327789262417399 
2.8100000000015055, -0.6329016341617113 
2.8200000000015266, -0.6329796460922547 
2.8300000000015477, -0.6329977902700541 
2.840000000001569, -0.632946966403877 
2.85000000000159, -0.6328191779499731 
2.860000000001611, -0.6326045602682077 
2.870000000001632, -0.6322903383133597 
2.8800000000016532, -0.6318619911541323 
2.8900000000016743, -0.6313070019036362 
2.9000000000016954, -0.630620813611831 
2.9100000000017165, -0.6298128243980582 
2.9200000000017377, -0.6289086901473601 
2.9300000000017588, -0.6279462226674938 
2.94000000000178, -0.626966233116528 
2.950000000001801, -0.6260033054897738 
2.960000000001822, -0.6250810348984327 
2.970000000001843, -0.6242126343534229 
2.9800000000018643, -0.6234047602763948 
2.9900000000018854, -0.62266186201577 
3.0000000000019065, -0.6219894919943463 
3.0100000000019276, -0.621396279640052 
3.0200000000019487, -0.6208949099087449 
3.03000000000197, -0.6205025136601348 
3.040000000001991, -0.6202407159234588 
3.050000000002012, -0.6201354411890982 
3.060000000002033, -0.620216498174616 
3.070000000002054, -0.6205168969388238 
3.0800000000020753, -0.6210716855359455 
3.0900000000020964, -0.6219157471762852 
3.1000000000021175, -0.6230794795608277 
3.1100000000021386, -0.6245808313784023 
3.1200000000021597, -0.6264125236352884 
3.130000000002181, -0.6285257373601046 
3.140000000002202, -0.6308170086374115 
3.150000000002223, -0.6331309554214275 
3.160000000002244, -0.6352892381012201 
3.1700000000022652, -0.6371390089077005 
3.1800000000022863, -0.6385940014915363 
3.1900000000023074, -0.6396436866190516 
3.2000000000023285, -0.6403315814502947 
3.2100000000023496, -0.6407233705483171 
3.2200000000023707, -0.6408825068382222 
3.230000000002392, -0.6408579162953304 
3.240000000002413, -0.6406802035905758 
3.250000000002434, -0.6403614249733736 
3.260000000002455, -0.6398950574920781 
3.2700000000024763, -0.6392544160501303 
3.2800000000024974, -0.6383888372652048 
3.2900000000025185, -0.637218018228835 
3.3000000000025396, -0.6356271348411265 
3.3100000000025607, -0.6334702060863768 
3.3200000000025818, -0.6305962163934652 
3.330000000002603, -0.6269134189501104 
3.340000000002624, -0.6224828824209648 
3.350000000002645, -0.6175801454353421 
3.360000000002666, -0.6126456370495789 
3.3700000000026873, -0.6081284349255754 
3.3800000000027084, -0.6043340700800772 
3.3900000000027295, -0.6013718789389159 
3.4000000000027506, -0.5991958027322847 
3.4100000000027717, -0.5976773858415915 
3.420000000002793, -0.596665621508989 
3.430000000002814, -0.596021161851172 
3.440000000002835, -0.5956300856001189 
3.450000000002856, -0.5954058181724748 
3.460000000002877, -0.5952856451912141 
3.4700000000028983, -0.5952255397948893 
3.4800000000029194, -0.5951951535576885 
3.4900000000029405, -0.5951737860035906 
3.5000000000029616, -0.5951476313911306 
3.5100000000029827, -0.5951083056215374 
3.520000000003004, -0.5950523507465497 
3.530000000003025, -0.5949810081367655 
3.540000000003046, -0.5948992360776602 
3.550000000003067, -0.5948131889349577 
3.5600000000030882, -0.5947264441291875 
3.5700000000031094, -0.5946366143134059 
3.5800000000031305, -0.5945344197160412 
3.5900000000031516, -0.5944061122432397 
3.6000000000031727, -0.5942380440011802 
3.6100000000031938, -0.5940208704413431 
3.620000000003215, -0.5937514868591643 
3.630000000003236, -0.5934326267473987 
3.640000000003257, -0.5930714450845128 
3.650000000003278, -0.5926785834959036 
3.6600000000032993, -0.5922686585452202 
3.6700000000033204, -0.5918625847807142 
3.6800000000033415, -0.5914919116368612 
3.6900000000033626, -0.5912052346337984 
3.7000000000033837, -0.5910763360615274 
3.710000000003405, -0.5912124631111586 
3.720000000003426, -0.5917583593468814 
3.730000000003447, -0.5928869613867469 
3.740000000003468, -0.5947630247368145 
3.750000000003489, -0.5974696882262511 
3.7600000000035103, -0.6009150359845546 
3.7700000000035314, -0.6047851604757063 
3.7800000000035525, -0.6086232309039696 
3.7900000000035736, -0.6120163628816416 
3.8000000000035947, -0.6147464872850396 
3.810000000003616, -0.6167986299656635 
3.820000000003637, -0.6182724112954502 
3.830000000003658, -0.6192956721515483 
3.840000000003679, -0.6199808542919224 
3.8500000000037002, -0.6204135239911691 
3.8600000000037213, -0.6206541786288623 
3.8700000000037424, -0.6207429143217059 
3.8800000000037635, -0.6207033794458392 
3.8900000000037847, -0.6205453264245816 
3.9000000000038058, -0.6202660016428412 
3.910000000003827, -0.6198510445196199 
3.920000000003848, -0.6192760992610017 
3.930000000003869, -0.6185109965469068 
3.94000000000389, -0.6175284682632616 
3.9500000000039113, -0.6163175182404873 
3.9600000000039324, -0.61489705593239 
3.9700000000039535, -0.613321159233978 
3.9800000000039746, -0.6116696383411098 
3.9900000000039957, -0.6100275395769397 
4.000000000004016, -0.6084653730734308 
4.010000000003993, -0.6070295150036598 
4.02000000000397, -0.6057434906352412 
4.030000000003946, -0.6046150191434589 
4.040000000003923, -0.6036436132679286 
4.0500000000039, -0.6028261180217587 
4.0600000000038765, -0.6021598087777125 
4.070000000003853, -0.6016436806583785 
4.08000000000383, -0.6012787156102066 
4.090000000003807, -0.6010677319160009 
4.100000000003783, -0.6010151901025615 
4.11000000000376, -0.6011271273661312 
4.120000000003737, -0.6014112028506722 
4.130000000003713, -0.601876619236604 
4.14000000000369, -0.6025334118912732 
4.150000000003667, -0.6033902819149409 
4.1600000000036434, -0.6044499523875462 
4.17000000000362, -0.6057013912819219 
4.180000000003597, -0.6071098894736403 
4.1900000000035735, -0.6086092357640169 
4.20000000000355, -0.6101033558238134 
4.210000000003527, -0.6114830824106424 
4.220000000003504, -0.6126540391421338 
4.23000000000348, -0.6135607210227915 
4.240000000003457, -0.6141928820300553 
4.250000000003434, -0.6145739444475053 
4.26000000000341, -0.6147423211929731 
4.270000000003387, -0.6147359452390919 
4.280000000003364, -0.6145834704028046 
4.2900000000033405, -0.6143006029196225 
4.300000000003317, -0.6138887345773217 
4.310000000003294, -0.6133336558830048 
4.320000000003271, -0.6126029966558744 
4.330000000003247, -0.6116417165306784 
4.340000000003224, -0.6103658655182033 
4.350000000003201, -0.60865712977675 
4.360000000003177, -0.6063661801492848 
4.370000000003154, -0.6033415079419954 
4.380000000003131, -0.5995020679646433 
4.390000000003107, -0.5949416021040291 
4.400000000003084, -0.5899878880425501 
4.410000000003061, -0.5851260494029289 
4.4200000000030375, -0.5808105189500341 
4.430000000003014, -0.5773088552698622 
4.440000000002991, -0.5746731730035407 
4.450000000002968, -0.572807379289517 
4.460000000002944, -0.5715525070925753 
4.470000000002921, -0.5707460459391547 
4.480000000002898, -0.5702501346166619 
4.490000000002874, -0.5699590361957662 
4.500000000002851, -0.5697965069676526 
4.510000000002828, -0.5697096875243699 
4.520000000002804, -0.5696627763088211 
4.530000000002781, -0.5696318017231768 
4.540000000002758, -0.5696008915348781 
4.5500000000027345, -0.5695600519690818 
4.560000000002711, -0.5695042419332046 
4.570000000002688, -0.5694332261286471 
4.580000000002665, -0.5693512979936635 
4.590000000002641, -0.5692657960913985 
4.600000000002618, -0.5691838844003803 
4.610000000002595, -0.5691083800694519 
4.620000000002571, -0.5690346537231971 
4.630000000002548, -0.5689506112786659 
4.640000000002525, -0.5688401422761281 
4.6500000000025015, -0.5686882550381362 
4.660000000002478, -0.5684851763778788 
4.670000000002455, -0.5682277597580475 
4.6800000000024315, -0.5679185299905362 
4.690000000002408, -0.5675639006753378 
4.700000000002385, -0.5671730310092307 
4.710000000002362, -0.5667581368704115 
4.720000000002338, -0.5663365737390247 
4.730000000002315, -0.565934840422903 
4.740000000002292, -0.5655945633803875 
4.750000000002268, -0.5653800531861511 
4.760000000002245, -0.5653855149033027 
4.770000000002222, -0.5657366328354793 
4.7800000000021985, -0.566576007051487 
4.790000000002175, -0.5680187300145441 
4.800000000002152, -0.5700757228371371 
4.810000000002129, -0.5725822302912372 
4.820000000002105, -0.5752120124262105 
4.830000000002082, -0.5776160032934559 
4.840000000002059, -0.5795846335047167 
4.850000000002035, -0.5810898266874932 
4.860000000002012, -0.5822078467871867 
4.870000000001989, -0.583031866381726 
4.880000000001965, -0.5836336685900608 
4.890000000001942, -0.5840615078477663 
4.900000000001919, -0.5843479049669807 
4.9100000000018955, -0.5845155849632823 
4.920000000001872, -0.5845801375392847 
