t, s[1].omega / s[0].omega 
0, -0.6399977132107828 
0.009999999999999995, -0.6397616826098721 
0.019999999999999934, -0.639508267393753 
0.029999999999999874, -0.6392305573521682 
0.04000000000000012, -0.6389211997586247 
0.050000000000000405, -0.6385759770805381 
0.06000000000000069, -0.6381957669876669 
0.07000000000000098, -0.637786878604157 
0.08000000000000126, -0.6373608492951597 
0.09000000000000155, -0.6369348766378842 
0.10000000000000184, -0.6365335710016305 
0.11000000000000212, -0.6361921974180218 
0.12000000000000241, -0.6359612001134979 
0.130000000000002, -0.6359114332509435 
0.1400000000000009, -0.6361389351137758 
0.1499999999999998, -0.6367670637673276 
0.1599999999999987, -0.6379421846048726 
0.1699999999999976, -0.6398169901238205 
0.1799999999999965, -0.6425143051896407 
0.1899999999999954, -0.6460682001740802 
0.1999999999999943, -0.6503555530172321 
0.2099999999999932, -0.6550600506109691 
0.2199999999999921, -0.659724249970705 
0.229999999999991, -0.6638965956254903 
0.2399999999999899, -0.667287004802924 
0.2499999999999888, -0.6698234301926778 
0.2599999999999877, -0.6715961931653879 
0.2699999999999866, -0.6727632560277257 
0.2799999999999855, -0.6734807060549879 
0.2899999999999844, -0.6738723251260751 
0.2999999999999833, -0.6740243272239533 
0.3099999999999822, -0.6739899125880743 
0.3199999999999811, -0.6737950339832888 
0.32999999999998, -0.6734420151260594 
0.3399999999999789, -0.6729102102202253 
0.3499999999999778, -0.6721541032363098 
0.35999999999997667, -0.6711005540069321 
0.36999999999997557, -0.669649424359182 
0.37999999999997447, -0.6676856434167894 
0.38999999999997337, -0.6651125211931915 
0.39999999999997227, -0.6619071081058737 
0.40999999999997117, -0.6581734682297419 
0.41999999999997006, -0.6541491894058193 
0.42999999999996896, -0.6501429422900789 
0.43999999999996786, -0.6464384945481867 
0.44999999999996676, -0.643225761471828 
0.45999999999996566, -0.6405858165407603 
0.46999999999996456, -0.6385140840710136 
0.47999999999996346, -0.636954362818414 
0.48999999999996235, -0.6358271866719275 
0.49999999999996125, -0.6350483207536746 
0.5099999999999602, -0.6345390685324348 
0.519999999999959, -0.6342311731217654 
0.529999999999958, -0.6340684562028509 
0.5399999999999568, -0.6340065599129143 
0.5499999999999557, -0.6340116732271961 
0.5599999999999546, -0.6340588779168355 
0.5699999999999535, -0.6341305852123246 
0.5799999999999524, -0.6342153254256121 
0.5899999999999513, -0.6343068249992856 
0.5999999999999502, -0.6344028999861246 
0.6099999999999491, -0.6345034708922094 
0.619999999999948, -0.6346073728158256 
0.6299999999999469, -0.6347087185882826 
0.6399999999999458, -0.6347947047529441 
0.6499999999999447, -0.6348467200381023 
0.6599999999999436, -0.634844854789715 
0.6699999999999425, -0.6347735469038276 
0.6799999999999414, -0.6346253024112035 
0.6899999999999403, -0.6344010407647702 
0.6999999999999392, -0.6341080207503792 
0.7099999999999381, -0.6337574388581737 
0.719999999999937, -0.6333633789873445 
0.7299999999999359, -0.6329439014715413 
0.7399999999999348, -0.6325245252378269 
0.7499999999999337, -0.6321442302153714 
0.7599999999999326, -0.6318639923236902 
0.7699999999999315, -0.6317772181911859 
0.7799999999999304, -0.6320196068307649 
0.7899999999999293, -0.6327722141351184 
0.7999999999999282, -0.634245859438136 
0.8099999999999271, -0.6366308687933502 
0.819999999999926, -0.6400044079572871 
0.8299999999999249, -0.644223854429955 
0.8399999999999238, -0.6488889663677956 
0.8499999999999227, -0.6534536898439572 
0.8599999999999216, -0.6574451840210566 
0.8699999999999205, -0.6606238867083644 
0.8799999999999194, -0.6629826729624626 
0.8899999999999183, -0.6646453011562863 
0.8999999999999172, -0.6657690128443374 
0.9099999999999161, -0.666493174894931 
0.919999999999915, -0.6669238840096288 
0.9299999999999139, -0.6671349511097696 
0.9399999999999128, -0.6671733004216382 
0.9499999999999117, -0.667063892133528 
0.9599999999999106, -0.6668127574404789 
0.9699999999999095, -0.6664081292740418 
0.9799999999999084, -0.665820434105812 
0.9899999999999073, -0.6650029336730149 
0.9999999999999062, -0.6638963363025498 
1.0099999999999052, -0.6624418339132526 
1.019999999999904, -0.6606048905372002 
1.029999999999903, -0.6584036644693229 
1.039999999999902, -0.6559250219333681 
1.0499999999999008, -0.6533117612935281 
1.0599999999998997, -0.6507241881148753 
1.0699999999998986, -0.6482991946543202 
1.0799999999998975, -0.6461279748970463 
1.0899999999998964, -0.6442554792924089 
1.0999999999998953, -0.6426918946647342 
1.1099999999998942, -0.6414259460602096 
1.119999999999893, -0.6404349943074157 
1.129999999999892, -0.6396912292826575 
1.1399999999998909, -0.6391650844604585 
1.1499999999998898, -0.6388271692367329 
1.1599999999998887, -0.6386495714385179 
1.1699999999998876, -0.6386069023687619 
1.1799999999998865, -0.6386771487894991 
1.1899999999998854, -0.6388422708057551 
1.1999999999998843, -0.6390884575135218 
1.2099999999998832, -0.6394059100257254 
1.219999999999882, -0.6397878937842965 
1.229999999999881, -0.6402286583233642 
1.2399999999998799, -0.640719939545886 
1.2499999999998788, -0.6412464972115438 
1.2599999999998777, -0.6417824871072403 
1.2699999999998766, -0.6422914966197613 
1.2799999999998755, -0.6427321592230253 
1.2899999999998744, -0.6430678439537114 
1.2999999999998733, -0.6432754309797716 
1.3099999999998722, -0.6433484143316395 
1.319999999999871, -0.6432936895276863 
1.32999999999987, -0.6431252322787085 
1.3399999999998689, -0.6428583879226984 
1.3499999999998678, -0.6425066953970288 
1.3599999999998666, -0.6420814802354741 
1.3699999999998655, -0.6415938851521267 
1.3799999999998644, -0.641059237655583 
1.3899999999998633, -0.6405040131569143 
1.3999999999998622, -0.6399754851803071 
1.4099999999998611, -0.6395526297252692 
1.41999999999986, -0.6393529231231012 
1.429999999999859, -0.6395233277511929 
1.4399999999998578, -0.6402000100016665 
1.4499999999998567, -0.6414345592992329 
1.4599999999998556, -0.6431263597642425 
1.4699999999998545, -0.6450360425313125 
1.4799999999998534, -0.6469005353181241 
1.4899999999998523, -0.6485511686918415 
1.4999999999998512, -0.6499339141903542 
1.5099999999998501, -0.6510571123901849 
1.519999999999849, -0.6519449757713586 
1.529999999999848, -0.6526220112694087 
1.5399999999998468, -0.6531123213323826 
1.5499999999998457, -0.6534397206850818 
1.5599999999998446, -0.6536258243310203 
1.5699999999998435, -0.6536874711458145 
1.5799999999998424, -0.6536345579078853 
1.5899999999998413, -0.6534684757043969 
1.5999999999998402, -0.6531810744525516 
1.6099999999998391, -0.6527544113528978 
1.619999999999838, -0.6521622478214113 
1.629999999999837, -0.6513749549947623 
1.6399999999998358, -0.6503692250105331 
1.6499999999998347, -0.6491414380566288 
1.6599999999998336, -0.6477189307069312 
1.6699999999998325, -0.6461609472909955 
1.6799999999998314, -0.6445459564375842 
1.6899999999998303, -0.6429518381824064 
1.6999999999998292, -0.6414400921701089 
1.709999999999828, -0.6400503057346734 
1.719999999999827, -0.6388033064173748 
1.729999999999826, -0.6377078728676461 
1.7399999999998248, -0.6367669169970004 
1.7499999999998237, -0.6359814877004604 
1.7599999999998226, -0.6353526481448484 
1.7699999999998215, -0.6348819263798576 
1.7799999999998204, -0.6345710708661941 
1.7899999999998193, -0.6344216617242407 
1.7999999999998182, -0.6344349124059332 
1.809999999999817, -0.6346117804765476 
1.819999999999816, -0.6349532848075452 
1.8299999999998149, -0.6354606933406229 
1.8399999999998138, -0.636135001145907 
1.8499999999998127, -0.6369749076101641 
1.8599999999998116, -0.6379725156650771 
1.8699999999998105, -0.6391066481739699 
1.8799999999998094, -0.6403355006055274 
1.8899999999998083, -0.6415930398709966 
1.8999999999998072, -0.642794832441701 
1.909999999999806, -0.6438552381129172 
1.919999999999805, -0.6447092659303578 
1.9299999999998039, -0.645326739410591 
1.9399999999998028, -0.6457114174138749 
1.9499999999998017, -0.64588866686339 
1.9599999999998006, -0.6458907956870001 
1.9699999999997995, -0.6457463989474042 
1.9799999999997984, -0.6454749189542447 
1.9899999999997973, -0.6450847754819464 
1.9999999999997962, -0.6445731004640408 
2.0099999999998173, -0.6439258121807143 
2.0199999999998384, -0.6431174623843986 
2.0299999999998595, -0.6421106600280618 
2.0399999999998806, -0.6408549505330777 
2.0499999999999017, -0.6392853006593395 
2.059999999999923, -0.6373225842062102 
2.069999999999944, -0.6348857811944112 
2.079999999999965, -0.6319351806570753 
2.089999999999986, -0.6285529434316462 
2.100000000000007, -0.6250053528698157 
2.1100000000000283, -0.6216874797546478 
2.1200000000000494, -0.6189504027402102 
2.1300000000000705, -0.6169556189096679 
2.1400000000000916, -0.615664518267908 
2.1500000000001127, -0.6149235687895678 
2.160000000000134, -0.6145547446095686 
2.170000000000155, -0.6144069802690417 
2.180000000000176, -0.6143713174885292 
2.190000000000197, -0.6143766697811566 
2.2000000000002182, -0.6143793362942217 
2.2100000000002393, -0.6143527472244961 
2.2200000000002604, -0.6142796100833684 
2.2300000000002815, -0.6141467339709641 
2.2400000000003026, -0.6139423263269241 
2.2500000000003237, -0.6136556369856605 
2.260000000000345, -0.6132788447562236 
2.270000000000366, -0.6128105597206874 
2.280000000000387, -0.6122591938074662 
2.290000000000408, -0.611643627494433 
2.3000000000004293, -0.6109895491610183 
2.3100000000004504, -0.6103226847374724 
2.3200000000004715, -0.6096625227452949 
2.3300000000004926, -0.6090197025760652 
2.3400000000005137, -0.6083975587154521 
2.3500000000005348, -0.6077959790953286 
2.360000000000556, -0.6072153047390272 
2.370000000000577, -0.6066590454284349 
2.380000000000598, -0.6061354376507718 
2.390000000000619, -0.605658489515575 
2.4000000000006403, -0.6052491133782159 
2.4100000000006614, -0.6049366155199031 
2.4200000000006825, -0.6047604943177068 
2.4300000000007036, -0.6047722727291812 
2.4400000000007247, -0.6050368871859824 
2.450000000000746, -0.6056328299862017 
2.460000000000767, -0.6066496118309479 
2.470000000000788, -0.6081800410993293 
2.480000000000809, -0.6103035725107268 
2.49000000000083, -0.6130570336765268 
2.5000000000008513, -0.616393934102078 
2.5100000000008724, -0.6201471522141412 
2.5200000000008935, -0.6240271870560348 
2.5300000000009146, -0.6276852496002585 
2.5400000000009357, -0.6308247425373547 
2.550000000000957, -0.6332911106963083 
2.560000000000978, -0.6350825857442877 
2.570000000000999, -0.6362952139031142 
2.58000000000102, -0.6370562471588601 
2.5900000000010412, -0.6374811549235391 
2.6000000000010624, -0.6376569465220264 
2.6100000000010835, -0.6376405949959746 
2.6200000000011046, -0.6374625151983366 
2.6300000000011257, -0.6371297744177344 
2.6400000000011468, -0.6366270169097432 
2.650000000001168, -0.6359147913510541 
2.660000000001189, -0.634926282638098 
2.67000000000121, -0.6335656705557902 
2.680000000001231, -0.6317152339182815 
2.6900000000012523, -0.6292620375151149 
2.7000000000012734, -0.6261507358946792 
2.7100000000012945, -0.6224466779569926 
2.7200000000013156, -0.6183635669822366 
2.7300000000013367, -0.6142160718527686 
2.740000000001358, -0.6103177243666715 
2.750000000001379, -0.6068925073522957 
2.7600000000014, -0.6040454458761009 
2.770000000001421, -0.601783333750524 
2.780000000001442, -0.6000532109213376 
2.7900000000014633, -0.5987757530397876 
2.8000000000014844, -0.597866685042824 
2.8100000000015055, -0.5972479764064598 
2.8200000000015266, -0.5968525544682276 
2.8300000000015477, -0.5966254985784267 
2.840000000001569, -0.596523507912764 
2.85000000000159, -0.5965136199833578 
2.860000000001611, -0.5965717187580111 
2.870000000001632, -0.5966811437782352 
2.8800000000016532, -0.5968315303729738 
2.8900000000016743, -0.5970177646484205 
2.9000000000016954, -0.5972386159048697 
2.9100000000017165, -0.5974943910655299 
2.9200000000017377, -0.5977832069777514 
2.9300000000017588, -0.5980964677299296 
2.94000000000178, -0.598415524205683 
2.950000000001801, -0.5987121117193981 
2.960000000001822, -0.5989537353923503 
2.970000000001843, -0.5991119623712876 
2.9800000000018643, -0.5991691960128271 
2.9900000000018854, -0.5991205464151877 
3.0000000000019065, -0.5989709636580078 
3.0100000000019276, -0.5987304024052278 
3.0200000000019487, -0.5984097495053644 
3.03000000000197, -0.598018797665439 
3.040000000001991, -0.5975663933282999 
3.050000000002012, -0.597062554546789 
3.060000000002033, -0.5965224963594842 
3.070000000002054, -0.5959725521491128 
3.0800000000020753, -0.5954573043896358 
3.0900000000020964, -0.5950450245765515 
3.1000000000021175, -0.5948242373988966 
3.1100000000021386, -0.5948800348116794 
3.1200000000021597, -0.5952442023703995 
3.130000000002181, -0.5958425372763634 
3.140000000002202, -0.5965019287221751 
3.150000000002223, -0.5970527233669578 
3.160000000002244, -0.5974413813425299 
3.1700000000022652, -0.5977295886085205 
3.1800000000022863, -0.5980008514659456 
3.1900000000023074, -0.5982921456743187 
3.2000000000023285, -0.5985929399223352 
3.2100000000023496, -0.5988736049482093 
3.2200000000023707, -0.5991071680231702 
3.230000000002392, -0.5992767170628521 
3.240000000002413, -0.5993741025511934 
3.250000000002434, -0.599395850702364 
3.260000000002455, -0.5993392521476701 
3.2700000000024763, -0.5991995634363465 
3.2800000000024974, -0.5989685358440482 
3.2900000000025185, -0.5986345272522688 
3.3000000000025396, -0.598184700283842 
3.3100000000025607, -0.5976096699428195 
3.3200000000025818, -0.5969098452515837 
3.330000000002603, -0.5961007267175693 
3.340000000002624, -0.5952133053249185 
3.350000000002645, -0.5942877561620152 
3.360000000002666, -0.593363204724801 
3.3700000000026873, -0.5924691725245752 
3.3800000000027084, -0.5916225635193375 
3.3900000000027295, -0.5908299783048356 
3.4000000000027506, -0.5900925702250324 
3.4100000000027717, -0.5894107406023097 
3.420000000002793, -0.5887874199412518 
3.430000000002814, -0.5882299829323512 
3.440000000002835, -0.5877513876093532 
3.450000000002856, -0.5873710737207711 
3.460000000002877, -0.5871158864687894 
3.4700000000028983, -0.5870210545749528 
3.4800000000029194, -0.5871310912037035 
3.4900000000029405, -0.5875003214333688 
3.5000000000029616, -0.5881924274103545 
3.5100000000029827, -0.5892777797831737 
3.520000000003004, -0.5908263206179732 
3.530000000003025, -0.592892734119646 
3.540000000003046, -0.595491054831278 
3.550000000003067, -0.5985608322776056 
3.5600000000030882, -0.6019391450275922 
3.5700000000031094, -0.6053661414824237 
3.5800000000031305, -0.6085450509753108 
3.5900000000031516, -0.6112363702687053 
3.6000000000031727, -0.6133260960644409 
3.6100000000031938, -0.6148263856828561 
3.620000000003215, -0.6158259197221213 
3.630000000003236, -0.6164348509884753 
3.640000000003257, -0.6167506300314494 
3.650000000003278, -0.6168451625969328 
3.6600000000032993, -0.6167637456675519 
3.6700000000033204, -0.6165276640321096 
3.6800000000033415, -0.616136187877178 
3.6900000000033626, -0.6155663722625696 
3.7000000000033837, -0.6147705861716185 
3.710000000003405, -0.6136732438858231 
3.720000000003426, -0.612171002319552 
3.730000000003447, -0.6101450062755714 
3.740000000003468, -0.6074960899597575 
3.750000000003489, -0.604204244822314 
3.7600000000035103, -0.6003854554727572 
3.7700000000035314, -0.5962954128135816 
3.7800000000035525, -0.5922567291420082 
3.7900000000035736, -0.588553535380137 
3.8000000000035947, -0.5853626195689497 
3.810000000003616, -0.582746470947901 
3.820000000003637, -0.5806850453392254 
3.830000000003658, -0.5791142905999637 
3.840000000003679, -0.5779548461125322 
3.8500000000037002, -0.5771285244768124 
3.8600000000037213, -0.576565934035094 
3.8700000000037424, -0.5762090383471526 
3.8800000000037635, -0.5760112422788234 
3.8900000000037847, -0.575936437095265 
3.9000000000038058, -0.5759577181660595 
3.910000000003827, -0.5760561189080476 
3.920000000003848, -0.5762195029300385 
3.930000000003869, -0.5764415702408108 
3.94000000000389, -0.5767206771163955 
3.9500000000039113, -0.5770578853328039 
3.9600000000039324, -0.5774535898796244 
3.9700000000039535, -0.5779026150050963 
3.9800000000039746, -0.5783889996118148 
3.9900000000039957, -0.5788832428568204 
4.000000000004016, -0.5793450240312554 
4.010000000003993, -0.5797319022737136 
4.02000000000397, -0.5800101961368157 
4.030000000003946, -0.5801620908119655 
4.040000000003923, -0.5801857124704748 
4.0500000000039, -0.580089783292514 
4.0600000000038765, -0.5798868622732136 
4.070000000003853, -0.5795881287697556 
4.08000000000383, -0.5792005317426305 
4.090000000003807, -0.578725827841033 
4.100000000003783, -0.5781607572033344 
4.11000000000376, -0.5774977533385189 
4.120000000003737, -0.5767255751314505 
4.130000000003713, -0.5758286862076192 
4.14000000000369, -0.5747830155703614 
4.150000000003667, -0.5735452294212765 
4.1600000000036434, -0.5720377752773911 
4.17000000000362, -0.5701496669279889 
4.180000000003597, -0.567792026876474 
4.1900000000035735, -0.5650132445409309 
4.20000000000355, -0.562071465278819 
4.210000000003527, -0.5593426563526418 
4.220000000003504, -0.5571254845446785 
4.23000000000348, -0.5555268113782788 
4.240000000003457, -0.554488566870829 
4.250000000003434, -0.5538759824675297 
4.26000000000341, -0.5535483653399809 
4.270000000003387, -0.5533918821048426 
4.280000000003364, -0.5533258355628841 
4.2900000000033405, -0.5532972434230258 
4.300000000003317, -0.5532726347471668 
4.310000000003294, -0.5532308154341987 
4.320000000003271, -0.553157665623971 
4.330000000003247, -0.5530430345981545 
4.340000000003224, -0.5528795763132147 
4.350000000003201, -0.5526632924470993 
4.360000000003177, -0.5523952201144577 
4.370000000003154, -0.5520830396231734 
4.380000000003131, -0.5517408817795368 
4.390000000003107, -0.5513861853762791 
4.400000000003084, -0.5510343225600282 
4.410000000003061, -0.5506935734420066 
4.4200000000030375, -0.550363150720423 
4.430000000003014, -0.5500351410828148 
4.440000000002991, -0.5496989429366379 
4.450000000002968, -0.5493457184092007 
4.460000000002944, -0.5489710700752655 
4.470000000002921, -0.548575747842859 
4.480000000002898, -0.5481653856162474 
4.490000000002874, -0.5477505046018353 
4.500000000002851, -0.5473476620979619 
4.510000000002828, -0.5469822288404803 
4.520000000002804, -0.5466930605139094 
4.530000000002781, -0.546539146906978 
4.540000000002758, -0.5466077985447606 
4.5500000000027345, -0.5470224504868593 
4.560000000002711, -0.5479448578826112 
4.570000000002688, -0.5495608155054784 
4.580000000002665, -0.5520330924936754 
4.590000000002641, -0.555411252083991 
4.600000000002618, -0.5595252075711544 
4.610000000002595, -0.5639523879399675 
4.620000000002571, -0.5681494976509791 
4.630000000002548, -0.5716916263940888 
4.640000000002525, -0.5744191177686827 
4.6500000000025015, -0.5763954350595648 
4.660000000002478, -0.5777778258138795 
4.670000000002455, -0.5787225851088176 
4.6800000000024315, -0.5793506752267407 
4.690000000002408, -0.579746724765508 
4.700000000002385, -0.5799672431567354 
4.710000000002362, -0.5800482402527941 
4.720000000002338, -0.5800102949235681 
4.730000000002315, -0.5798615224050241 
4.740000000002292, -0.5795993177867483 
4.750000000002268, -0.5792118918683666 
4.760000000002245, -0.5786809078610485 
4.770000000002222, -0.577986738673658 
4.7800000000021985, -0.5771171818311268 
4.790000000002175, -0.5760779852931635 
4.800000000002152, -0.5748999860738271 
4.810000000002129, -0.5736367917422633 
4.820000000002105, -0.5723520799629855 
4.830000000002082, -0.5711032658137407 
4.840000000002059, -0.5699304604606757 
4.850000000002035, -0.568854534482581 
4.860000000002012, -0.5678819113921586 
4.870000000001989, -0.5670115335158898 
4.880000000001965, -0.5662407827914336 
4.890000000001942, -0.5655693040126769 
4.900000000001919, -0.5650010536667983 
4.9100000000018955, -0.5645453071162225 
4.920000000001872, -0.5642172289751992 
