t, s[1].omega / s[0].omega 
0, -0.9499975807141151 
0.009999999999999995, -0.9496999053509209 
0.019999999999999934, -0.9492940402064403 
0.029999999999999874, -0.9487871038077899 
0.04000000000000012, -0.9481925843180466 
0.050000000000000405, -0.9475317867359235 
0.06000000000000069, -0.9468347610301449 
0.07000000000000098, -0.9461404678150002 
0.08000000000000126, -0.9454954315609301 
0.09000000000000155, -0.9449496278589814 
0.10000000000000184, -0.9445490655212756 
0.11000000000000212, -0.9443265909015187 
0.12000000000000241, -0.9442943282757572 
0.130000000000002, -0.9444410472289004 
0.1400000000000009, -0.944735488832164 
0.1499999999999998, -0.9451339317058018 
0.1599999999999987, -0.9455887776122323 
0.1699999999999976, -0.9460552921354111 
0.1799999999999965, -0.9464952027395752 
0.1899999999999954, -0.9468774143201572 
0.1999999999999943, -0.9471769429902686 
0.2099999999999932, -0.9473734661419806 
0.2199999999999921, -0.9474508811902813 
0.229999999999991, -0.9473986181519889 
0.2399999999999899, -0.9472140577310146 
0.2499999999999888, -0.946904388710729 
0.2599999999999877, -0.9464868546568589 
0.2699999999999866, -0.9459880054421476 
0.2799999999999855, -0.9454433583193419 
0.2899999999999844, -0.944897876288611 
0.2999999999999833, -0.9444057659428114 
0.3099999999999822, -0.944026947246889 
0.3199999999999811, -0.9438185835435329 
0.32999999999998, -0.9438233390155105 
0.3399999999999789, -0.9440592362925901 
0.3499999999999778, -0.9445159637000309 
0.35999999999997667, -0.9451588885055877 
0.36999999999997557, -0.9459379818724531 
0.37999999999997447, -0.9467972892592874 
0.38999999999997337, -0.9476816792851137 
0.39999999999997227, -0.9485398704084309 
0.40999999999997117, -0.9493248273956925 
0.41999999999997006, -0.9499938632954853 
0.42999999999996896, -0.9505106827693943 
0.43999999999996786, -0.9508497855697643 
0.44999999999996676, -0.9510009890554727 
0.45999999999996566, -0.95097084082913 
0.46999999999996456, -0.9507798861981296 
0.47999999999996346, -0.9504580886603016 
0.48999999999996235, -0.9500419036383378 
0.49999999999996125, -0.9495749355901489 
0.5099999999999602, -0.9491113803091362 
0.519999999999959, -0.9487189438819416 
0.529999999999958, -0.948476575093405 
0.5399999999999568, -0.9484637181438774 
0.5499999999999557, -0.9487428332180002 
0.5599999999999546, -0.9493427761642907 
0.5699999999999535, -0.9502514994204369 
0.5799999999999524, -0.9514206852985904 
0.5899999999999513, -0.9527777711342637 
0.5999999999999502, -0.9542384000270158 
0.6099999999999491, -0.9557150369230408 
0.619999999999948, -0.9571219153064344 
0.6299999999999469, -0.9583795092855046 
0.6399999999999458, -0.9594216005895166 
0.6499999999999447, -0.9602044782775959 
0.6599999999999436, -0.9607135398065854 
0.6699999999999425, -0.9609623197903874 
0.6799999999999414, -0.9609839892027214 
0.6899999999999403, -0.9608206202315758 
0.6999999999999392, -0.9605161177773361 
0.7099999999999381, -0.9601156235826023 
0.719999999999937, -0.9596709137267565 
0.7299999999999359, -0.959248981673664 
0.7399999999999348, -0.958938707969612 
0.7499999999999337, -0.9588485778453497 
0.7599999999999326, -0.9590900830520566 
0.7699999999999315, -0.9597495496975714 
0.7799999999999304, -0.9608611946525002 
0.7899999999999293, -0.9623956122173695 
0.7999999999999282, -0.9642674399875446 
0.8099999999999271, -0.9663541149529415 
0.819999999999926, -0.9685151986759856 
0.8299999999999249, -0.9706078740833466 
0.8399999999999238, -0.9725008633808914 
0.8499999999999227, -0.9740899415733771 
0.8599999999999216, -0.9753129380340526 
0.8699999999999205, -0.9761566239475018 
0.8799999999999194, -0.9766498777482056 
0.8899999999999183, -0.9768464084656345 
0.8999999999999172, -0.9768066510507738 
0.9099999999999161, -0.9765867405031919 
0.919999999999915, -0.9762369312543463 
0.9299999999999139, -0.9758081203268805 
0.9399999999999128, -0.9753638476494499 
0.9499999999999117, -0.9749935841862015 
0.9599999999999106, -0.974819635268042 
0.9699999999999095, -0.9749873509914752 
0.9799999999999084, -0.9756334481211134 
0.9899999999999073, -0.9768424142037949 
0.9999999999999062, -0.9786139088305401 
1.0099999999999052, -0.9808585241832016 
1.019999999999904, -0.9834193332429457 
1.029999999999903, -0.9861036138312121 
1.039999999999902, -0.9887127425876099 
1.0499999999999008, -0.9910683891171195 
1.0599999999998997, -0.9930366478054904 
1.0699999999998986, -0.9945463468053347 
1.0799999999998975, -0.9955927278155581 
1.0899999999998964, -0.9962226793535442 
1.0999999999998953, -0.9965092066725669 
1.1099999999998942, -0.9965281857514163 
1.119999999999893, -0.9963457118794166 
1.129999999999892, -0.9960170105535985 
1.1399999999998909, -0.9955943485828938 
1.1499999999998898, -0.99514106835597 
1.1599999999998887, -0.9947478909659028 
1.1699999999998876, -0.994543553846823 
1.1799999999998865, -0.9946873007515004 
1.1899999999998854, -0.9953345659768438 
1.1999999999998843, -0.9965850872260541 
1.2099999999998832, -0.9984414610802247 
1.219999999999882, -1.0008023529206143 
1.229999999999881, -1.0034892159492592 
1.2399999999998799, -1.0062865376301122 
1.2499999999998788, -1.0089788671169653 
1.2599999999998777, -1.011380735459134 
1.2699999999998766, -1.0133608886055245 
1.2799999999998755, -1.0148575299903542 
1.2899999999998744, -1.0158772392298043 
1.2999999999998733, -1.0164761499111232 
1.3099999999998722, -1.01673276890432 
1.319999999999871, -1.0167253306375819 
1.32999999999987, -1.0165207853202995 
1.3399999999998689, -1.0161754444619413 
1.3499999999998678, -1.0157443567692461 
1.3599999999998666, -1.0152961522658819 
1.3699999999998655, -1.0149283660097008 
1.3799999999998644, -1.0147735991198306 
1.3899999999998633, -1.0149840516128457 
1.3999999999998622, -1.0156907224483709 
1.4099999999998611, -1.016954538900558 
1.41999999999986, -1.018739307424048 
1.429999999999859, -1.020921663552547 
1.4399999999998578, -1.0233259788004259 
1.4499999999998567, -1.025761872978262 
1.4599999999998556, -1.0280523007491635 
1.4699999999998545, -1.0300531163003108 
1.4799999999998534, -1.0316679117474492 
1.4899999999998523, -1.0328565819250497 
1.4999999999998512, -1.033632274954914 
1.5099999999998501, -1.0340457536774756 
1.519999999999849, -1.034164280679052 
1.529999999999848, -1.0340547697624107 
1.5399999999998468, -1.0337766833205986 
1.5499999999998457, -1.0333847939068055 
1.5599999999998446, -1.0329391277930544 
1.5699999999998435, -1.0325176898026451 
1.5799999999998424, -1.0322244535222138 
1.5899999999998413, -1.0321822847675166 
1.5999999999998402, -1.032505098025319 
1.6099999999998391, -1.0332591467051726 
1.619999999999838, -1.0344368945377866 
1.629999999999837, -1.0359598327761947 
1.6399999999998358, -1.0377043676414899 
1.6499999999998347, -1.039532112034367 
1.6599999999998336, -1.0413114968614134 
1.6699999999998325, -1.0429294674983227 
1.6799999999998314, -1.0442983728553714 
1.6899999999998303, -1.0453619435791661 
1.6999999999998292, -1.046099324532569 
1.709999999999828, -1.0465232130396867 
1.719999999999827, -1.0466707333205827 
1.729999999999826, -1.0465909907632436 
1.7399999999998248, -1.0463355215651018 
1.7499999999998237, -1.0459555700925742 
1.7599999999998226, -1.0455062563509272 
1.7699999999998215, -1.0450543588176586 
1.7799999999998204, -1.0446834400293843 
1.7899999999998193, -1.0444884127218532 
1.7999999999998182, -1.044555654824764 
1.809999999999817, -1.0449360108037546 
1.819999999999816, -1.0456270529164322 
1.8299999999998149, -1.0465756627085991 
1.8399999999998138, -1.0476967592489326 
1.8499999999998127, -1.0488952594204761 
1.8599999999998116, -1.0500816638076895 
1.8699999999998105, -1.0511793291744103 
1.8799999999998094, -1.0521264779727812 
1.8899999999998083, -1.052877002600222 
1.8999999999998072, -1.053402279305152 
1.909999999999806, -1.053693199000798 
1.919999999999805, -1.0537598808343223 
1.9299999999998039, -1.0536278529562777 
1.9399999999998028, -1.0533325903985993 
1.9499999999998017, -1.0529158972498114 
1.9599999999998006, -1.0524262143911671 
1.9699999999997995, -1.051921691524529 
1.9799999999997984, -1.0514716136309858 
1.9899999999997973, -1.0511506286621515 
1.9999999999997962, -1.0510237959760915 
2.0099999999998173, -1.051128235130572 
2.0199999999998384, -1.0514620462980182 
2.0299999999998595, -1.051986798850303 
2.0399999999998806, -1.052640578643252 
2.0499999999999017, -1.0533536708609503 
2.059999999999923, -1.0540605953444198 
2.069999999999944, -1.0547063147108457 
2.079999999999965, -1.0552476429562956 
2.089999999999986, -1.0556522866229967 
2.100000000000007, -1.0558978318594665 
2.1100000000000283, -1.0559718860466396 
2.1200000000000494, -1.0558730664400438 
2.1300000000000705, -1.055611561742231 
2.1400000000000916, -1.0552085014280281 
2.1500000000001127, -1.0546948450299003 
2.160000000000134, -1.0541111086684372 
2.170000000000155, -1.053507890995864 
2.180000000000176, -1.0529447982542812 
2.190000000000197, -1.0524844066020824 
2.2000000000002182, -1.0521804235141798 
2.2100000000002393, -1.0520641720697053 
2.2200000000002604, -1.0521362006596413 
2.2300000000002815, -1.0523671319461976 
2.2400000000003026, -1.0527065835125855 
2.2500000000003237, -1.0530955325200526 
2.260000000000345, -1.053477203290652 
2.270000000000366, -1.0538036361332754 
2.280000000000387, -1.054037919483776 
2.290000000000408, -1.0541537670145766 
2.3000000000004293, -1.0541341538255504 
2.3100000000004504, -1.0539700709305861 
2.3200000000004715, -1.0536599660787387 
2.3300000000004926, -1.0532100277491074 
2.3400000000005137, -1.052635017080985 
2.3500000000005348, -1.0519592357305902 
2.360000000000556, -1.051217421237017 
2.370000000000577, -1.0504551021871305 
2.380000000000598, -1.0497269443662955 
2.390000000000619, -1.0490910924176922 
2.4000000000006403, -1.0485990237674956 
2.4100000000006614, -1.0482835796558132 
2.4200000000006825, -1.0481500284786218 
2.4300000000007036, -1.0481743328678077 
2.4400000000007247, -1.0483096426364287 
2.450000000000746, -1.048498027488049 
2.460000000000767, -1.0486820490573656 
2.470000000000788, -1.0488120479164684 
2.480000000000809, -1.0488487363822678 
2.49000000000083, -1.0487632814883898 
2.5000000000008513, -1.0485369151458477 
2.5100000000008724, -1.0481605860216407 
2.5200000000008935, -1.0476343136652513 
2.5300000000009146, -1.0469663071399435 
2.5400000000009357, -1.0461725434325069 
2.550000000000957, -1.0452773497107932 
2.560000000000978, -1.044314761274791 
2.570000000000999, -1.0433296303623654 
2.58000000000102, -1.0423768195175198 
2.5900000000010412, -1.0415166130938656 
2.6000000000010624, -1.0408054600530463 
2.6100000000010835, -1.0402835342886225 
2.6200000000011046, -1.0399633278595555 
2.6300000000011257, -1.039824768580192 
2.6400000000011468, -1.0398202632014164 
2.650000000001168, -1.0398875428041892 
2.660000000001189, -1.0399634220462945 
2.67000000000121, -1.0399923692564816 
2.680000000001231, -1.03992890869299 
2.6900000000012523, -1.0397369733045114 
2.7000000000012734, -1.0393896360422885 
2.7100000000012945, -1.03887038488435 
2.7200000000013156, -1.0381747725557076 
2.7300000000013367, -1.0373107531186105 
2.740000000001358, -1.0362974628855712 
2.750000000001379, -1.0351638131512986 
2.7600000000014, -1.0339482492395846 
2.770000000001421, -1.0326995545338877 
2.780000000001442, -1.0314769895984692 
2.7900000000014633, -1.030347298650232 
2.8000000000014844, -1.0293766196417224 
2.8100000000015055, -1.028617420539415 
2.8200000000015266, -1.0280940796937743 
2.8300000000015477, -1.0277939238069485 
2.840000000001569, -1.027669837883784 
2.85000000000159, -1.027654033475928 
2.860000000001611, -1.0276750573488185 
2.870000000001632, -1.0276692822096236 
2.8800000000016532, -1.0275841029325554 
2.8900000000016743, -1.0273760866874888 
2.9000000000016954, -1.027008998999557 
2.9100000000017165, -1.0264547257087715 
2.9200000000017377, -1.0256969436460206 
2.9300000000017588, -1.0247349083611428 
2.94000000000178, -1.0235846103822714 
2.950000000001801, -1.0222769410523327 
2.960000000001822, -1.0208549696502236 
2.970000000001843, -1.0193724348079658 
2.9800000000018643, -1.0178933783078 
2.9900000000018854, -1.0164906275058505 
3.0000000000019065, -1.0152400956289078 
3.0100000000019276, -1.0142091608025512 
3.0200000000019487, -1.0134408398121333 
3.03000000000197, -1.012940068722758 
3.040000000001991, -1.0126704479862512 
3.050000000002012, -1.0125650561993116 
3.060000000002033, -1.0125455022192806 
3.070000000002054, -1.012538390320533 
3.0800000000020753, -1.0124825461245224 
3.0900000000020964, -1.012328081883478 
3.1000000000021175, -1.0120325854729515 
3.1100000000021386, -1.0115593151325895 
3.1200000000021597, -1.010879569422202 
3.130000000002181, -1.0099781222139665 
3.140000000002202, -1.0088581808262134 
3.150000000002223, -1.007542577773425 
3.160000000002244, -1.0060710048285073 
3.1700000000022652, -1.0044960404876193 
3.1800000000022863, -1.0028805489265433 
3.1900000000023074, -1.0012963352229671 
3.2000000000023285, -0.9998214425246912 
3.2100000000023496, -0.9985329623902126 
3.2200000000023707, -0.9974941461019368 
3.230000000002392, -0.9967386871173172 
3.240000000002413, -0.996259433675706 
3.250000000002434, -0.996009198628616 
3.260000000002455, -0.9959148049199278 
3.2700000000024763, -0.9958965580842205 
3.2800000000024974, -0.9958828114136731 
3.2900000000025185, -0.9958149639357614 
3.3000000000025396, -0.995645330075476 
3.3100000000025607, -0.9953332639834487 
3.3200000000025818, -0.9948438907487305 
3.330000000002603, -0.9941510195379932 
3.340000000002624, -0.9932426614943735 
3.350000000002645, -0.9921254320307247 
3.360000000002666, -0.990824806514734 
3.3700000000026873, -0.9893815454332182 
3.3800000000027084, -0.9878473442440157 
3.3900000000027295, -0.9862822145256436 
3.4000000000027506, -0.9847533112658244 
3.4100000000027717, -0.9833326452288365 
3.420000000002793, -0.9820908444295483 
3.430000000002814, -0.9810859567319994 
3.440000000002835, -0.9803497605961388 
3.450000000002856, -0.9798776348283791 
3.460000000002877, -0.9796284870636752 
3.4700000000028983, -0.9795361926277257 
3.4800000000029194, -0.9795265808690381 
3.4900000000029405, -0.9795311973989065 
3.5000000000029616, -0.9794931459350433 
3.5100000000029827, -0.9793664030853497 
3.520000000003004, -0.9791130575830225 
3.530000000003025, -0.9787023436181587 
3.540000000003046, -0.9781128409286668 
3.550000000003067, -0.9773363687829182 
3.5600000000030882, -0.9763804785275326 
3.5700000000031094, -0.9752674666395578 
3.5800000000031305, -0.9740307715304747 
3.5900000000031516, -0.9727115150054664 
3.6000000000031727, -0.9713570297620249 
3.6100000000031938, -0.9700208218215731 
3.620000000003215, -0.9687617479396053 
3.630000000003236, -0.9676400777743114 
3.640000000003257, -0.9667093958234654 
3.650000000003278, -0.9660056446460569 
3.6600000000032993, -0.9655372475219224 
3.6700000000033204, -0.9652814212982983 
3.6800000000033415, -0.9651895582279885 
3.6900000000033626, -0.9651994406738806 
3.7000000000033837, -0.9652481309352716 
3.710000000003405, -0.9652802113259347 
3.720000000003426, -0.9652503194426292 
3.730000000003447, -0.9651224952766457 
3.740000000003468, -0.9648695087774829 
3.750000000003489, -0.9644736736649285 
3.7600000000035103, -0.9639283849241661 
3.7700000000035314, -0.9632384921062938 
3.7800000000035525, -0.9624185753135833 
3.7900000000035736, -0.9614902080716853 
3.8000000000035947, -0.9604801560946592 
3.810000000003616, -0.9594204048026604 
3.820000000003637, -0.9583492549521855 
3.830000000003658, -0.9573118075390079 
3.840000000003679, -0.9563581234622249 
3.8500000000037002, -0.9555379868862071 
3.8600000000037213, -0.9548925826919229 
3.8700000000037424, -0.9544452809522198 
3.8800000000037635, -0.9541951208292663 
3.8900000000037847, -0.9541162512978871 
3.9000000000038058, -0.9541640431008082 
3.910000000003827, -0.9542851418439483 
3.920000000003848, -0.9544270199829199 
3.930000000003869, -0.9545439667253494 
3.94000000000389, -0.9545993719439168 
3.9500000000039113, -0.9545660147175123 
3.9600000000039324, -0.9544258737180098 
3.9700000000039535, -0.9541697134371022 
3.9800000000039746, -0.9537959790008479 
3.9900000000039957, -0.9533090687162911 
4.000000000004016, -0.9527179671861136 
4.010000000003993, -0.9520361729324266 
4.02000000000397, -0.9512828612335855 
4.030000000003946, -0.9504844431679634 
4.040000000003923, -0.9496756001765089 
4.0500000000039, -0.9488989098003412 
4.0600000000038765, -0.9482020314193633 
4.070000000003853, -0.9476317393255774 
4.08000000000383, -0.9472254881811082 
4.090000000003807, -0.9470030630654327 
4.100000000003783, -0.9469616718023148 
4.11000000000376, -0.9470766765037348 
4.120000000003737, -0.9473076347381836 
4.130000000003713, -0.9476069940350434 
4.14000000000369, -0.9479280983101287 
4.150000000003667, -0.9482303725115955 
4.1600000000036434, -0.9484814425035237 
4.17000000000362, -0.9486570745611737 
4.180000000003597, -0.9487399190716665 
4.1900000000035735, -0.9487179001823935 
4.20000000000355, -0.9485831905829596 
4.210000000003527, -0.9483325417453505 
4.220000000003504, -0.947968827459405 
4.23000000000348, -0.9475027400340134 
4.240000000003457, -0.9469537562090673 
4.250000000003434, -0.9463504668576286 
4.26000000000341, -0.9457307254470744 
4.270000000003387, -0.9451411920668378 
4.280000000003364, -0.944634668736583 
4.2900000000033405, -0.9442636991089091 
4.300000000003317, -0.9440709478529599 
4.310000000003294, -0.9440796401361167 
4.320000000003271, -0.9442883112354326 
4.330000000003247, -0.9446721242200059 
4.340000000003224, -0.9451896590592156 
4.350000000003201, -0.9457918516559035 
4.360000000003177, -0.9464296985383062 
4.370000000003154, -0.9470588154106638 
4.380000000003131, -0.9476407431615763 
4.390000000003107, -0.9481422202357912 
4.400000000003084, -0.948534295431745 
4.410000000003061, -0.9487930124456678 
4.4200000000030375, -0.948902133969497 
4.430000000003014, -0.9488564332753608 
4.440000000002991, -0.9486632313885055 
4.450000000002968, -0.9483413009032432 
4.460000000002944, -0.9479186168942981 
4.470000000002921, -0.9474312604233426 
4.480000000002898, -0.9469243999386011 
4.490000000002874, -0.9464538843824182 
4.500000000002851, -0.9460851378580435 
4.510000000002828, -0.945886223822755 
4.520000000002804, -0.9459150811494844 
4.530000000002781, -0.9462055986234663 
4.540000000002758, -0.94675931216085 
4.5500000000027345, -0.9475464848567622 
4.560000000002711, -0.9485147368947311 
4.570000000002688, -0.949600018562894 
4.580000000002665, -0.9507353022087003 
4.590000000002641, -0.951855225525953 
4.600000000002618, -0.9528978527042886 
4.610000000002595, -0.9538064196265749 
4.620000000002571, -0.9545335459865854 
4.630000000002548, -0.9550476887720778 
4.640000000002525, -0.9553383427244666 
4.6500000000025015, -0.9554161068915578 
4.660000000002478, -0.9553073182753591 
4.670000000002455, -0.9550469941459043 
4.6800000000024315, -0.954674556859295 
4.690000000002408, -0.9542345115778523 
4.700000000002385, -0.9537812735227116 
4.710000000002362, -0.953384781840396 
4.720000000002338, -0.9531315654702148 
4.730000000002315, -0.9531160212674296 
4.740000000002292, -0.953421200500966 
4.750000000002268, -0.9540962633958057 
4.760000000002245, -0.9551420856387398 
4.770000000002222, -0.9565117240239978 
4.7800000000021985, -0.9581227069822364 
4.790000000002175, -0.9598726248498405 
4.800000000002152, -0.9616515728171583 
4.810000000002129, -0.9633507052345285 
4.820000000002105, -0.9648703094302837 
4.830000000002082, -0.966130446516058 
4.840000000002059, -0.9670825157478372 
4.850000000002035, -0.9677154569875921 
4.860000000002012, -0.9680515655615402 
4.870000000001989, -0.9681338552345388 
4.880000000001965, -0.9680123378352734 
4.890000000001942, -0.9677357984657601 
4.900000000001919, -0.9673514207685809 
4.9100000000018955, -0.9669112841003734 
4.920000000001872, -0.966482899346599 
4.930000000001849, -0.9661587611894253 
