t, s[1].omega / s[0].omega 
0, -1.2599974021300542 
0.009999999999999995, -1.2596704906186138 
0.019999999999999934, -1.2592148155192384 
0.029999999999999874, -1.2586431357731889 
0.04000000000000012, -1.257978087349138 
0.050000000000000405, -1.25725394033044 
0.06000000000000069, -1.256517280644346 
0.07000000000000098, -1.255823839895896 
0.08000000000000126, -1.25522886044855 
0.09000000000000155, -1.254771626615546 
0.10000000000000184, -1.2544606930298727 
0.11000000000000212, -1.254269821549933 
0.12000000000000241, -1.2541487976389334 
0.130000000000002, -1.2540412487045505 
0.1400000000000009, -1.253897129647575 
0.1499999999999998, -1.2536748237215272 
0.1599999999999987, -1.2533362466984184 
0.1699999999999976, -1.2528406565712338 
0.1799999999999965, -1.2521414959804869 
0.1899999999999954, -1.2511894028447288 
0.1999999999999943, -1.2499440283271377 
0.2099999999999932, -1.2483957859927557 
0.2199999999999921, -1.2465941185429865 
0.229999999999991, -1.2446702324861296 
0.2399999999999899, -1.2428319571474802 
0.2499999999999888, -1.2413087884786331 
0.2599999999999877, -1.2402565961515863 
0.2699999999999866, -1.2396840853596025 
0.2799999999999855, -1.2394662544545514 
0.2899999999999844, -1.2394299073277242 
0.2999999999999833, -1.2394327001782723 
0.3099999999999822, -1.2393891855740302 
0.3199999999999811, -1.2392572094103351 
0.32999999999998, -1.2390141468955505 
0.3399999999999789, -1.2386381497022607 
0.3499999999999778, -1.2380967436384762 
0.35999999999997667, -1.2373423127558223 
0.36999999999997557, -1.2363178722820896 
0.37999999999997447, -1.234983048678877 
0.38999999999997337, -1.2333715305759712 
0.39999999999997227, -1.2316683592111972 
0.40999999999997117, -1.2302350219602356 
0.41999999999997006, -1.2294765470508098 
0.42999999999996896, -1.2295786699750875 
0.43999999999996786, -1.230363967411722 
0.44999999999996676, -1.2314362648079953 
0.45999999999996566, -1.2324404981115409 
0.46999999999996456, -1.2331927663937334 
0.47999999999996346, -1.233655878090532 
0.48999999999996235, -1.2338646758768879 
0.49999999999996125, -1.2338706855513826 
0.5099999999999602, -1.2337169739958869 
0.519999999999959, -1.2334323580341366 
0.529999999999958, -1.2330356077376827 
0.5399999999999568, -1.232546686720424 
0.5499999999999557, -1.2320059661827336 
0.5599999999999546, -1.231499645002422 
0.5699999999999535, -1.231176218142774 
0.5799999999999524, -1.2312222397130026 
0.5899999999999513, -1.2317793091020062 
0.5999999999999502, -1.2328478120899964 
0.6099999999999491, -1.2342648383133548 
0.619999999999948, -1.2357809583662918 
0.6299999999999469, -1.2371674110259359 
0.6399999999999458, -1.238280517857434 
0.6499999999999447, -1.239068455213501 
0.6599999999999436, -1.2395448328403509 
0.6699999999999425, -1.239755945993255 
0.6799999999999414, -1.2397562082962812 
0.6899999999999403, -1.2395953336248045 
0.6999999999999392, -1.239315353154514 
0.7099999999999381, -1.2389542023452926 
0.719999999999937, -1.238552672879519 
0.7299999999999359, -1.2381607017848943 
0.7399999999999348, -1.2378372051923288 
0.7499999999999337, -1.2376386971430042 
0.7599999999999326, -1.237599844816453 
0.7699999999999315, -1.2377186837378313 
0.7799999999999304, -1.237957599683972 
0.7899999999999293, -1.2382581758820206 
0.7999999999999282, -1.2385589543682072 
0.8099999999999271, -1.2388075370078917 
0.819999999999926, -1.2389653320354486 
0.8299999999999249, -1.239007455326804 
0.8399999999999238, -1.2389208029831007 
0.8499999999999227, -1.238702079265942 
0.8599999999999216, -1.238356385019768 
0.8699999999999205, -1.2378965166938891 
0.8799999999999194, -1.2373431206075434 
0.8899999999999183, -1.2367256270519238 
0.8999999999999172, -1.2360830131326506 
0.9099999999999161, -1.2354622573443363 
0.919999999999915, -1.2349121329686037 
0.9299999999999139, -1.2344720437269465 
0.9399999999999128, -1.2341595914626775 
0.9499999999999117, -1.2339637002821575 
0.9599999999999106, -1.2338484295229288 
0.9699999999999095, -1.2337653860653954 
0.9799999999999084, -1.233666407542428 
0.9899999999999073, -1.2335097083442728 
0.9999999999999062, -1.233259153811528 
1.0099999999999052, -1.2328805852702778 
1.019999999999904, -1.232339313064188 
1.029999999999903, -1.231601425974588 
1.039999999999902, -1.2306401120605615 
1.0499999999999008, -1.2294467788213885 
1.0599999999998997, -1.228045077933691 
1.0699999999998986, -1.2265037054110453 
1.0799999999998975, -1.2249405751457298 
1.0899999999998964, -1.2235077470814666 
1.0999999999998953, -1.222350006487195 
1.1099999999998942, -1.22154898851052 
1.119999999999893, -1.2210890425165633 
1.129999999999892, -1.2208746197098725 
1.1399999999998909, -1.2207841937541093 
1.1499999999998898, -1.2207166828974365 
1.1599999999998887, -1.2206062591720888 
1.1699999999998876, -1.220413338776562 
1.1799999999998865, -1.220108383420945 
1.1899999999998854, -1.2196577479075137 
1.1999999999998843, -1.2190138882622923 
1.2099999999998832, -1.2181112551793238 
1.219999999999882, -1.2168729042112265 
1.229999999999881, -1.2152381863011976 
1.2399999999998799, -1.2132209867040233 
1.2499999999998788, -1.2109849565304038 
1.2599999999998777, -1.20887118029369 
1.2699999999998766, -1.2072900151445067 
1.2799999999998755, -1.206494599952443 
1.2899999999998744, -1.2064283460769976 
1.2999999999998733, -1.2068023878873784 
1.3099999999998722, -1.2073021963264423 
1.319999999999871, -1.2077236036822137 
1.32999999999987, -1.2079835058607764 
1.3399999999998689, -1.2080716280469446 
1.3499999999998678, -1.2080045727498734 
1.3599999999998666, -1.20779997257037 
1.3699999999998655, -1.2074664721719564 
1.3799999999998644, -1.207003124284995 
1.3899999999998633, -1.206406445641029 
1.3999999999998622, -1.2056882942154068 
1.4099999999998611, -1.204908628505504 
1.41999999999986, -1.204215839618739 
1.429999999999859, -1.2038576084874761 
1.4399999999998578, -1.2041045486705935 
1.4499999999998567, -1.205087286918952 
1.4599999999998556, -1.2066741667632432 
1.4699999999998545, -1.2085251302471518 
1.4799999999998534, -1.210277065349082 
1.4899999999998523, -1.2116938936508725 
1.4999999999998512, -1.2126967970505222 
1.5099999999998501, -1.213313917935149 
1.519999999999849, -1.2136176020300125 
1.529999999999848, -1.2136832442833927 
1.5399999999998468, -1.213572039824857 
1.5499999999998457, -1.213329006466767 
1.5599999999998446, -1.212988945673582 
1.5699999999998435, -1.212586818988918 
1.5799999999998424, -1.2121705156788383 
1.5899999999998413, -1.2118112669065926 
1.5999999999998402, -1.2116015769457313 
1.6099999999998391, -1.2116311372786897 
1.619999999999838, -1.2119473955375508 
1.629999999999837, -1.2125279611758402 
1.6399999999998358, -1.2132873169317526 
1.6499999999998347, -1.214110660005455 
1.6599999999998336, -1.2148896690599238 
1.6699999999998325, -1.2155436327303624 
1.6799999999998314, -1.2160251413741872 
1.6899999999998303, -1.216316458089437 
1.6999999999998292, -1.21642201240276 
1.709999999999828, -1.2163602365571147 
1.719999999999827, -1.2161567404040983 
1.729999999999826, -1.2158402055685973 
1.7399999999998248, -1.2154415574500748 
1.7499999999998237, -1.2149957025452922 
1.7599999999998226, -1.2145435350931275 
1.7699999999998215, -1.2141307121564284 
1.7799999999998204, -1.213800579947829 
1.7899999999998193, -1.213582752705376 
1.7999999999998182, -1.2134834508224386 
1.809999999999817, -1.2134836362587917 
1.819999999999816, -1.2135457506898726 
1.8299999999998149, -1.213624633307279 
1.8399999999998138, -1.2136770334033813 
1.8499999999998127, -1.2136667084997967 
1.8599999999998116, -1.2135655533892238 
1.8699999999998105, -1.2133529780835133 
1.8799999999998094, -1.2130154344175212 
1.8899999999998083, -1.2125468185343053 
1.8999999999998072, -1.2119496447813412 
1.909999999999806, -1.211236712048057 
1.919999999999805, -1.2104330470435802 
1.9299999999998039, -1.2095775678273082 
1.9399999999998028, -1.20872288330542 
1.9499999999998017, -1.2079305244987548 
1.9599999999998006, -1.2072593306948796 
1.9699999999997995, -1.2067484918687883 
1.9799999999997984, -1.2064030033013151 
1.9899999999997973, -1.206191720345031 
1.9999999999997962, -1.20606050992837 
2.0099999999998173, -1.2059510136973972 
2.0199999999998384, -1.2058129038413434 
2.0299999999998595, -1.2056055743037355 
2.0399999999998806, -1.2052930166086955 
2.0499999999999017, -1.2048373236258878 
2.059999999999923, -1.2041947296873046 
2.069999999999944, -1.203316946881804 
2.079999999999965, -1.202160228733932 
2.089999999999986, -1.2007034835966324 
2.100000000000007, -1.1989731592153883 
2.1100000000000283, -1.1970660820069035 
2.1200000000000494, -1.195153894773046 
2.1300000000000705, -1.193450716772452 
2.1400000000000916, -1.192141274093133 
2.1500000000001127, -1.1913031696730703 
2.160000000000134, -1.190880499880618 
2.170000000000155, -1.190730867111049 
2.180000000000176, -1.1907023860306163 
2.190000000000197, -1.190683306569445 
2.2000000000002182, -1.1906091099192744 
2.2100000000002393, -1.1904462502573032 
2.2200000000002604, -1.1901726528297871 
2.2300000000002815, -1.1897630231133278 
2.2400000000003026, -1.1891795056288497 
2.2500000000003237, -1.18836758404401 
2.260000000000345, -1.187260741073812 
2.270000000000366, -1.185802720774848 
2.280000000000387, -1.1839973726848658 
2.290000000000408, -1.1819790656770122 
2.3000000000004293, -1.1800512598444262 
2.3100000000004504, -1.17860674318286 
2.3200000000004715, -1.1779198315559927 
2.3300000000004926, -1.1779731263313546 
2.3400000000005137, -1.1784959727926414 
2.3500000000005348, -1.179160782056259 
2.360000000000556, -1.1797393704531407 
2.370000000000577, -1.1801330921836823 
2.380000000000598, -1.1803288517805701 
2.390000000000619, -1.180348752043957 
2.4000000000006403, -1.1802193078613048 
2.4100000000006614, -1.1799584734507282 
2.4200000000006825, -1.1795730955900356 
2.4300000000007036, -1.1790628899086195 
2.4400000000007247, -1.1784318120700348 
2.450000000000746, -1.1777106445312138 
2.460000000000767, -1.1769912319525473 
2.470000000000788, -1.1764557045329584 
2.480000000000809, -1.1763572517297685 
2.49000000000083, -1.17691393208269 
2.5000000000008513, -1.1781598077976567 
2.5100000000008724, -1.1798860107073188 
2.5200000000008935, -1.1817432703416793 
2.5300000000009146, -1.1834143283521277 
2.5400000000009357, -1.1847194889994164 
2.550000000000957, -1.1856176535129643 
2.560000000000978, -1.1861522769696038 
2.570000000000999, -1.1863968264821316 
2.58000000000102, -1.1864220354642527 
2.5900000000010412, -1.1862835480854397 
2.6000000000010624, -1.1860219386685633 
2.6100000000010835, -1.1856691995558002 
2.6200000000011046, -1.1852591360927907 
2.6300000000011257, -1.1848400729664483 
2.6400000000011468, -1.1844852887581476 
2.650000000001168, -1.1842911196200665 
2.660000000001189, -1.1843528823647997 
2.67000000000121, -1.1847241838730795 
2.680000000001231, -1.1853861086573363 
2.6900000000012523, -1.1862506162846238 
2.7000000000012734, -1.1871940630833486 
2.7100000000012945, -1.1880961368684324 
2.7200000000013156, -1.18886524951154 
2.7300000000013367, -1.1894471620534466 
2.740000000001358, -1.1898220908841606 
2.750000000001379, -1.1899961437905255 
2.7600000000014, -1.1899912634558645 
2.770000000001421, -1.189836594428333 
2.780000000001442, -1.189563160884294 
2.7900000000014633, -1.1892025118918776 
2.8000000000014844, -1.1887886365379083 
2.8100000000015055, -1.188361022450414 
2.8200000000015266, -1.1879653802235657 
2.8300000000015477, -1.1876485507593477 
2.840000000001569, -1.1874473735329256 
2.85000000000159, -1.1873767957298114 
2.860000000001611, -1.1874247180590944 
2.870000000001632, -1.1875566315650352 
2.8800000000016532, -1.1877264842510074 
2.8900000000016743, -1.1878876536591825 
2.9000000000016954, -1.1880000271451023 
2.9100000000017165, -1.1880327181693437 
2.9200000000017377, -1.1879641042572957 
2.9300000000017588, -1.1877810519036978 
2.94000000000178, -1.1874783314277964 
2.950000000001801, -1.1870584376675795 
2.960000000001822, -1.186531771184089 
2.970000000001843, -1.1859171891537656 
2.9800000000018643, -1.1852428228625251 
2.9900000000018854, -1.1845464421721605 
3.0000000000019065, -1.1838737335612946 
3.0100000000019276, -1.183272580506283 
3.0200000000019487, -1.1827829266424863 
3.03000000000197, -1.1824251165501436 
3.040000000001991, -1.1821926259777669 
3.050000000002012, -1.1820542062034256 
3.060000000002033, -1.1819645378519603 
3.070000000002054, -1.1818765282876982 
3.0800000000020753, -1.1817485799681526 
3.0900000000020964, -1.1815453850834976 
3.1000000000021175, -1.1812351302546904 
3.1100000000021386, -1.1807868386314495 
3.1200000000021597, -1.1801704419325698 
3.130000000002181, -1.1793607317685726 
3.140000000002202, -1.1783449545650622 
3.150000000002223, -1.1771324836263983 
3.160000000002244, -1.1757639318496156 
3.1700000000022652, -1.1743161484769504 
3.1800000000022863, -1.1728982892621729 
3.1900000000023074, -1.171633627130153 
3.2000000000023285, -1.1706263104139683 
3.2100000000023496, -1.1699248488599892 
3.2200000000023707, -1.169505297507738 
3.230000000002392, -1.1692882375696414 
3.240000000002413, -1.1691767284366668 
3.250000000002434, -1.1690879860677101 
3.260000000002455, -1.1689641992871693 
3.2700000000024763, -1.1687668271561722 
3.2800000000024974, -1.1684648516649716 
3.2900000000025185, -1.1680236758720632 
3.3000000000025396, -1.167397096993178 
3.3100000000025607, -1.1665239473339268 
3.3200000000025818, -1.1653330614675488 
3.330000000002603, -1.1637628876765345 
3.340000000002624, -1.1618007252138918 
3.350000000002645, -1.1595343923777932 
3.360000000002666, -1.1571845967884218 
3.3700000000026873, -1.155069219717103 
3.3800000000027084, -1.153481779969264 
3.3900000000027295, -1.1525506651006991 
3.4000000000027506, -1.1521926517830752 
3.4100000000027717, -1.152194959489444 
3.420000000002793, -1.1523403073847889 
3.430000000002814, -1.1524800335528087 
3.440000000002835, -1.1525395190734526 
3.450000000002856, -1.152491505847606 
3.460000000002877, -1.152328419562814 
3.4700000000028983, -1.1520441472531275 
3.4800000000029194, -1.151624221286296 
3.4900000000029405, -1.1510415985311653 
3.5000000000029616, -1.1502579445064052 
3.5100000000029827, -1.149234656814277 
3.520000000003004, -1.1479614168444081 
3.530000000003025, -1.1465059582065824 
3.540000000003046, -1.1450648428815113 
3.550000000003067, -1.1439547249020205 
3.5600000000030882, -1.1434850177491063 
3.5700000000031094, -1.1437650843529281 
3.5800000000031305, -1.1446220860972245 
3.5900000000031516, -1.1457201457994906 
3.6000000000031727, -1.1467546832537951 
3.6100000000031938, -1.1475567682250964 
3.620000000003215, -1.1480827998920156 
3.630000000003236, -1.1483579636875447 
3.640000000003257, -1.1484282912161121 
3.650000000003278, -1.1483353913506429 
3.6600000000032993, -1.148107865700866 
3.6700000000033204, -1.1477615507288912 
3.6800000000033415, -1.1473048282345508 
3.6900000000033626, -1.1467493852885873 
3.7000000000033837, -1.1461289384069913 
3.710000000003405, -1.145525695014808 
3.720000000003426, -1.1450922837693636 
3.730000000003447, -1.14503872618655 
3.740000000003468, -1.1455560396100732 
3.750000000003489, -1.1467010038420362 
3.7600000000035103, -1.1483320329853453 
3.7700000000035314, -1.1501632673727733 
3.7800000000035525, -1.151895655266457 
3.7900000000035736, -1.1533244223976447 
3.8000000000035947, -1.1543688871168043 
3.810000000003616, -1.1550421413051124 
3.820000000003637, -1.1554034647165914 
3.830000000003658, -1.1555217008003673 
3.840000000003679, -1.1554565189687973 
3.8500000000037002, -1.155253400231246 
3.8600000000037213, -1.1549466308110836 
3.8700000000037424, -1.154566838466162 
3.8800000000037635, -1.1541514949590939 
3.8900000000037847, -1.1537561430375436 
3.9000000000038058, -1.1534603258539848 
3.910000000003827, -1.1533585852516757 
3.920000000003848, -1.1535317449664695 
3.930000000003869, -1.1540104121955936 
3.94000000000389, -1.1547555954444553 
3.9500000000039113, -1.155670743512422 
3.9600000000039324, -1.1566349500902064 
3.9700000000039535, -1.1575361776328221 
3.9800000000039746, -1.1582916252638484 
3.9900000000039957, -1.1588541982088918 
4.000000000004016, -1.159209318781967 
4.010000000003993, -1.1593665756538032 
4.02000000000397, -1.1593498879969586 
4.030000000003946, -1.1591891492171933 
4.040000000003923, -1.1589152907788354 
4.0500000000039, -1.1585593311050384 
4.0600000000038765, -1.158154617406494 
4.070000000003853, -1.1577401671112575 
4.08000000000383, -1.1573617578910171 
4.090000000003807, -1.1570672777146647 
4.100000000003783, -1.1568957563425053 
4.11000000000376, -1.156864916526945 
4.120000000003737, -1.1569648872624554 
4.130000000003713, -1.1571618880486052 
4.14000000000369, -1.1574088720475628 
4.150000000003667, -1.1576569532478356 
4.1600000000036434, -1.1578632856127582 
4.17000000000362, -1.1579945793699742 
4.180000000003597, -1.158027668096011 
4.1900000000035735, -1.1579488625177747 
4.20000000000355, -1.1577531136034063 
4.210000000003527, -1.157443283576059 
4.220000000003504, -1.1570295635711774 
4.23000000000348, -1.156529172570592 
4.240000000003457, -1.1559664930186908 
4.250000000003434, -1.1553733483659554 
4.26000000000341, -1.1547882565885288 
4.270000000003387, -1.1542529387486955 
4.280000000003364, -1.1538051776415763 
4.2900000000033405, -1.153469528212768 
4.300000000003317, -1.153249868670464 
4.310000000003294, -1.153127979382059 
4.320000000003271, -1.153069247632612 
4.330000000003247, -1.15303221461139 
4.340000000003224, -1.1529768162768046 
4.350000000003201, -1.1528683157544335 
4.360000000003177, -1.152677497755053 
4.370000000003154, -1.1523795917744875 
4.380000000003131, -1.151954102907916 
4.390000000003107, -1.1513864331620762 
4.400000000003084, -1.1506709451791777 
4.410000000003061, -1.14981449528472 
4.4200000000030375, -1.14883951223481 
4.430000000003014, -1.1477859341615246 
4.440000000002991, -1.1467110062721577 
4.450000000002968, -1.1456849817319374 
4.460000000002944, -1.144780380043276 
4.470000000002921, -1.144054786172027 
4.480000000002898, -1.1435328736915429 
4.490000000002874, -1.1431980695063078 
4.500000000002851, -1.143000599152344 
4.510000000002828, -1.1428769144730524 
4.520000000002804, -1.1427677292451945 
4.530000000002781, -1.1426259568407475 
4.540000000002758, -1.1424149346114134 
4.5500000000027345, -1.1421020257989667 
4.560000000002711, -1.141652196190256 
4.570000000002688, -1.1410243976058543 
4.580000000002665, -1.1401728579855008 
4.590000000002641, -1.1390552886898353 
4.600000000002618, -1.137648940744802 
4.610000000002595, -1.1359720650892597 
4.620000000002571, -1.1341030704251964 
4.630000000002548, -1.1321850903958575 
4.640000000002525, -1.1304038103105758 
4.6500000000025015, -1.1289361243072034 
4.660000000002478, -1.127887924832379 
4.670000000002455, -1.1272575535582015 
4.6800000000024315, -1.1269511163167103 
4.690000000002408, -1.1268362799838858 
4.700000000002385, -1.1267942424551562 
4.710000000002362, -1.1267430636401046 
4.720000000002338, -1.1266346303765236 
4.730000000002315, -1.1264403935536498 
4.740000000002292, -1.1261369406026607 
4.750000000002268, -1.1256950725231074 
4.760000000002245, -1.1250724967835806 
4.770000000002222, -1.1242106580632751 
4.7800000000021985, -1.1230390571586777 
4.790000000002175, -1.1214937977744055 
4.800000000002152, -1.1195567958797885 
4.810000000002129, -1.1173102283204732 
4.820000000002105, -1.1149738533853295 
4.830000000002082, -1.1128718471426613 
4.840000000002059, -1.1113078291167395 
4.850000000002035, -1.1104177618381734 
4.860000000002012, -1.1101196269699192 
4.870000000001989, -1.1101954564326741 
4.880000000001965, -1.1104193132828821 
4.890000000001942, -1.1106346584609246 
4.900000000001919, -1.1107627707374026 
4.9100000000018955, -1.1107766191556903 
4.920000000001872, -1.1106722728133822 
4.930000000001849, -1.1104496606168155 
4.940000000001826, -1.110102124295868 
