t, s[1].omega / s[0].omega 
0, -0.5499977424162343 
0.009999999999999995, -0.5497792378460443 
0.019999999999999934, -0.5495699443299242 
0.029999999999999874, -0.5493566883981044 
0.04000000000000012, -0.5491236069796059 
0.050000000000000405, -0.5488576443038702 
0.06000000000000069, -0.5485517684132672 
0.07000000000000098, -0.5482054234617152 
0.08000000000000126, -0.5478234572733249 
0.09000000000000155, -0.5474152021948654 
0.10000000000000184, -0.546994905212381 
0.11000000000000212, -0.5465841393328883 
0.12000000000000241, -0.5462165797139469 
0.130000000000002, -0.5459454595556209 
0.1400000000000009, -0.5458536698571469 
0.1499999999999998, -0.5460650366477974 
0.1599999999999987, -0.546751506389188 
0.1699999999999976, -0.548123471731593 
0.1799999999999965, -0.5503812171015638 
0.1899999999999954, -0.553608447145106 
0.1999999999999943, -0.5576347639808307 
0.2099999999999932, -0.5619855326662911 
0.2199999999999921, -0.5660502675074894 
0.229999999999991, -0.5693885153825438 
0.2399999999999899, -0.5718896025828895 
0.2499999999999888, -0.5736784546940693 
0.2599999999999877, -0.5749421885129188 
0.2699999999999866, -0.5758339188181969 
0.2799999999999855, -0.5764566285922218 
0.2899999999999844, -0.5768765073517523 
0.2999999999999833, -0.5771367688003466 
0.3099999999999822, -0.5772656891914277 
0.3199999999999811, -0.5772803832619667 
0.32999999999998, -0.5771884147346275 
0.3399999999999789, -0.5769885719750939 
0.3499999999999778, -0.5766717629546154 
0.35999999999997667, -0.5762230910431232 
0.36999999999997557, -0.5756263453837159 
0.37999999999997447, -0.574871580614259 
0.38999999999997337, -0.573964344833512 
0.39999999999997227, -0.5729320204497934 
0.40999999999997117, -0.5718218797742087 
0.41999999999997006, -0.5706898559894675 
0.42999999999996896, -0.5695858880316791 
0.43999999999996786, -0.5685439233271543 
0.44999999999996676, -0.5675802793526372 
0.45999999999996566, -0.5666983646871552 
0.46999999999996456, -0.5658955139823287 
0.47999999999996346, -0.5651687981587816 
0.48999999999996235, -0.5645187600802207 
0.49999999999996125, -0.5639514584820657 
0.5099999999999602, -0.5634796511874024 
0.519999999999959, -0.563123787709435 
0.529999999999958, -0.5629131578379521 
0.5399999999999568, -0.5628872848496751 
0.5499999999999557, -0.5630974691769512 
0.5599999999999546, -0.5636081617885841 
0.5699999999999535, -0.5644973821278227 
0.5799999999999524, -0.5658544530276388 
0.5899999999999513, -0.5677717507458238 
0.5999999999999502, -0.5703253962175301 
0.6099999999999491, -0.5735400406101866 
0.619999999999948, -0.5773402404641369 
0.6299999999999469, -0.5815101316647721 
0.6399999999999458, -0.5857041784106145 
0.6499999999999447, -0.5895383998792056 
0.6599999999999436, -0.5927235471243264 
0.6699999999999425, -0.5951473236683007 
0.6799999999999414, -0.5968569265354361 
0.6899999999999403, -0.5979825695217104 
0.6999999999999392, -0.5986669478737396 
0.7099999999999381, -0.5990281316226588 
0.719999999999937, -0.5991493776750008 
0.7299999999999359, -0.599081300190361 
0.7399999999999348, -0.5988466247220658 
0.7499999999999337, -0.5984432457601163 
0.7599999999999326, -0.5978444286522908 
0.7699999999999315, -0.5969967212998467 
0.7799999999999304, -0.595818099713748 
0.7899999999999293, -0.594202252430504 
0.7999999999999282, -0.5920388782038456 
0.8099999999999271, -0.5892583361292009 
0.819999999999926, -0.585891591681334 
0.8299999999999249, -0.5821067858336143 
0.8399999999999238, -0.5781793789995662 
0.8499999999999227, -0.5744027247980964 
0.8599999999999216, -0.5710000796935761 
0.8699999999999205, -0.5680885005524117 
0.8799999999999194, -0.5656931477968354 
0.8899999999999183, -0.5637819568512589 
0.8999999999999172, -0.5622969459788643 
0.9099999999999161, -0.5611742138472453 
0.919999999999915, -0.5603540138737644 
0.9299999999999139, -0.5597846878812727 
0.9399999999999128, -0.559423550099516 
0.9499999999999117, -0.559236558306493 
0.9599999999999106, -0.5591976669235023 
0.9699999999999095, -0.5592882182304365 
0.9799999999999084, -0.5594964538726062 
0.9899999999999073, -0.5598170556244804 
0.9999999999999062, -0.5602504187203785 
1.0099999999999052, -0.5608010621973551 
1.019999999999904, -0.5614742875362488 
1.029999999999903, -0.5622702699976387 
1.039999999999902, -0.5631757877875205 
1.0499999999999008, -0.5641561149223373 
1.0599999999998997, -0.5651523121548143 
1.0699999999998986, -0.5660892156636419 
1.0799999999998975, -0.566893767454474 
1.0899999999998964, -0.5675146718428622 
1.0999999999998953, -0.5679319139543269 
1.1099999999998942, -0.5681524464795716 
1.119999999999893, -0.568197870687906 
1.129999999999892, -0.5680921171702764 
1.1399999999998909, -0.5678531557311006 
1.1499999999998898, -0.5674885578339867 
1.1599999999998887, -0.5669929753705034 
1.1699999999998876, -0.5663455497397029 
1.1799999999998865, -0.5655056194801232 
1.1899999999998854, -0.5644052967687222 
1.1999999999998843, -0.5629379318679779 
1.2099999999998832, -0.5609441033686636 
1.219999999999882, -0.5582059696348883 
1.229999999999881, -0.5544801034936795 
1.2399999999998799, -0.5496113787963528 
1.2499999999998788, -0.543717042758127 
1.2599999999998777, -0.5372924084162166 
1.2699999999998766, -0.5310618829258218 
1.2799999999998755, -0.5256522775582099 
1.2899999999998744, -0.5213717357680098 
1.2999999999998733, -0.5182199301756953 
1.3099999999998722, -0.516021742939302 
1.319999999999871, -0.514551844972829 
1.32999999999987, -0.5136038063873765 
1.3399999999998689, -0.5130142856735416 
1.3499999999998678, -0.512663851391477 
1.3599999999998666, -0.5124692238163198 
1.3699999999998655, -0.5123741353893877 
1.3799999999998644, -0.512341529332389 
1.3899999999998633, -0.5123477860547447 
1.3999999999998622, -0.5123789131057953 
1.4099999999998611, -0.5124283761097088 
1.41999999999986, -0.5124960551573585 
1.429999999999859, -0.5125875036263887 
1.4399999999998578, -0.5127123687229587 
1.4499999999998567, -0.5128809139571473 
1.4599999999998556, -0.5130984971115825 
1.4699999999998545, -0.5133595144371141 
1.4799999999998534, -0.5136438261623983 
1.4899999999998523, -0.5139186426237939 
1.4999999999998512, -0.5141463269214726 
1.5099999999998501, -0.5142946179232417 
1.519999999999849, -0.514343809026947 
1.529999999999848, -0.5142877237726 
1.5399999999998468, -0.5141296323578294 
1.5499999999998457, -0.5138764931750788 
1.5599999999998446, -0.5135341338543166 
1.5699999999998435, -0.5131041447242531 
1.5799999999998424, -0.5125820001332771 
1.5899999999998413, -0.5119554376899069 
1.5999999999998402, -0.51120186091125 
1.6099999999998391, -0.5102829385237222 
1.619999999999838, -0.5091335260509032 
1.629999999999837, -0.5076419013151596 
1.6399999999998358, -0.5056247428062358 
1.6499999999998347, -0.5028241194287933 
1.6599999999998336, -0.49899015472666014 
1.6699999999998325, -0.49408804239641163 
1.6799999999998314, -0.4884925058609597 
1.6899999999998303, -0.48290422642951797 
1.6999999999998292, -0.4779924559939466 
1.709999999999828, -0.4741085772018067 
1.719999999999827, -0.4712724072544101 
1.729999999999826, -0.4693163123083119 
1.7399999999998248, -0.4680220860732967 
1.7499999999998237, -0.4671937380809995 
1.7599999999998226, -0.4666803289714269 
1.7699999999998215, -0.466374618318054 
1.7799999999998204, -0.4662039573311979 
1.7899999999998193, -0.46612074335029374 
1.7999999999998182, -0.4660948287405901 
1.809999999999817, -0.46610825335566985 
1.819999999999816, -0.4661520127783243 
1.8299999999998149, -0.4662243792657491 
1.8399999999998138, -0.466330116312444 
1.8499999999998127, -0.46647963258442926 
1.8599999999998116, -0.4666868644161924 
1.8699999999998105, -0.4669648706287993 
1.8799999999998094, -0.46731914971058786 
1.8899999999998083, -0.46774047691054665 
1.8999999999998072, -0.4682008285135181 
1.909999999999806, -0.46865615263885296 
1.919999999999805, -0.46905674687318505 
1.9299999999998039, -0.46936071996779904 
1.9399999999998028, -0.4695431929920016 
1.9499999999998017, -0.46959706554738584 
1.9599999999998006, -0.4695271075089796 
1.9699999999997995, -0.46934200289102 
1.9799999999997984, -0.4690476362464852 
1.9899999999997973, -0.4686422752104472 
1.9999999999997962, -0.4681125990099321 
2.0099999999998173, -0.4674289045907628 
2.0199999999998384, -0.46653767231937504 
2.0299999999998595, -0.4653498691318725 
2.0399999999998806, -0.4637251676779458 
2.0499999999999017, -0.4614593344460637 
2.059999999999923, -0.4582990646681811 
2.069999999999944, -0.4540273064367101 
2.079999999999965, -0.44863476896683274 
2.089999999999986, -0.4424716654450781 
2.100000000000007, -0.4361857821615082 
2.1100000000000283, -0.43043396215882945 
2.1200000000000494, -0.4256192884240054 
2.1300000000000705, -0.4218418293321897 
2.1400000000000916, -0.4190029452468324 
2.1500000000001127, -0.4169269447912926 
2.160000000000134, -0.4154366483669746 
2.170000000000155, -0.41438451441012625 
2.180000000000176, -0.41365877340015844 
2.190000000000197, -0.41317950075866233 
2.2000000000002182, -0.4128922801032294 
2.2100000000002393, -0.4127625058254541 
2.2200000000002604, -0.4127712053215425 
2.2300000000002815, -0.41291240877459884 
2.2400000000003026, -0.41319177665593043 
2.2500000000003237, -0.4136259791298227 
2.260000000000345, -0.41424196813258235 
2.270000000000366, -0.4150746803586848 
2.280000000000387, -0.41616095047022206 
2.290000000000408, -0.4175270740496124 
2.3000000000004293, -0.4191690499484996 
2.3100000000004504, -0.4210302702275041 
2.3200000000004715, -0.4229908372879578 
2.3300000000004926, -0.4248862191714025 
2.3400000000005137, -0.4265563175074146 
2.3500000000005348, -0.4278967817752518 
2.360000000000556, -0.4288785206720981 
2.370000000000577, -0.42953039498916346 
2.380000000000598, -0.4299071835346031 
2.390000000000619, -0.4300638743017716 
2.4000000000006403, -0.43004234560224325 
2.4100000000006614, -0.429866862929425 
2.4200000000006825, -0.42954334711664305 
2.4300000000007036, -0.4290593303331474 
2.4400000000007247, -0.42838384063652846 
2.450000000000746, -0.42746869708035373 
2.460000000000767, -0.4262551305228316 
2.470000000000788, -0.4246911513741155 
2.480000000000809, -0.4227615003738058 
2.49000000000083, -0.4205192052983421 
2.5000000000008513, -0.4180936469409116 
2.5100000000008724, -0.41565776374127716 
2.5200000000008935, -0.4133710143739383 
2.5300000000009146, -0.4113364350179004 
2.5400000000009357, -0.40959239983291723 
2.550000000000957, -0.4081297992415373 
2.560000000000978, -0.40691551492883155 
2.570000000000999, -0.40591058854617074 
2.58000000000102, -0.4050806646431447 
2.5900000000010412, -0.40440066017474463 
2.6000000000010624, -0.4038563417024522 
2.6100000000010835, -0.4034448626286601 
2.6200000000011046, -0.40317554427208097 
2.6300000000011257, -0.4030716557923383 
2.6400000000011468, -0.40317366164441826 
2.650000000001168, -0.40354420235144844 
2.660000000001189, -0.4042746540960809 
2.67000000000121, -0.40549190878590047 
2.680000000001231, -0.4073610079470608 
2.6900000000012523, -0.41007316393625387 
2.7000000000012734, -0.4138001758362722 
2.7100000000012945, -0.41859524746337284 
2.7200000000013156, -0.42425453057189405 
2.7300000000013367, -0.430241686273854 
2.740000000001358, -0.43582690933620166 
2.750000000001379, -0.4404199172066505 
2.7600000000014, -0.4438130695357699 
2.770000000001421, -0.44613680686100377 
2.780000000001442, -0.44765866757872075 
2.7900000000014633, -0.4486304971280874 
2.8000000000014844, -0.44923581686529585 
2.8100000000015055, -0.4495936180131495 
2.8200000000015266, -0.4497767816488449 
2.8300000000015477, -0.44982806096661243 
2.840000000001569, -0.44977061631027687 
2.85000000000159, -0.44961446736911076 
2.860000000001611, -0.449360839052368 
2.870000000001632, -0.44900613545674 
2.8800000000016532, -0.4485468305956218 
2.8900000000016743, -0.4479855993489221 
2.9000000000016954, -0.4473372113061302 
2.9100000000017165, -0.4466308826579171 
2.9200000000017377, -0.4459061301397652 
2.9300000000017588, -0.44520285167637913 
2.94000000000178, -0.4445505860671378 
2.950000000001801, -0.4439624044251464 
2.960000000001822, -0.44343544755418884 
2.970000000001843, -0.4429563316933615 
2.9800000000018643, -0.4425080485861227 
2.9900000000018854, -0.4420755255029058 
3.0000000000019065, -0.4416486156034951 
3.0100000000019276, -0.441222883674033 
3.0200000000019487, -0.4407993920245089 
3.03000000000197, -0.44038469871626934 
3.040000000001991, -0.4399918996422366 
3.050000000002012, -0.4396431994662248 
3.060000000002033, -0.4393742568706268 
3.070000000002054, -0.4392401109055177 
3.0800000000020753, -0.4393211204713408 
3.0900000000020964, -0.4397237075407884 
3.1000000000021175, -0.4405633609582649 
3.1100000000021386, -0.4419088480440184 
3.1200000000021597, -0.4436751052751928 
3.130000000002181, -0.4455172365813042 
3.140000000002202, -0.44688681670451824 
3.150000000002223, -0.4473544294096629 
3.160000000002244, -0.4469353894609497 
3.1700000000022652, -0.4460265487018745 
3.1800000000022863, -0.4450610206132854 
3.1900000000023074, -0.4442832330070904 
3.2000000000023285, -0.4437513189581267 
3.2100000000023496, -0.44342716436858814 
3.2200000000023707, -0.4432471621903879 
3.230000000002392, -0.44315456742131343 
3.240000000002413, -0.44310792250089903 
3.250000000002434, -0.44307969437267725 
3.260000000002455, -0.44305249846636574 
3.2700000000024763, -0.44301576528382264 
3.2800000000024974, -0.4429636815335535 
3.2900000000025185, -0.44289450305956557 
3.3000000000025396, -0.44281100240332216 
3.3100000000025607, -0.4427214175396628 
3.3200000000025818, -0.44263975432001834 
3.330000000002603, -0.4425840585718004 
3.340000000002624, -0.4425718987020685 
3.350000000002645, -0.442613854647563 
3.360000000002666, -0.44270747493032897 
3.3700000000026873, -0.4428348261039665 
3.3800000000027084, -0.44296570266886015 
3.3900000000027295, -0.443065767813098 
3.4000000000027506, -0.44310577328775835 
3.4100000000027717, -0.4430672579821769 
3.420000000002793, -0.44294274576615783 
3.430000000002814, -0.4427319164190278 
3.440000000002835, -0.442436540894806 
3.450000000002856, -0.4420560135009025 
3.460000000002877, -0.4415837408009674 
3.4700000000028983, -0.44100354774324496 
3.4800000000029194, -0.44028461812560005 
3.4900000000029405, -0.4393729096961964 
3.5000000000029616, -0.43817656039886305 
3.5100000000029827, -0.4365443313439772 
3.520000000003004, -0.43424523969918843 
3.530000000003025, -0.43098227833601516 
3.540000000003046, -0.4265015110410289 
3.550000000003067, -0.42081439448231917 
3.5600000000030882, -0.4143719833710876 
3.5700000000031094, -0.4079389102606294 
3.5800000000031305, -0.40221593721138493 
3.5900000000031516, -0.3975665815080865 
3.6000000000031727, -0.39402063959640976 
3.6100000000031938, -0.3914224772010808 
3.620000000003215, -0.3895645930896508 
3.630000000003236, -0.3882576127703284 
3.640000000003257, -0.3873529455533663 
3.650000000003278, -0.3867428669969514 
3.6600000000032993, -0.38635328089481347 
3.6700000000033204, -0.3861358896646897 
3.6800000000033415, -0.3860620077555815 
3.6900000000033626, -0.3861184051778491 
3.7000000000033837, -0.3863049410879076 
3.710000000003405, -0.38663352834202064 
3.720000000003426, -0.3871277479262317 
3.730000000003447, -0.38782198883363306 
3.740000000003468, -0.3887582417045031 
3.750000000003489, -0.38997780987542585 
3.7600000000035103, -0.3915051029915259 
3.7700000000035314, -0.3933235161871534 
3.7800000000035525, -0.39535172185250445 
3.7900000000035736, -0.3974396354541526 
3.8000000000035947, -0.3994017542074723 
3.810000000003616, -0.4010782398527607 
3.820000000003637, -0.40238382317481297 
3.830000000003658, -0.4033135948381842 
3.840000000003679, -0.4039140564203162 
3.8500000000037002, -0.40424814211352506 
3.8600000000037213, -0.4043721775035366 
3.8700000000037424, -0.40432608898851646 
3.8800000000037635, -0.4041312831944765 
3.8900000000037847, -0.4037912650148872 
3.9000000000038058, -0.40329271485411605 
3.910000000003827, -0.4026071405172994 
3.920000000003848, -0.4016952587816968 
3.930000000003869, -0.4005177110966627 
3.94000000000389, -0.3990545840308233 
3.9500000000039113, -0.3973293907170367 
3.9600000000039324, -0.39542258292506494 
3.9700000000039535, -0.3934583031752666 
3.9800000000039746, -0.391566529315185 
3.9900000000039957, -0.3898445823252453 
4.000000000004016, -0.3883402433448183 
4.010000000003993, -0.38705805181070563 
4.02000000000397, -0.38597634185761914 
4.030000000003946, -0.38506356574329675 
4.040000000003923, -0.3842892300320292 
4.0500000000039, -0.3836295839083571 
4.0600000000038765, -0.38306993238633275 
4.070000000003853, -0.3826054950276802 
4.08000000000383, -0.38224224629268855 
4.090000000003807, -0.3819987025141039 
4.100000000003783, -0.3819093341414287 
4.11000000000376, -0.3820301262036544 
4.120000000003737, -0.38244652271429136 
4.130000000003713, -0.3832829598024904 
4.14000000000369, -0.38471012535172516 
4.150000000003667, -0.38693883628199144 
4.1600000000036434, -0.3901769649721913 
4.17000000000362, -0.3945177767107505 
4.180000000003597, -0.399762684486464 
4.1900000000035735, -0.4053040414293244 
4.20000000000355, -0.41029589628994784 
4.210000000003527, -0.4141087406079422 
4.220000000003504, -0.4166366925482439 
4.23000000000348, -0.41816695688060584 
4.240000000003457, -0.41906787994798167 
4.250000000003434, -0.419611303743814 
4.26000000000341, -0.41995325059549266 
4.270000000003387, -0.42017271237538534 
4.280000000003364, -0.4203080111293107 
4.2900000000033405, -0.420377986221746 
4.300000000003317, -0.42039213043886303 
4.310000000003294, -0.42035506173142984 
4.320000000003271, -0.42026869614593265 
4.330000000003247, -0.42013389633935877 
4.340000000003224, -0.4199524739355674 
4.350000000003201, -0.41972975628570186 
4.360000000003177, -0.4194771195092069 
4.370000000003154, -0.4192130444541397 
4.380000000003131, -0.4189610891333778 
4.390000000003107, -0.4187443917529189 
4.400000000003084, -0.41857844719257786 
4.410000000003061, -0.41846532754137045 
4.4200000000030375, -0.4183921600485693 
4.430000000003014, -0.418334809190827 
4.440000000002991, -0.41826521053894056 
4.450000000002968, -0.4181588987527305 
4.460000000002944, -0.4179994041341316 
4.470000000002921, -0.41777842178693436 
4.480000000002898, -0.4174930307648582 
4.490000000002874, -0.41714198009547704 
4.500000000002851, -0.4167222943125812 
4.510000000002828, -0.41622630209251205 
4.520000000002804, -0.41563829691741977 
4.530000000002781, -0.4149292949391211 
4.540000000002758, -0.41404742164033814 
4.5500000000027345, -0.41290053071149657 
4.560000000002711, -0.41132915944820614 
4.570000000002688, -0.40907964575453104 
4.580000000002665, -0.40582008593237673 
4.590000000002641, -0.4012764308936216 
4.600000000002618, -0.3954969472247386 
4.610000000002595, -0.3890221764143137 
4.620000000002571, -0.3826831742928042 
4.630000000002548, -0.37716872292069564 
4.640000000002525, -0.3727800724130511 
4.6500000000025015, -0.3694884752387143 
4.660000000002478, -0.36710675857742814 
4.670000000002455, -0.3654189703760853 
4.6800000000024315, -0.3642396402532909 
4.690000000002408, -0.3634285927033979 
4.700000000002385, -0.3628871054646388 
4.710000000002362, -0.36254924743175787 
4.720000000002338, -0.3623738556767889 
4.730000000002315, -0.3623386777910841 
4.740000000002292, -0.36243674400709774 
4.750000000002268, -0.3626745913097975 
4.760000000002245, -0.36307179012199403 
4.770000000002222, -0.36366094781879044 
4.7800000000021985, -0.3644867630993019 
4.790000000002175, -0.365601687538629 
4.800000000002152, -0.36705459508445 
4.810000000002129, -0.3688689599704723 
4.820000000002105, -0.3710117594407094 
4.830000000002082, -0.37336680314776616 
4.840000000002059, -0.3757394970561384 
4.850000000002035, -0.3779104857293281 
4.860000000002012, -0.3797131489664741 
4.870000000001989, -0.38108003886746705 
4.880000000001965, -0.38203261357848434 
4.890000000001942, -0.382638848372567 
