t, s[1].omega / s[0].omega 
0, -0.6799976990047986 
0.009999999999999995, -0.679754937890138 
0.019999999999999934, -0.6794848557082777 
0.029999999999999874, -0.6791821570078597 
0.04000000000000012, -0.6788418640490927 
0.050000000000000405, -0.6784625677138917 
0.06000000000000069, -0.6780481789073934 
0.07000000000000098, -0.6776083011290626 
0.08000000000000126, -0.6771582998116068 
0.09000000000000155, -0.6767200970835288 
0.10000000000000184, -0.676324129475114 
0.11000000000000212, -0.6760122972396763 
0.12000000000000241, -0.6758412736795646 
0.130000000000002, -0.6758851747709027 
0.1400000000000009, -0.6762362453093443 
0.1499999999999998, -0.6770018514903922 
0.1599999999999987, -0.6782956070214223 
0.1699999999999976, -0.6802199286164854 
0.1799999999999965, -0.6828374344784058 
0.1899999999999954, -0.686131684704131 
0.1999999999999943, -0.6899673624159577 
0.2099999999999932, -0.6940754612611195 
0.2199999999999921, -0.6980951733331682 
0.229999999999991, -0.7016757436138373 
0.2399999999999899, -0.7045860881573872 
0.2499999999999888, -0.7067612905233391 
0.2599999999999877, -0.7082685102279002 
0.2699999999999866, -0.709236535190043 
0.2799999999999855, -0.7097978192720459 
0.2899999999999844, -0.7100594808859956 
0.2999999999999833, -0.7100958660483003 
0.3099999999999822, -0.7099507150122608 
0.3199999999999811, -0.7096410488671094 
0.32999999999998, -0.709159144600567 
0.3399999999999789, -0.7084712925674953 
0.3499999999999778, -0.70751314141199 
0.35999999999997667, -0.7061826588359901 
0.36999999999997557, -0.704334691451977 
0.37999999999997447, -0.7017874478497376 
0.38999999999997337, -0.6983597117804187 
0.39999999999997227, -0.6939563349362028 
0.40999999999997117, -0.6886847548619108 
0.41999999999997006, -0.6829199855669262 
0.42999999999996896, -0.6772238897656855 
0.43999999999996786, -0.6721402433703924 
0.44999999999996676, -0.668011455520708 
0.45999999999996566, -0.6649276014811335 
0.46999999999996456, -0.6627894128374004 
0.47999999999996346, -0.6614056320147552 
0.48999999999996235, -0.6605695102889781 
0.49999999999996125, -0.6601005179299583 
0.5099999999999602, -0.6598588540209854 
0.519999999999959, -0.6597444235421189 
0.529999999999958, -0.6596891588479645 
0.5399999999999568, -0.6596478946786208 
0.5499999999999557, -0.6595903286028173 
0.5599999999999546, -0.6594950694083865 
0.5699999999999535, -0.659346076766303 
0.5799999999999524, -0.6591315004200625 
0.5899999999999513, -0.6588445846704175 
0.5999999999999502, -0.658485608966355 
0.6099999999999491, -0.6580630248511814 
0.619999999999948, -0.6575919673548476 
0.6299999999999469, -0.6570899089215652 
0.6399999999999458, -0.6565714949834797 
0.6499999999999447, -0.656045437555264 
0.6599999999999436, -0.6555148808159598 
0.6699999999999425, -0.6549803527922295 
0.6799999999999414, -0.6544432748689235 
0.6899999999999403, -0.6539085448704608 
0.6999999999999392, -0.6533859697384804 
0.7099999999999381, -0.6528911502137621 
0.719999999999937, -0.6524464658669954 
0.7299999999999359, -0.6520824121950493 
0.7399999999999348, -0.6518391167327877 
0.7499999999999337, -0.6517675889954873 
0.7599999999999326, -0.65193013147412 
0.7699999999999315, -0.6523992596397519 
0.7799999999999304, -0.6532542925246312 
0.7899999999999293, -0.654574310274511 
0.7999999999999282, -0.6564254536981162 
0.8099999999999271, -0.6588402696681015 
0.819999999999926, -0.6617889821879818 
0.8299999999999249, -0.6651500332307168 
0.8399999999999238, -0.6686994414593375 
0.8499999999999227, -0.6721436658154016 
0.8599999999999216, -0.6751991487701644 
0.8699999999999205, -0.677678727586488 
0.8799999999999194, -0.6795293887702605 
0.8899999999999183, -0.6808061366341044 
0.8999999999999172, -0.681615574528221 
0.9099999999999161, -0.6820682053456546 
0.919999999999915, -0.6822536693409169 
0.9299999999999139, -0.682233670951897 
0.9399999999999128, -0.6820430117927547 
0.9499999999999117, -0.6816921088805383 
0.9599999999999106, -0.6811677776223847 
0.9699999999999095, -0.68043101667756 
0.9799999999999084, -0.6794116028213647 
0.9899999999999073, -0.6780007583185876 
0.9999999999999062, -0.6760466982958129 
1.0099999999999052, -0.6733650411436798 
1.019999999999904, -0.6697842167098151 
1.029999999999903, -0.6652398177272117 
1.039999999999902, -0.6598877091917311 
1.0499999999999008, -0.6541424207986829 
1.0599999999998997, -0.6485635648507724 
1.0699999999998986, -0.6436478207327081 
1.0799999999998975, -0.6396771645804804 
1.0899999999998964, -0.6367009964950665 
1.0999999999998953, -0.6346095067887836 
1.1099999999998942, -0.6332226285312964 
1.119999999999893, -0.6323533779992077 
1.129999999999892, -0.6318401113694613 
1.1399999999998909, -0.6315568515019498 
1.1499999999998898, -0.6314118002372375 
1.1599999999998887, -0.631340973323889 
1.1699999999998876, -0.6313008337793443 
1.1799999999998865, -0.6312617999610699 
1.1899999999998854, -0.6312034151359567 
1.1999999999998843, -0.6311114378497331 
1.2099999999998832, -0.6309767969097575 
1.219999999999882, -0.6307959417582382 
1.229999999999881, -0.6305715075846906 
1.2399999999998799, -0.6303117811658299 
1.2499999999998788, -0.6300279398132684 
1.2599999999998777, -0.6297296478563651 
1.2699999999998766, -0.6294212145286054 
1.2799999999998755, -0.6291005605689565 
1.2899999999998744, -0.6287614831585978 
1.2999999999998733, -0.6283976492604478 
1.3099999999998722, -0.6280060818220619 
1.319999999999871, -0.6275889243271339 
1.32999999999987, -0.6271538116229377 
1.3399999999998689, -0.6267140003620965 
1.3499999999998678, -0.6262893043145398 
1.3599999999998666, -0.6259083640654651 
1.3699999999998655, -0.6256123122246692 
1.3799999999998644, -0.6254595446818249 
1.3899999999998633, -0.6255309110176521 
1.3999999999998622, -0.625933966643269 
1.4099999999998611, -0.626803740759775 
1.41999999999986, -0.628295560847134 
1.429999999999859, -0.630563099971152 
1.4399999999998578, -0.633714048371931 
1.4499999999998567, -0.6377425184194323 
1.4599999999998556, -0.6424594282341088 
1.4699999999998545, -0.6474744120208518 
1.4799999999998534, -0.65228420694136 
1.4899999999998523, -0.6564473460324387 
1.4999999999998512, -0.6597294655865287 
1.5099999999998501, -0.6621220719905144 
1.519999999999849, -0.6637581568770864 
1.529999999999848, -0.6648131599511208 
1.5399999999998468, -0.665444480982609 
1.5499999999998457, -0.6657703420719432 
1.5599999999998446, -0.6658697027914073 
1.5699999999998435, -0.6657886493661754 
1.5799999999998424, -0.6655462550182998 
1.5899999999998413, -0.6651375755764719 
1.5999999999998402, -0.6645335031778445 
1.6099999999998391, -0.6636783457590011 
1.619999999999838, -0.6624876956623661 
1.629999999999837, -0.6608523451342588 
1.6399999999998358, -0.6586578143262348 
1.6499999999998347, -0.6558278106623018 
1.6599999999998336, -0.6523840030128985 
1.6699999999998325, -0.6484863751993413 
1.6799999999998314, -0.6444113160442492 
1.6899999999998303, -0.6404678488247314 
1.6999999999998292, -0.6369061779699967 
1.709999999999828, -0.6338710678471637 
1.719999999999827, -0.6314064961450306 
1.729999999999826, -0.6294862891095021 
1.7399999999998248, -0.6280464470431906 
1.7499999999998237, -0.6270086454031946 
1.7599999999998226, -0.6262942591497704 
1.7699999999998215, -0.6258316394264158 
1.7799999999998204, -0.6255593162587697 
1.7899999999998193, -0.6254268787479625 
1.7999999999998182, -0.6253945469504385 
1.809999999999817, -0.6254320626787295 
1.819999999999816, -0.6255173529764437 
1.8299999999998149, -0.6256352894811674 
1.8399999999998138, -0.6257766531683657 
1.8499999999998127, -0.6259370717894861 
1.8599999999998116, -0.6261153456768765 
1.8699999999998105, -0.6263105635469036 
1.8799999999998094, -0.6265181135897631 
1.8899999999998083, -0.6267259991452943 
1.8999999999998072, -0.6269137982959718 
1.909999999999806, -0.6270558779375138 
1.919999999999805, -0.6271279180444331 
1.9299999999998039, -0.6271133137364175 
1.9399999999998028, -0.6270060924110882 
1.9499999999998017, -0.6268096618369695 
1.9599999999998006, -0.6265333488407434 
1.9699999999997995, -0.6261892768289861 
1.9799999999997984, -0.6257911608916288 
1.9899999999997973, -0.6253555594614626 
1.9999999999997962, -0.624905725691895 
2.0099999999998173, -0.6244782673227331 
2.0199999999998384, -0.624132811958926 
2.0299999999998595, -0.6239640999661742 
2.0399999999998806, -0.6241134484979052 
2.0499999999999017, -0.6247712948314503 
2.059999999999923, -0.6261549343602291 
2.069999999999944, -0.6284420955530974 
2.079999999999965, -0.6316594270984706 
2.089999999999986, -0.6355811560721754 
2.100000000000007, -0.6397463819108246 
2.1100000000000283, -0.6436410047982182 
2.1200000000000494, -0.6469153318192734 
2.1300000000000705, -0.6494612547969457 
2.1400000000000916, -0.6513401802770866 
2.1500000000001127, -0.6526775575564354 
2.160000000000134, -0.6535984254211928 
2.170000000000155, -0.6542045484489296 
2.180000000000176, -0.6545716275628801 
2.190000000000197, -0.654752464687018 
2.2000000000002182, -0.6547806288242237 
2.2100000000002393, -0.6546731094813083 
2.2200000000002604, -0.6544317307028897 
2.2300000000002815, -0.6540436283284465 
2.2400000000003026, -0.6534816972984756 
2.2500000000003237, -0.6527068775937882 
2.260000000000345, -0.6516751669702394 
2.270000000000366, -0.650351903852175 
2.280000000000387, -0.6487318560324914 
2.290000000000408, -0.6468561139806139 
2.3000000000004293, -0.6448127362185183 
2.3100000000004504, -0.6427163561768167 
2.3200000000004715, -0.6406778481218807 
2.3300000000004926, -0.6387814961351167 
2.3400000000005137, -0.6370781200773361 
2.3500000000005348, -0.635590548943562 
2.360000000000556, -0.6343234648059614 
2.370000000000577, -0.6332719967844143 
2.380000000000598, -0.6324271692239292 
2.390000000000619, -0.6317785744961346 
2.4000000000006403, -0.631315353861779 
2.4100000000006614, -0.6310264704195471 
2.4200000000006825, -0.6309009085538503 
2.4300000000007036, -0.630928085155734 
2.4400000000007247, -0.6310984846209173 
2.450000000000746, -0.6314043362608597 
2.460000000000767, -0.6318400061674618 
2.470000000000788, -0.6324016269195012 
2.480000000000809, -0.6330853389209404 
2.49000000000083, -0.6338835337966122 
2.5000000000008513, -0.6347790714958289 
2.5100000000008724, -0.6357389885183428 
2.5200000000008935, -0.6367113770380161 
2.5300000000009146, -0.6376299415354036 
2.5400000000009357, -0.6384275194868279 
2.550000000000957, -0.6390530835797497 
2.560000000000978, -0.6394826521908059 
2.570000000000999, -0.6397185896732277 
2.58000000000102, -0.6397800984668686 
2.5900000000010412, -0.6396918410025175 
2.6000000000010624, -0.6394756035096112 
2.6100000000010835, -0.639146073834033 
2.6200000000011046, -0.6387096553073974 
2.6300000000011257, -0.6381650041323162 
2.6400000000011468, -0.6375045581805334 
2.650000000001168, -0.6367168729880355 
2.660000000001189, -0.6357896329284499 
2.67000000000121, -0.6347123792691072 
2.680000000001231, -0.6334762360205295 
2.6900000000012523, -0.632067189290258 
2.7000000000012734, -0.6304561192795429 
2.7100000000012945, -0.6286073404252653 
2.7200000000013156, -0.6265341906304971 
2.7300000000013367, -0.6243745079692452 
2.740000000001358, -0.6223832574240283 
2.750000000001379, -0.6208052014676736 
2.7600000000014, -0.6197475285023649 
2.770000000001421, -0.6191645329470605 
2.780000000001442, -0.6189273413039683 
2.7900000000014633, -0.6188973456225779 
2.8000000000014844, -0.6189645880181298 
2.8100000000015055, -0.619055527976055 
2.8200000000015266, -0.6191261352175573 
2.8300000000015477, -0.619151522659002 
2.840000000001569, -0.6191169838617073 
2.85000000000159, -0.6190116494465508 
2.860000000001611, -0.6188246606529304 
2.870000000001632, -0.618543666257671 
2.8800000000016532, -0.6181557520423377 
2.8900000000016743, -0.6176509518160085 
2.9000000000016954, -0.6170276745197658 
2.9100000000017165, -0.6162976915776771 
2.9200000000017377, -0.6154871478635419 
2.9300000000017588, -0.6146315357716332 
2.94000000000178, -0.6137666129953228 
2.950000000001801, -0.6129202440479378 
2.960000000001822, -0.6121090864211227 
2.970000000001843, -0.6113403804377503 
2.9800000000018643, -0.610616409358729 
2.9900000000018854, -0.6099389896507788 
3.0000000000019065, -0.6093126594057665 
3.0100000000019276, -0.6087465429154174 
3.0200000000019487, -0.6082554488232914 
3.03000000000197, -0.6078607075556282 
3.040000000001991, -0.6075909687337321 
3.050000000002012, -0.6074829371987889 
3.060000000002033, -0.6075818892549394 
3.070000000002054, -0.6079417016108442 
3.0800000000020753, -0.6086239005827709 
3.0900000000020964, -0.6096947366497247 
3.1000000000021175, -0.6112184313353476 
3.1100000000021386, -0.6132438183453266 
3.1200000000021597, -0.6157818323930667 
3.130000000002181, -0.6187753263356912 
3.140000000002202, -0.6220730182190224 
3.150000000002223, -0.6254317147391214 
3.160000000002244, -0.6285675636269865 
3.1700000000022652, -0.6312426571701335 
3.1800000000022863, -0.6333341367144387 
3.1900000000023074, -0.6348423887920768 
3.2000000000023285, -0.6358477222686381 
3.2100000000023496, -0.6364566797100912 
3.2200000000023707, -0.636766202957053 
3.230000000002392, -0.6368488270453277 
3.240000000002413, -0.6367503927539788 
3.250000000002434, -0.6364920383316635 
3.260000000002455, -0.6360717953170753 
3.2700000000024763, -0.6354637880726584 
3.2800000000024974, -0.6346145299721194 
3.2900000000025185, -0.633437223485027 
3.3000000000025396, -0.6318078406953622 
3.3100000000025607, -0.6295723663588797 
3.3200000000025818, -0.6265809162193081 
3.330000000002603, -0.6227601271595578 
3.340000000002624, -0.6182029480448368 
3.350000000002645, -0.613207509685027 
3.360000000002666, -0.6082041908036213 
3.3700000000026873, -0.6036045227877048 
3.3800000000027084, -0.599678866835046 
3.3900000000027295, -0.5965267355938141 
3.4000000000027506, -0.5941178463352205 
3.4100000000027717, -0.5923519910807171 
3.420000000002793, -0.5911059654657878 
3.430000000002814, -0.5902607940767096 
3.440000000002835, -0.5897139365856173 
3.450000000002856, -0.5893827101039986 
3.460000000002877, -0.5892033793498463 
3.4700000000028983, -0.5891284769663752 
3.4800000000029194, -0.5891237015743406 
3.4900000000029405, -0.5891650893893783 
3.5000000000029616, -0.5892368049208121 
3.5100000000029827, -0.5893296329769606 
3.520000000003004, -0.5894399367588756 
3.530000000003025, -0.589568462595164 
3.540000000003046, -0.5897181424478766 
3.550000000003067, -0.5898903914264602 
3.5600000000030882, -0.590080539752622 
3.5700000000031094, -0.5902744548686902 
3.5800000000031305, -0.5904488460463855 
3.5900000000031516, -0.5905761710515763 
3.6000000000031727, -0.5906320739339148 
3.6100000000031938, -0.5906013542524354 
3.620000000003215, -0.5904796297797924 
3.630000000003236, -0.5902709969420776 
3.640000000003257, -0.5899841390956648 
3.650000000003278, -0.5896292373950593 
3.6600000000032993, -0.5892168335870569 
3.6700000000033204, -0.588758878879762 
3.6800000000033415, -0.5882719701639197 
3.6900000000033626, -0.5877828864904329 
3.7000000000033837, -0.5873364262975673 
3.710000000003405, -0.5870044628425364 
3.720000000003426, -0.5868920469651513 
3.730000000003447, -0.5871306181668204 
3.740000000003468, -0.5878428201838233 
3.750000000003489, -0.5890707090609645 
3.7600000000035103, -0.5906984962779962 
3.7700000000035314, -0.592454728867412 
3.7800000000035525, -0.5940467403623119 
3.7900000000035736, -0.5953232240892495 
3.8000000000035947, -0.5963013753716554 
3.810000000003616, -0.5970683405942728 
3.820000000003637, -0.5976924865159696 
3.830000000003658, -0.5982034199531251 
3.840000000003679, -0.5986085471960724 
3.8500000000037002, -0.5989098213581779 
3.8600000000037213, -0.5991105634341232 
3.8700000000037424, -0.5992155769088876 
3.8800000000037635, -0.5992289063067882 
3.8900000000037847, -0.5991515022341154 
3.9000000000038058, -0.5989795718833183 
3.910000000003827, -0.5987039472532484 
3.920000000003848, -0.5983109759073362 
3.930000000003869, -0.5977857151720432 
3.94000000000389, -0.5971179175719774 
3.9500000000039113, -0.5963097466741943 
3.9600000000039324, -0.5953816774151672 
3.9700000000039535, -0.59437199796853 
3.9800000000039746, -0.5933283950723351 
3.9900000000039957, -0.5922957309046325 
4.000000000004016, -0.5913067478345353 
4.010000000003993, -0.5903795404372452 
4.02000000000397, -0.5895208081695141 
4.030000000003946, -0.5887314632282843 
4.040000000003923, -0.5880117190650369 
4.0500000000039, -0.587364509845314 
4.0600000000038765, -0.5867974122396438 
4.070000000003853, -0.5863237097604432 
4.08000000000383, -0.5859631364593906 
4.090000000003807, -0.585742566486257 
4.100000000003783, -0.5856966999787999 
4.11000000000376, -0.5858686545070534 
4.120000000003737, -0.5863102095979279 
4.130000000003713, -0.5870811221571595 
4.14000000000369, -0.5882462797219808 
4.150000000003667, -0.5898684471917718 
4.1600000000036434, -0.591993409981312 
4.17000000000362, -0.5946249700030852 
4.180000000003597, -0.5976925926158784 
4.1900000000035735, -0.6010267074884008 
4.20000000000355, -0.6043687281194542 
4.210000000003527, -0.6074334783020777 
4.220000000003504, -0.610000022670761 
4.23000000000348, -0.6119719927067273 
4.240000000003457, -0.6133719643311263 
4.250000000003434, -0.6142910157344946 
4.26000000000341, -0.6148365492160501 
4.270000000003387, -0.6151012236916074 
4.280000000003364, -0.6151518633834661 
4.2900000000033405, -0.6150288786430457 
4.300000000003317, -0.6147486013800499 
4.310000000003294, -0.6143046223303638 
4.320000000003271, -0.6136666640389374 
4.330000000003247, -0.6127770040179967 
4.340000000003224, -0.6115462502511422 
4.350000000003201, -0.609853760341707 
4.360000000003177, -0.6075633722729146 
4.370000000003154, -0.6045674931561997 
4.380000000003131, -0.6008589849301218 
4.390000000003107, -0.5965940444292661 
4.400000000003084, -0.5920845215346581 
4.410000000003061, -0.5877008400886244 
4.4200000000030375, -0.583748973856655 
4.430000000003014, -0.580401840455456 
4.440000000002991, -0.5777036054313082 
4.450000000002968, -0.5756124466350402 
4.460000000002944, -0.5740451410118214 
4.470000000002921, -0.5729076943962398 
4.480000000002898, -0.5721116803355211 
4.490000000002874, -0.57158103327821 
4.500000000002851, -0.5712537063663626 
4.510000000002828, -0.5710809791940851 
4.520000000002804, -0.5710258869499609 
4.530000000002781, -0.5710614828545899 
4.540000000002758, -0.5711692670204289 
4.5500000000027345, -0.5713379012861669 
4.560000000002711, -0.5715621176423883 
4.570000000002688, -0.5718414376937054 
4.580000000002665, -0.572178023873074 
4.590000000002641, -0.5725729720638378 
4.600000000002618, -0.5730210389198944 
4.610000000002595, -0.5735052845454272 
4.620000000002571, -0.5739946636620948 
4.630000000002548, -0.5744475553632833 
4.640000000002525, -0.574821263363545 
4.6500000000025015, -0.5750830724620518 
4.660000000002478, -0.5752167772361412 
4.670000000002455, -0.575221924603604 
4.6800000000024315, -0.5751079541473008 
4.690000000002408, -0.5748873812168523 
4.700000000002385, -0.5745707757559878 
4.710000000002362, -0.5741641306237454 
4.720000000002338, -0.57366803360145 
4.730000000002315, -0.5730778655408013 
4.740000000002292, -0.5723843834937854 
4.750000000002268, -0.571573927918059 
4.760000000002245, -0.5706267164211972 
4.770000000002222, -0.5695103103914281 
4.7800000000021985, -0.5681653788645267 
4.790000000002175, -0.5664889262941628 
4.800000000002152, -0.5643433076328634 
4.810000000002129, -0.5616367566669148 
4.820000000002105, -0.558462679048737 
4.830000000002082, -0.5551565807548751 
4.840000000002059, -0.552152418167887 
4.850000000002035, -0.5497578833234998 
4.860000000002012, -0.5480557130022137 
4.870000000001989, -0.5469585891547054 
4.880000000001965, -0.5463111571234843 
4.890000000001942, -0.5459615211400959 
4.900000000001919, -0.5457905464670868 
4.9100000000018955, -0.5457151218451551 
4.920000000001872, -0.5456810653867287 
