t, s[1].omega / s[0].omega 
0, -0.6099977228602672 
0.009999999999999995, -0.6097621831577488 
0.019999999999999934, -0.6095101119555 
0.029999999999999874, -0.6092390118970286 
0.04000000000000012, -0.6089463682558465 
0.050000000000000405, -0.6086310846706828 
0.06000000000000069, -0.6082942821493103 
0.07000000000000098, -0.6079394321393077 
0.08000000000000126, -0.6075722276482927 
0.09000000000000155, -0.6072006599338906 
0.10000000000000184, -0.6068355969480362 
0.11000000000000212, -0.6064919529887869 
0.12000000000000241, -0.6061903711629248 
0.130000000000002, -0.6059591640322792 
0.1400000000000009, -0.6058359775217221 
0.1499999999999998, -0.6058681766208708 
0.1599999999999987, -0.6061103101013511 
0.1699999999999976, -0.6066164803366696 
0.1799999999999965, -0.6074258757868988 
0.1899999999999954, -0.6085425901243394 
0.1999999999999943, -0.609916966859824 
0.2099999999999932, -0.6114418547222046 
0.2199999999999921, -0.6129745226673909 
0.229999999999991, -0.6143783283882555 
0.2399999999999899, -0.6155605232886275 
0.2499999999999888, -0.6164852549404294 
0.2599999999999877, -0.6171618378057937 
0.2699999999999866, -0.6176234473909069 
0.2799999999999855, -0.6179094165277064 
0.2899999999999844, -0.6180552397371353 
0.2999999999999833, -0.6180886119690806 
0.3099999999999822, -0.6180286591715017 
0.3199999999999811, -0.617886350263725 
0.32999999999998, -0.617665084460761 
0.3399999999999789, -0.6173611348711312 
0.3499999999999778, -0.6169640893912982 
0.35999999999997667, -0.6164578293663681 
0.36999999999997557, -0.6158229520697172 
0.37999999999997447, -0.6150416141666378 
0.38999999999997337, -0.6141049764665824 
0.39999999999997227, -0.6130213899128577 
0.40999999999997117, -0.6118211730081607 
0.41999999999997006, -0.6105539326749518 
0.42999999999996896, -0.6092783769971737 
0.43999999999996786, -0.6080495507098753 
0.44999999999996676, -0.6069095711233724 
0.45999999999996566, -0.6058846118720977 
0.46999999999996456, -0.6049868880223956 
0.47999999999996346, -0.6042187904680427 
0.48999999999996235, -0.6035769325991163 
0.49999999999996125, -0.6030551383979195 
0.5099999999999602, -0.602646303841923 
0.519999999999959, -0.602343432583417 
0.529999999999958, -0.6021401795957797 
0.5399999999999568, -0.6020311373436724 
0.5499999999999557, -0.6020119787092153 
0.5599999999999546, -0.6020794658845581 
0.5699999999999535, -0.6022312448660292 
0.5799999999999524, -0.6024652642972731 
0.5899999999999513, -0.6027786006729924 
0.5999999999999502, -0.6031655105319242 
0.6099999999999491, -0.6036147999232543 
0.619999999999948, -0.6041072089729406 
0.6299999999999469, -0.6046142796630579 
0.6399999999999458, -0.6051004152881212 
0.6499999999999447, -0.6055286776018413 
0.6599999999999436, -0.6058684479381928 
0.6699999999999425, -0.6061013135021782 
0.6799999999999414, -0.6062224165941777 
0.6899999999999403, -0.6062374045603505 
0.6999999999999392, -0.6061573496387458 
0.7099999999999381, -0.6059940633327298 
0.719999999999937, -0.6057569471917935 
0.7299999999999359, -0.6054513409678689 
0.7399999999999348, -0.6050778315705926 
0.7499999999999337, -0.6046319989093186 
0.7599999999999326, -0.604104278214799 
0.7699999999999315, -0.6034798466575261 
0.7799999999999304, -0.6027387021199527 
0.7899999999999293, -0.601856532181128 
0.7999999999999282, -0.6008077504067593 
0.8099999999999271, -0.5995730117983655 
0.819999999999926, -0.5981530877264544 
0.8299999999999249, -0.5965862319509265 
0.8399999999999238, -0.5949573237807042 
0.8499999999999227, -0.5933843812859498 
0.8599999999999216, -0.5919828743387213 
0.8699999999999205, -0.5908291849818494 
0.8799999999999194, -0.5899455111460146 
0.8899999999999183, -0.5893090179606152 
0.8999999999999172, -0.5888722846843938 
0.9099999999999161, -0.5885819372332681 
0.919999999999915, -0.588389956569741 
0.9299999999999139, -0.5882581414418118 
0.9399999999999128, -0.5881582872286993 
0.9499999999999117, -0.5880704106331798 
0.9599999999999106, -0.5879804877878637 
0.9699999999999095, -0.5878784532633482 
0.9799999999999084, -0.587756785276364 
0.9899999999999073, -0.5876097945994827 
0.9999999999999062, -0.5874336018532464 
1.0099999999999052, -0.5872266096439432 
1.019999999999904, -0.5869900260438465 
1.029999999999903, -0.586727824162984 
1.039999999999902, -0.5864457028357701 
1.0499999999999008, -0.5861492362110396 
1.0599999999998997, -0.5858420790304588 
1.0699999999998986, -0.585525206840739 
1.0799999999998975, -0.5851975356442808 
1.0899999999998964, -0.5848574132894233 
1.0999999999998953, -0.5845041062463621 
1.1099999999998942, -0.584138704044591 
1.119999999999893, -0.5837644344686747 
1.129999999999892, -0.5833867563484796 
1.1399999999998909, -0.5830136353279858 
1.1499999999998898, -0.5826562542957634 
1.1599999999998887, -0.5823302300575516 
1.1699999999998876, -0.5820572502583075 
1.1799999999998865, -0.5818668569965335 
1.1899999999998854, -0.5817977927537007 
1.1999999999998843, -0.5818978127885324 
1.2099999999998832, -0.5822201936054515 
1.219999999999882, -0.5828147097162605 
1.229999999999881, -0.5837116625325564 
1.2399999999998799, -0.584901241516631 
1.2499999999998788, -0.5863173722246248 
1.2599999999998777, -0.5878403422285208 
1.2699999999998766, -0.5893259971937945 
1.2799999999998755, -0.5906494796939115 
1.2899999999998744, -0.5917371977752786 
1.2999999999998733, -0.5925708835662595 
1.3099999999998722, -0.5931704813619183 
1.319999999999871, -0.5935727099678392 
1.32999999999987, -0.5938159181830464 
1.3399999999998689, -0.5939326871877546 
1.3499999999998678, -0.5939474971201275 
1.3599999999998666, -0.5938767073362521 
1.3699999999998655, -0.5937292230740566 
1.3799999999998644, -0.5935071609027466 
1.3899999999998633, -0.5932063990539191 
1.3999999999998622, -0.5928172788786027 
1.4099999999998611, -0.5923260417721741 
1.41999999999986, -0.5917177837081568 
1.429999999999859, -0.5909814658866288 
1.4399999999998578, -0.590116407489599 
1.4499999999998567, -0.5891378469927504 
1.4599999999998556, -0.5880780613024086 
1.4699999999998545, -0.5869811269848239 
1.4799999999998534, -0.5858933284360643 
1.4899999999998523, -0.5848540069929165 
1.4999999999998512, -0.5838906807169437 
1.5099999999998501, -0.583018986077307 
1.519999999999849, -0.5822455627520053 
1.529999999999848, -0.5815716589296163 
1.5399999999998468, -0.5809961171515688 
1.5499999999998457, -0.5805173520271282 
1.5599999999998446, -0.5801344613178263 
1.5699999999998435, -0.5798477628645112 
1.5799999999998424, -0.5796590088963849 
1.5899999999998413, -0.5795714293838791 
1.5999999999998402, -0.5795896490149371 
1.6099999999998391, -0.5797194121318386 
1.619999999999838, -0.5799669277960416 
1.629999999999837, -0.5803375216306416 
1.6399999999998358, -0.5808332164033242 
1.6499999999998347, -0.5814490222316739 
1.6599999999998336, -0.5821683450281456 
1.6699999999998325, -0.5829591229334933 
1.6799999999998314, -0.5837735324197679 
1.6899999999998303, -0.584553876162143 
1.6999999999998292, -0.5852442499500653 
1.709999999999828, -0.5858031584083399 
1.719999999999827, -0.586210673524225 
1.729999999999826, -0.5864672819240077 
1.7399999999998248, -0.5865868614947897 
1.7499999999998237, -0.586588438695705 
1.7599999999998226, -0.5864899093723036 
1.7699999999998215, -0.5863044403794944 
1.7799999999998204, -0.5860388137053406 
1.7899999999998193, -0.5856926858211823 
1.7999999999998182, -0.5852580122064571 
1.809999999999817, -0.5847183004448578 
1.819999999999816, -0.5840478275561757 
1.8299999999998149, -0.5832116309724232 
1.8399999999998138, -0.5821680985866284 
1.8499999999998127, -0.5808770205691839 
1.8599999999998116, -0.5793154838504971 
1.8699999999998105, -0.5774993626370988 
1.8799999999998094, -0.575499426506069 
1.8899999999998083, -0.5734365874674964 
1.8999999999998072, -0.5714515833876004 
1.909999999999806, -0.569664719535034 
1.919999999999805, -0.5681487895742318 
1.9299999999998039, -0.5669252338038759 
1.9399999999998028, -0.5659769217147058 
1.9499999999998017, -0.5652655995974091 
1.9599999999998006, -0.5647461515238585 
1.9699999999997995, -0.5643753978626902 
1.9799999999997984, -0.5641162693937151 
1.9899999999997973, -0.5639390085249707 
1.9999999999997962, -0.5638207984941326 
2.0099999999998173, -0.5637447402244169 
2.0199999999998384, -0.5636987026363303 
2.0299999999998595, -0.5636743111738542 
2.0399999999998806, -0.5636661632639443 
2.0499999999999017, -0.5636712102832022 
2.059999999999923, -0.5636881009457673 
2.069999999999944, -0.56371619500866 
2.079999999999965, -0.5637540610650729 
2.089999999999986, -0.5637976659881393 
2.100000000000007, -0.5638390032618185 
2.1100000000000283, -0.5638661379738159 
2.1200000000000494, -0.5638651262629388 
2.1300000000000705, -0.5638231430076437 
2.1400000000000916, -0.5637312939896926 
2.1500000000001127, -0.5635858063189778 
2.160000000000134, -0.5633873859155185 
2.170000000000155, -0.5631395163629068 
2.180000000000176, -0.5628466956897483 
2.190000000000197, -0.5625132406975986 
2.2000000000002182, -0.5621428355431031 
2.2100000000002393, -0.561738741833082 
2.2200000000002604, -0.5613045045807336 
2.2300000000002815, -0.5608449405160052 
2.2400000000003026, -0.5603670467746318 
2.2500000000003237, -0.5598801628878454 
2.260000000000345, -0.5593944208023903 
2.270000000000366, -0.5589168535251443 
2.280000000000387, -0.558446515157041 
2.290000000000408, -0.5579734346097365 
2.3000000000004293, -0.5574869775395033 
2.3100000000004504, -0.5569911783474328 
2.3200000000004715, -0.556512822851071 
2.3300000000004926, -0.5560909402734012 
2.3400000000005137, -0.5557558042246143 
2.3500000000005348, -0.5555155992688207 
2.360000000000556, -0.55535788521862 
2.370000000000577, -0.5552593640826535 
2.380000000000598, -0.5551953055633867 
2.390000000000619, -0.5551448409319293 
2.4000000000006403, -0.5550924526414474 
2.4100000000006614, -0.5550273100145185 
2.4200000000006825, -0.5549418412679142 
2.4300000000007036, -0.5548303393866018 
2.4400000000007247, -0.5546879792229815 
2.450000000000746, -0.5545104228639931 
2.460000000000767, -0.5542940967269648 
2.470000000000788, -0.5540370927815215 
2.480000000000809, -0.5537403782763712 
2.49000000000083, -0.5534086550568298 
2.5000000000008513, -0.5530500926521891 
2.5100000000008724, -0.5526746097942787 
2.5200000000008935, -0.5522912950616857 
2.5300000000009146, -0.5519062373017858 
2.5400000000009357, -0.551521827771615 
2.550000000000957, -0.5511376532328407 
2.560000000000978, -0.5507522271727842 
2.570000000000999, -0.5503646198038973 
2.58000000000102, -0.5499754808858415 
2.5900000000010412, -0.5495875102495451 
2.6000000000010624, -0.5492057335826187 
2.6100000000010835, -0.5488379429066363 
2.6200000000011046, -0.5484955176423246 
2.6300000000011257, -0.5481946834967273 
2.6400000000011468, -0.5479581117406422 
2.650000000001168, -0.5478165452449704 
2.660000000001189, -0.5478097600793628 
2.67000000000121, -0.5479855606799383 
2.680000000001231, -0.5483947666272436 
2.6900000000012523, -0.549079883605689 
2.7000000000012734, -0.5500568143275275 
2.7100000000012945, -0.5512942775235488 
2.7200000000013156, -0.5527033648888673 
2.7300000000013367, -0.5541516167616529 
2.740000000001358, -0.5555021269701812 
2.750000000001379, -0.5566558223158937 
2.7600000000014, -0.5575705325925486 
2.770000000001421, -0.5582516950580422 
2.780000000001442, -0.5587302609920441 
2.7900000000014633, -0.5590438212193046 
2.8000000000014844, -0.559226335062421 
2.8100000000015055, -0.5593044967583911 
2.8200000000015266, -0.5592973839737388 
2.8300000000015477, -0.559217189730006 
2.840000000001569, -0.5590700680986 
2.85000000000159, -0.5588568433332038 
2.860000000001611, -0.5585737061866518 
2.870000000001632, -0.5582132560689412 
2.8800000000016532, -0.5577663928719022 
2.8900000000016743, -0.5572254754371919 
2.9000000000016954, -0.5565885848868752 
2.9100000000017165, -0.5558636216839583 
2.9200000000017377, -0.5550700187620732 
2.9300000000017588, -0.5542363404734604 
2.94000000000178, -0.5533943159896695 
2.950000000001801, -0.5525721927357491 
2.960000000001822, -0.5517904858794371 
2.970000000001843, -0.5510612656509946 
2.9800000000018643, -0.5503900579915773 
2.9900000000018854, -0.5497786938454754 
3.0000000000019065, -0.5492278820891501 
3.0100000000019276, -0.5487390475779733 
3.0200000000019487, -0.5483154971430545 
3.03000000000197, -0.5479631552280588 
3.040000000001991, -0.5476910802369558 
3.050000000002012, -0.5475118691536995 
3.060000000002033, -0.5474419425809605 
3.070000000002054, -0.5475015725907242 
3.0800000000020753, -0.5477143408715333 
3.0900000000020964, -0.5481054735946917 
3.1000000000021175, -0.5486982416545394 
3.1100000000021386, -0.5495075681804897 
3.1200000000021597, -0.5505306658037031 
3.130000000002181, -0.5517365862760724 
3.140000000002202, -0.553059861138569 
3.150000000002223, -0.5544054106009637 
3.160000000002244, -0.5556680863966943 
3.1700000000022652, -0.5567599663946577 
3.1800000000022863, -0.5576306866350353 
3.1900000000023074, -0.5582706086524684 
3.2000000000023285, -0.5586993728030109 
3.2100000000023496, -0.5589499755866326 
3.2200000000023707, -0.5590563309661442 
3.230000000002392, -0.5590465002419822 
3.240000000002413, -0.558940183832584 
3.250000000002434, -0.5587483656938941 
3.260000000002455, -0.5584736270684915 
3.2700000000024763, -0.5581104445592556 
3.2800000000024974, -0.5576454345398391 
3.2900000000025185, -0.5570580811468078 
3.3000000000025396, -0.556323070991441 
3.3100000000025607, -0.5554157193804649 
3.3200000000025818, -0.5543213253785226 
3.330000000002603, -0.5530467122064621 
3.340000000002624, -0.5516283893210272 
3.350000000002645, -0.5501305446478406 
3.360000000002666, -0.5486311833155129 
3.3700000000026873, -0.5472031054185663 
3.3800000000027084, -0.5458996103955742 
3.3900000000027295, -0.544750002935392 
3.4000000000027506, -0.5437631557587935 
3.4100000000027717, -0.542934435592818 
3.420000000002793, -0.5422522932606667 
3.430000000002814, -0.5417029765177869 
3.440000000002835, -0.5412733247752503 
3.450000000002856, -0.540952182111559 
3.460000000002877, -0.5407309927343447 
3.4700000000028983, -0.5406039773340111 
3.4800000000029194, -0.540568106651494 
3.4900000000029405, -0.5406229377566503 
3.5000000000029616, -0.5407702488511796 
3.5100000000029827, -0.5410132796404984 
3.520000000003004, -0.5413552632715117 
3.530000000003025, -0.5417968993804501 
3.540000000003046, -0.542332645655141 
3.550000000003067, -0.5429464189273838 
3.5600000000030882, -0.5436084717165793 
3.5700000000031094, -0.5442761067609241 
3.5800000000031305, -0.5449000646066254 
3.5900000000031516, -0.5454351899117452 
3.6000000000031727, -0.5458504540645448 
3.6100000000031938, -0.5461332872149013 
3.620000000003215, -0.5462870435409217 
3.630000000003236, -0.5463244803028225 
3.640000000003257, -0.5462610380398686 
3.650000000003278, -0.546110031677624 
3.6600000000032993, -0.54587994092825 
3.6700000000033204, -0.5455730523869067 
3.6800000000033415, -0.5451846269394766 
3.6900000000033626, -0.5447020611107265 
3.7000000000033837, -0.5441039318010674 
3.710000000003405, -0.5433593987832936 
3.720000000003426, -0.5424293467489038 
3.730000000003447, -0.5412717939130072 
3.740000000003468, -0.5398544433762779 
3.750000000003489, -0.538174392844159 
3.7600000000035103, -0.53627742054846 
3.7700000000035314, -0.5342621032531111 
3.7800000000035525, -0.5322589335118801 
3.7900000000035736, -0.530393107117637 
3.8000000000035947, -0.5287529289598274 
3.810000000003616, -0.5273787469640241 
3.820000000003637, -0.5262704899836197 
3.830000000003658, -0.5254030052478986 
3.840000000003679, -0.5247402755421198 
3.8500000000037002, -0.5242449910397458 
3.8600000000037213, -0.5238836279305116 
3.8700000000037424, -0.5236284506454953 
3.8800000000037635, -0.5234577994089908 
3.8900000000037847, -0.523355589559455 
3.9000000000038058, -0.5233105484588026 
3.910000000003827, -0.5233154402139847 
3.920000000003848, -0.5233663452409496 
3.930000000003869, -0.5234619174439544 
3.94000000000389, -0.5236024103765806 
3.9500000000039113, -0.5237881827441327 
3.9600000000039324, -0.5240174829296822 
3.9700000000039535, -0.5242837169705932 
3.9800000000039746, -0.5245731065307261 
3.9900000000039957, -0.5248642272703753 
4.000000000004016, -0.5251306258521722 
4.010000000003993, -0.5253461516210809 
4.02000000000397, -0.525490700120486 
4.030000000003946, -0.5255535521650853 
4.040000000003923, -0.5255330732213661 
4.0500000000039, -0.5254337271945209 
4.0600000000038765, -0.5252623144438124 
4.070000000003853, -0.5250248359842999 
4.08000000000383, -0.524724400181316 
4.090000000003807, -0.5243599249616278 
4.100000000003783, -0.5239251834684284 
4.11000000000376, -0.5234078095779257 
4.120000000003737, -0.5227880845746082 
4.130000000003713, -0.5220377157191645 
4.14000000000369, -0.5211196197409823 
4.150000000003667, -0.5199911352573491 
4.1600000000036434, -0.518614482135163 
4.17000000000362, -0.516976929358019 
4.180000000003597, -0.5151152013447929 
4.1900000000035735, -0.5131269558112614 
4.20000000000355, -0.5111523066265403 
4.210000000003527, -0.5093303539477861 
4.220000000003504, -0.5077582657135731 
4.23000000000348, -0.5064757567916428 
4.240000000003457, -0.5054745880132087 
4.250000000003434, -0.5047185463741878 
4.26000000000341, -0.5041614443247342 
4.270000000003387, -0.5037584816664401 
4.280000000003364, -0.5034715531889167 
4.2900000000033405, -0.5032706933678395 
4.300000000003317, -0.5031335871234527 
4.310000000003294, -0.5030443677398324 
4.320000000003271, -0.5029923413490185 
4.330000000003247, -0.5029709121813201 
4.340000000003224, -0.5029767642741307 
4.350000000003201, -0.5030091975362405 
4.360000000003177, -0.5030693735858451 
4.370000000003154, -0.5031591317914252 
4.380000000003131, -0.5032791107842212 
4.390000000003107, -0.5034262940254413 
4.400000000003084, -0.5035917532170638 
4.410000000003061, -0.5037598951342737 
4.4200000000030375, -0.5039102842663801 
4.430000000003014, -0.5040218282561159 
4.440000000002991, -0.5040775150061616 
4.450000000002968, -0.504067401078152 
4.460000000002944, -0.5039887255487143 
4.470000000002921, -0.5038437602119559 
4.480000000002898, -0.5036368577238812 
4.490000000002874, -0.5033718542011226 
4.500000000002851, -0.5030502311254941 
4.510000000002828, -0.5026698856168484 
4.520000000002804, -0.5022241482702374 
4.530000000002781, -0.5017007046847672 
4.540000000002758, -0.5010802266016071 
4.5500000000027345, -0.5003348759969348 
4.560000000002711, -0.4994276829594487 
4.570000000002688, -0.49831537737463405 
4.580000000002665, -0.4969589161079343 
4.590000000002641, -0.4953445667886389 
4.600000000002618, -0.49350958439875825 
4.610000000002595, -0.4915536664135046 
4.620000000002571, -0.4896183455193107 
4.630000000002548, -0.48784123756224507 
4.640000000002525, -0.4863151999697307 
4.6500000000025015, -0.48507497708540076 
4.660000000002478, -0.48410879229547177 
4.670000000002455, -0.4833790817947897 
4.6800000000024315, -0.48284013810913057 
4.690000000002408, -0.482448727639236 
4.700000000002385, -0.4821687473499092 
4.710000000002362, -0.4819722659775215 
4.720000000002338, -0.48183885561304257 
4.730000000002315, -0.4817543606894038 
4.740000000002292, -0.4817096736820002 
4.750000000002268, -0.4816997361956723 
4.760000000002245, -0.4817227736370985 
4.770000000002222, -0.48177961425122423 
4.7800000000021985, -0.48187280271119254 
4.790000000002175, -0.4820051427101351 
4.800000000002152, -0.4821774288747635 
4.810000000002129, -0.48238559493987765 
4.820000000002105, -0.4826182494941391 
4.830000000002082, -0.48285612956444857 
4.840000000002059, -0.48307463609579865 
4.850000000002035, -0.48324902236783196 
4.860000000002012, -0.48335994374526203 
4.870000000001989, -0.48339667020837884 
4.880000000001965, -0.48335683608690677 
4.890000000001942, -0.48324366166037497 
4.900000000001919, -0.48306242970747304 
4.9100000000018955, -0.482817495284003 
4.920000000001872, -0.4825101877422062 
