t, s[1].omega / s[0].omega 
0, -0.5099977542938592 
0.009999999999999995, -0.5097893467585398 
0.019999999999999934, -0.5096062068607943 
0.029999999999999874, -0.5094308979213493 
0.04000000000000012, -0.5092418261706936 
0.050000000000000405, -0.5090201865772933 
0.06000000000000069, -0.5087542070912224 
0.07000000000000098, -0.5084398015908717 
0.08000000000000126, -0.5080789504371988 
0.09000000000000155, -0.5076778283036121 
0.10000000000000184, -0.5072461442086096 
0.11000000000000212, -0.5067984010159379 
0.12000000000000241, -0.5063574086505561 
0.130000000000002, -0.505960287178872 
0.1400000000000009, -0.5056668048436495 
0.1499999999999998, -0.5055681540119896 
0.1599999999999987, -0.5057893791194674 
0.1699999999999976, -0.5064690066183801 
0.1799999999999965, -0.5076897661019534 
0.1899999999999954, -0.509351362800018 
0.1999999999999943, -0.5110661034683643 
0.2099999999999932, -0.5122708398082964 
0.2199999999999921, -0.5126072307637076 
0.229999999999991, -0.5121979085446633 
0.2399999999999899, -0.5114747895592875 
0.2499999999999888, -0.5108153049935062 
0.2599999999999877, -0.510380532304321 
0.2699999999999866, -0.510167310885908 
0.2799999999999855, -0.5101077623507516 
0.2899999999999844, -0.5101304546553386 
0.2999999999999833, -0.510181695836956 
0.3099999999999822, -0.5102266461381456 
0.3199999999999811, -0.5102440667662675 
0.32999999999998, -0.510220750427204 
0.3399999999999789, -0.510147520096909 
0.3499999999999778, -0.5100171708301194 
0.35999999999997667, -0.5098243790406302 
0.36999999999997557, -0.5095674436121232 
0.37999999999997447, -0.5092511772069601 
0.38999999999997337, -0.508889263493258 
0.39999999999997227, -0.5085037335199385 
0.40999999999997117, -0.5081201863136915 
0.41999999999997006, -0.5077600834610629 
0.42999999999996896, -0.5074338200144227 
0.43999999999996786, -0.5071381261039896 
0.44999999999996676, -0.506858858562431 
0.45999999999996566, -0.5065773424648586 
0.46999999999996456, -0.5062769145051121 
0.47999999999996346, -0.5059469606460634 
0.48999999999996235, -0.5055838379591051 
0.49999999999996125, -0.5051899311888873 
0.5099999999999602, -0.5047726357494968 
0.519999999999959, -0.5043446016312129 
0.529999999999958, -0.5039259876549793 
0.5399999999999568, -0.5035492136873778 
0.5499999999999557, -0.5032666317370891 
0.5599999999999546, -0.5031611095001072 
0.5699999999999535, -0.5033576285978051 
0.5799999999999524, -0.5040286639490397 
0.5899999999999513, -0.50537522857039 
0.5999999999999502, -0.5075529346973643 
0.6099999999999491, -0.5105247542419278 
0.619999999999948, -0.5139116262940112 
0.6299999999999469, -0.517048044934009 
0.6399999999999458, -0.5193556575386988 
0.6499999999999447, -0.5207106032729792 
0.6599999999999436, -0.521391289203419 
0.6699999999999425, -0.521750963930325 
0.6799999999999414, -0.5220093293772512 
0.6899999999999403, -0.5222461047832418 
0.6999999999999392, -0.5224676923549014 
0.7099999999999381, -0.5226584840257283 
0.719999999999937, -0.5228031268928933 
0.7299999999999359, -0.5228916474745745 
0.7399999999999348, -0.5229180962930766 
0.7499999999999337, -0.5228779275240296 
0.7599999999999326, -0.5227660388313241 
0.7699999999999315, -0.5225761501779775 
0.7799999999999304, -0.5223019124192974 
0.7899999999999293, -0.5219399315091303 
0.7999999999999282, -0.5214941333816581 
0.8099999999999271, -0.5209794820010185 
0.819999999999926, -0.5204220675722134 
0.8299999999999249, -0.5198537899819249 
0.8399999999999238, -0.519303369227319 
0.8499999999999227, -0.518788297102512 
0.8599999999999216, -0.5183117726260841 
0.8699999999999205, -0.517865387856268 
0.8799999999999194, -0.5174352577332749 
0.8899999999999183, -0.5170082620754067 
0.8999999999999172, -0.5165761034040882 
0.9099999999999161, -0.5161368396603396 
0.919999999999915, -0.5156950321401003 
0.9299999999999139, -0.5152620305153586 
0.9399999999999128, -0.5148575730716916 
0.9499999999999117, -0.5145134662762921 
0.9599999999999106, -0.5142799234605762 
0.9699999999999095, -0.5142350539076705 
0.9799999999999084, -0.514497518938996 
0.9899999999999073, -0.5152405403251863 
0.9999999999999062, -0.5167004711744071 
1.0099999999999052, -0.5191627963918836 
1.019999999999904, -0.5228943403446198 
1.029999999999903, -0.5279915494797143 
1.039999999999902, -0.5341788980454061 
1.0499999999999008, -0.5407331787549063 
1.0599999999998997, -0.5467401715679565 
1.0699999999998986, -0.5515614399442207 
1.0799999999998975, -0.5550679250475632 
1.0899999999998964, -0.5574830937610213 
1.0999999999998953, -0.5591157379336039 
1.1099999999998942, -0.5602159197628616 
1.119999999999893, -0.5609512902761696 
1.129999999999892, -0.561427554633526 
1.1399999999998909, -0.5617107441896366 
1.1499999999998898, -0.5618415112643513 
1.1599999999998887, -0.5618428997328803 
1.1699999999998876, -0.5617243478014339 
1.1799999999998865, -0.5614839243597627 
1.1899999999998854, -0.5611103527470662 
1.1999999999998843, -0.5605864298125075 
1.2099999999998832, -0.5598954313643933 
1.219999999999882, -0.5590309200503348 
1.229999999999881, -0.558007227384869 
1.2399999999998799, -0.5568643571815637 
1.2499999999998788, -0.5556617630542465 
1.2599999999998777, -0.5544625715663891 
1.2699999999998766, -0.5533172213404344 
1.2799999999998755, -0.5522551299582723 
1.2899999999998744, -0.551286131280049 
1.2999999999998733, -0.5504076750295374 
1.3099999999998722, -0.5496128528089254 
1.319999999999871, -0.5488964171808169 
1.32999999999987, -0.5482583120222699 
1.3399999999998689, -0.5477055271534625 
1.3499999999998678, -0.5472533279796127 
1.3599999999998666, -0.546926609891988 
1.3699999999998655, -0.546761747827148 
1.3799999999998644, -0.5468090406343912 
1.3899999999998633, -0.5471356449653881 
1.3999999999998622, -0.5478285727148366 
1.4099999999998611, -0.5489965915362389 
1.41999999999986, -0.5507683005298478 
1.429999999999859, -0.5532808989228759 
1.4399999999998578, -0.5566508458948471 
1.4499999999998567, -0.5609177016033037 
1.4599999999998556, -0.5659658448174467 
1.4699999999998545, -0.571464332941395 
1.4799999999998534, -0.5768999887596237 
1.4899999999998523, -0.5817407559341072 
1.4999999999998512, -0.5856379172731343 
1.5099999999998501, -0.5885125257936944 
1.519999999999849, -0.5904881399790073 
1.529999999999848, -0.5917668272952682 
1.5399999999998468, -0.5925403703880958 
1.5499999999998457, -0.5929550100110403 
1.5599999999998446, -0.5931084721400978 
1.5699999999998435, -0.5930579316963526 
1.5799999999998424, -0.5928280817774215 
1.5899999999998413, -0.5924157695870967 
1.5999999999998402, -0.5917909612671207 
1.6099999999998391, -0.5908955476840552 
1.619999999999838, -0.5896437678604958 
1.629999999999837, -0.5879316192280527 
1.6399999999998358, -0.585665125461891 
1.6499999999998347, -0.5828106323681603 
1.6599999999998336, -0.5794471964072547 
1.6699999999998325, -0.5757780142665175 
1.6799999999998314, -0.5720753326091128 
1.6899999999998303, -0.5685908186012877 
1.6999999999998292, -0.5654919069772655 
1.709999999999828, -0.5628509423755679 
1.719999999999827, -0.5606698034121621 
1.729999999999826, -0.5589120610718371 
1.7399999999998248, -0.5575272456558475 
1.7499999999998237, -0.5564645730040911 
1.7599999999998226, -0.5556789805673803 
1.7699999999998215, -0.5551329280409605 
1.7799999999998204, -0.5547963799741342 
1.7899999999998193, -0.554646293541233 
1.7999999999998182, -0.5546661981470573 
1.809999999999817, -0.5548460380847182 
1.819999999999816, -0.5551822128738347 
1.8299999999998149, -0.5556775474029867 
1.8399999999998138, -0.5563406352969691 
1.8499999999998127, -0.5571835820745196 
1.8599999999998116, -0.5582167968206784 
1.8699999999998105, -0.5594396965303939 
1.8799999999998094, -0.5608279547692252 
1.8899999999998083, -0.5623219055754591 
1.8999999999998072, -0.5638251780612726 
1.909999999999806, -0.5652216725375474 
1.919999999999805, -0.5664074653593096 
1.9299999999998039, -0.5673197819215978 
1.9399999999998028, -0.5679454271695962 
1.9499999999998017, -0.5683078802591021 
1.9599999999998006, -0.5684461488558281 
1.9699999999997995, -0.568397452788019 
1.9799999999997984, -0.5681873774395346 
1.9899999999997973, -0.5678253158770796 
1.9999999999997962, -0.5673016519692985 
2.0099999999998173, -0.5665837687547428 
2.0199999999998384, -0.5656087008858421 
2.0299999999998595, -0.564270852106272 
2.0399999999998806, -0.5624050840168788 
2.0499999999999017, -0.5597724327206869 
2.059999999999923, -0.5560731422962408 
2.069999999999944, -0.5510344069446578 
2.079999999999965, -0.5446021508428047 
2.089999999999986, -0.5371411092362409 
2.100000000000007, -0.5294147316604214 
2.1100000000000283, -0.5222669392779228 
2.1200000000000494, -0.5162683124534533 
2.1300000000000705, -0.511601566451097 
2.1400000000000916, -0.508166692380153 
2.1500000000001127, -0.5057383292844532 
2.160000000000134, -0.5040747626487754 
2.170000000000155, -0.5029678214761427 
2.180000000000176, -0.5022558972001228 
2.190000000000197, -0.5018205264838651 
2.2000000000002182, -0.5015779665961347 
2.2100000000002393, -0.501470698518087 
2.2200000000002604, -0.5014605119428692 
2.2300000000002815, -0.5015234739670571 
2.2400000000003026, -0.501646605171702 
2.2500000000003237, -0.5018258817290502 
2.260000000000345, -0.5020649432523163 
2.270000000000366, -0.5023735278854247 
2.280000000000387, -0.5027643624954266 
2.290000000000408, -0.5032474596143923 
2.3000000000004293, -0.5038219879992865 
2.3100000000004504, -0.5044681164152526 
2.3200000000004715, -0.5051434975526476 
2.3300000000004926, -0.5057889902801451 
2.3400000000005137, -0.5063435312622043 
2.3500000000005348, -0.5067609098247469 
2.360000000000556, -0.5070188738117584 
2.370000000000577, -0.5071169429550925 
2.380000000000598, -0.507067077923801 
2.390000000000619, -0.5068835431012513 
2.4000000000006403, -0.5065754058766063 
2.4100000000006614, -0.5061416815241874 
2.4200000000006825, -0.5055674312145941 
2.4300000000007036, -0.5048186991176374 
2.4400000000007247, -0.503834023264732 
2.450000000000746, -0.5025101131971185 
2.460000000000767, -0.5006805329992894 
2.470000000000788, -0.49809367204774163 
2.480000000000809, -0.49441849910838975 
2.49000000000083, -0.4893399498652924 
2.5000000000008513, -0.48278797468892537 
2.5100000000008724, -0.47517760299552914 
2.5200000000008935, -0.4673647277436065 
2.5300000000009146, -0.4602474606961584 
2.5400000000009357, -0.4543751903354269 
2.550000000000957, -0.44987023228261086 
2.560000000000978, -0.4465804547416827 
2.570000000000999, -0.44425487281329107 
2.58000000000102, -0.44264839281644053 
2.5900000000010412, -0.4415616504194106 
2.6000000000010624, -0.44084625804660227 
2.6100000000010835, -0.4403971858832237 
2.6200000000011046, -0.4401427177716912 
2.6300000000011257, -0.44003579627102996 
2.6400000000011468, -0.440047657521741 
2.650000000001168, -0.4401636201028613 
2.660000000001189, -0.4403805852644636 
2.67000000000121, -0.4407056550416308 
2.680000000001231, -0.44115501490587805 
2.6900000000012523, -0.44175179674740994 
2.7000000000012734, -0.4425212086970459 
2.7100000000012945, -0.4434812853969035 
2.7200000000013156, -0.4446290596702096 
2.7300000000013367, -0.44592575125642153 
2.740000000001358, -0.447289970258334 
2.750000000001379, -0.4486094687379463 
2.7600000000014, -0.4497721010514045 
2.770000000001421, -0.45069954950026403 
2.780000000001442, -0.45136266549828646 
2.7900000000014633, -0.4517730270719674 
2.8000000000014844, -0.4519625707504524 
2.8100000000015055, -0.45196496231016214 
2.8200000000015266, -0.4518040665880287 
2.8300000000015477, -0.4514880592223064 
2.840000000001569, -0.45100573823746115 
2.85000000000159, -0.4503223063346734 
2.860000000001611, -0.44937348138483213 
2.870000000001632, -0.44805941653317427 
2.8800000000016532, -0.4462450785409998 
2.8900000000016743, -0.4437816743632282 
2.9000000000016954, -0.44056638330176 
2.9100000000017165, -0.43663395077117195 
2.9200000000017377, -0.43221846327149016 
2.9300000000017588, -0.42770443612055764 
2.94000000000178, -0.4234778504371703 
2.950000000001801, -0.41979329416281913 
2.960000000001822, -0.41674130240335155 
2.970000000001843, -0.4142940896590023 
2.9800000000018643, -0.4123681131536519 
2.9900000000018854, -0.41086858453832464 
3.0000000000019065, -0.40971176433494405 
3.0100000000019276, -0.4088326254167144 
3.0200000000019487, -0.40818547159544966 
3.03000000000197, -0.4077421803395659 
3.040000000001991, -0.40749037645081343 
3.050000000002012, -0.407432520556417 
3.060000000002033, -0.4075862817361056 
3.070000000002054, -0.4079862789273127 
3.0800000000020753, -0.4086870040130496 
3.0900000000020964, -0.409766139711018 
3.1000000000021175, -0.4113260753583902 
3.1100000000021386, -0.41348859557870893 
3.1200000000021597, -0.4163734223818061 
3.130000000002181, -0.4200486187459796 
3.140000000002202, -0.4244505787779473 
3.150000000002223, -0.4293083899752051 
3.160000000002244, -0.4341554380933358 
3.1700000000022652, -0.43848459292955655 
3.1800000000022863, -0.4419590052489707 
3.1900000000023074, -0.4445054279748472 
3.2000000000023285, -0.44624498663962164 
3.2100000000023496, -0.4473682348252307 
3.2200000000023707, -0.4480506249660726 
3.230000000002392, -0.4484225897832184 
3.240000000002413, -0.44856986061878124 
3.250000000002434, -0.44854283475222667 
3.260000000002455, -0.44836555797350675 
3.2700000000024763, -0.44804215017506854 
3.2800000000024974, -0.44756158626907905 
3.2900000000025185, -0.4469030475393912 
3.3000000000025396, -0.44604452978301073 
3.3100000000025607, -0.4449762258624953 
3.3200000000025818, -0.44371593022325906 
3.330000000002603, -0.4423177235131524 
3.340000000002624, -0.44086449449026743 
3.350000000002645, -0.4394449838231136 
3.360000000002666, -0.43812873971741195 
3.3700000000026873, -0.43695300300351947 
3.3800000000027084, -0.43592455618481685 
3.3900000000027295, -0.4350302431148466 
3.4000000000027506, -0.43424867760187 
3.4100000000027717, -0.4335590096668439 
3.420000000002793, -0.4329459478640086 
3.430000000002814, -0.43240204824583317 
3.440000000002835, -0.43192880710626963 
3.450000000002856, -0.4315379205417014 
3.460000000002877, -0.43125371344780933 
3.4700000000028983, -0.4311174922354294 
3.4800000000029194, -0.43119447165973906 
3.4900000000029405, -0.4315837327225262 
3.5000000000029616, -0.43243076888875437 
3.5100000000029827, -0.4339392078431262 
3.520000000003004, -0.4363707612058455 
3.530000000003025, -0.4400080955154538 
3.540000000003046, -0.44504100290095466 
3.550000000003067, -0.4513596854491178 
3.5600000000030882, -0.4583642110043914 
3.5700000000031094, -0.46506029555255674 
3.5800000000031305, -0.47054978346566073 
3.5900000000031516, -0.4744949977942299 
3.6000000000031727, -0.4770975205927379 
3.6100000000031938, -0.4787584065181936 
3.620000000003215, -0.4798233916217951 
3.630000000003236, -0.4805170999590934 
3.640000000003257, -0.4809692883954419 
3.650000000003278, -0.4812527975293399 
3.6600000000032993, -0.4814089299090343 
3.6700000000033204, -0.4814609458939117 
3.6800000000033415, -0.4814206842964258 
3.6900000000033626, -0.4812919946431934 
3.7000000000033837, -0.4810732020003961 
3.710000000003405, -0.4807600422607819 
3.720000000003426, -0.48034994552585575 
3.730000000003447, -0.47984752736381886 
3.740000000003468, -0.47926941908901977 
3.750000000003489, -0.4786451612707798 
3.7600000000035103, -0.47801187825176267 
3.7700000000035314, -0.4774042909557504 
3.7800000000035525, -0.4768451399531563 
3.7900000000035736, -0.4763407797925918 
3.8000000000035947, -0.47588319191837236 
3.810000000003616, -0.4754562526536157 
3.820000000003637, -0.47504277158383257 
3.830000000003658, -0.4746295586077266 
3.840000000003679, -0.4742096361345265 
3.8500000000037002, -0.4737824208181628 
3.8600000000037213, -0.4733534024527398 
3.8700000000037424, -0.47293465031615056 
3.8800000000037635, -0.47254702102787605 
3.8900000000037847, -0.47222466943194297 
3.9000000000038058, -0.4720223550805781 
3.910000000003827, -0.4720256475529287 
3.920000000003848, -0.4723624621855291 
3.930000000003869, -0.4732094592714352 
3.94000000000389, -0.47477617861780336 
3.9500000000039113, -0.47723530582473267 
3.9600000000039324, -0.48057240733337914 
3.9700000000039535, -0.4844103673227355 
3.9800000000039746, -0.48802252298246707 
3.9900000000039957, -0.4907118611558342 
4.000000000004016, -0.49226603260446816 
4.010000000003993, -0.4929719561010085 
4.02000000000397, -0.4932546768493594 
4.030000000003946, -0.49340349773427894 
4.040000000003923, -0.49353814037024196 
4.0500000000039, -0.4936801375134866 
4.0600000000038765, -0.4938159272382364 
4.070000000003853, -0.49392732464832384 
4.08000000000383, -0.49400070442898425 
4.090000000003807, -0.4940272828066458 
4.100000000003783, -0.49400103502440035 
4.11000000000376, -0.4939168370287095 
4.120000000003737, -0.4937697446384638 
4.130000000003713, -0.49355579065045835 
4.14000000000369, -0.4932743664556676 
4.150000000003667, -0.4929315659307615 
4.1600000000036434, -0.4925427493944783 
4.17000000000362, -0.4921319080604641 
4.180000000003597, -0.4917265170768045 
4.1900000000035735, -0.4913494323293871 
4.20000000000355, -0.49101174381236634 
4.210000000003527, -0.4907101718525788 
4.220000000003504, -0.49042997488734474 
4.23000000000348, -0.4901514592924271 
4.240000000003457, -0.48985671650543106 
4.250000000003434, -0.48953383228002423 
4.26000000000341, -0.48917788344179103 
4.270000000003387, -0.4887899226621437 
4.280000000003364, -0.48837573566216397 
4.2900000000033405, -0.4879457065492363 
4.300000000003317, -0.48751650956531034 
4.310000000003294, -0.4871150286692581 
4.320000000003271, -0.4867847669699633 
4.330000000003247, -0.4865944687943079 
4.340000000003224, -0.48664659394742704 
4.350000000003201, -0.487077695894422 
4.360000000003177, -0.488032075472594 
4.370000000003154, -0.4895805449796443 
4.380000000003131, -0.49157929034712006 
4.390000000003107, -0.4935688096365795 
4.400000000003084, -0.4949269449771683 
4.410000000003061, -0.49529754270731463 
4.4200000000030375, -0.4948553640183687 
4.430000000003014, -0.49407971208435814 
4.440000000002991, -0.49336710705736186 
4.450000000002968, -0.4928820240942479 
4.460000000002944, -0.4926222563769616 
4.470000000002921, -0.49252165342627674 
4.480000000002898, -0.4925104275643871 
4.490000000002874, -0.49253573054271094 
4.500000000002851, -0.4925628107778981 
4.510000000002828, -0.4925701501585721 
4.520000000002804, -0.49254431106749363 
4.530000000002781, -0.49247627998772686 
4.540000000002758, -0.4923596702084514 
4.5500000000027345, -0.49219077353659035 
4.560000000002711, -0.49197021159070786 
4.570000000002688, -0.49170534422699896 
4.580000000002665, -0.49141171027774533 
4.590000000002641, -0.4911114408660543 
4.600000000002618, -0.49082782763893196 
4.610000000002595, -0.49057776480845544 
4.620000000002571, -0.49036565041437663 
4.630000000002548, -0.4901818924155606 
4.640000000002525, -0.49000675615504186 
4.6500000000025015, -0.4898174863712943 
4.660000000002478, -0.4895951106215791 
4.670000000002455, -0.48932809806677885 
4.6800000000024315, -0.48901243200261985 
4.690000000002408, -0.48864965456046444 
4.700000000002385, -0.48824485055310707 
4.710000000002362, -0.48780584630182056 
4.720000000002338, -0.48734413852463626 
4.730000000002315, -0.4868776841563321 
4.740000000002292, -0.4864354447848339 
4.750000000002268, -0.4860628059376434 
4.760000000002245, -0.48582448349371177 
4.770000000002222, -0.4857956338128737 
4.7800000000021985, -0.4860229237686389 
4.790000000002175, -0.48643738842243145 
4.800000000002152, -0.48674743105914053 
4.810000000002129, -0.4864545096117799 
4.820000000002105, -0.4851522599576712 
4.830000000002082, -0.48292144863012954 
4.840000000002059, -0.4803227990423575 
4.850000000002035, -0.4779653542277714 
4.860000000002012, -0.47616993180323464 
4.870000000001989, -0.47496390730185684 
4.880000000001965, -0.4742278412173516 
4.890000000001942, -0.47381439287254423 
