t, s[1].omega / s[0].omega 
0, -0.5699977361821352 
0.009999999999999995, -0.5697743139491529 
0.019999999999999934, -0.5695524298574888 
0.029999999999999874, -0.5693211164728008 
0.04000000000000012, -0.5690674130259362 
0.050000000000000405, -0.5687810993953073 
0.06000000000000069, -0.5684574152621659 
0.07000000000000098, -0.5680974425285574 
0.08000000000000126, -0.5677073004256379 
0.09000000000000155, -0.5672976294042401 
0.10000000000000184, -0.5668843959158962 
0.11000000000000212, -0.5664915527460358 
0.12000000000000241, -0.56615584638872 
0.130000000000002, -0.5659339297126225 
0.1400000000000009, -0.5659115095524425 
0.1499999999999998, -0.5662128955106871 
0.1599999999999987, -0.5670060869199498 
0.1699999999999976, -0.5684926709978954 
0.1799999999999965, -0.5708651250031058 
0.1899999999999954, -0.5742168462946111 
0.1999999999999943, -0.5784236351135873 
0.2099999999999932, -0.5830832052988074 
0.2199999999999921, -0.5876222358422105 
0.229999999999991, -0.5915454419277175 
0.2399999999999899, -0.5946240852560849 
0.2499999999999888, -0.5968848061037926 
0.2599999999999877, -0.5984795933664515 
0.2699999999999866, -0.5995754888048006 
0.2799999999999855, -0.6003079220326992 
0.2899999999999844, -0.6007743212902154 
0.2999999999999833, -0.6010409877741891 
0.3099999999999822, -0.6011508691298362 
0.3199999999999811, -0.6011290976158791 
0.32999999999998, -0.600986316694136 
0.3399999999999789, -0.6007205206917148 
0.3499999999999778, -0.600318371946824 
0.35999999999997667, -0.599757377567411 
0.36999999999997557, -0.5990108105554629 
0.37999999999997447, -0.5980570311698951 
0.38999999999997337, -0.5968925420754045 
0.39999999999997227, -0.5955435373275675 
0.40999999999997117, -0.5940676396797955 
0.41999999999997006, -0.5925416631207845 
0.42999999999996896, -0.59104132078348 
0.43999999999996786, -0.5896245547122166 
0.44999999999996676, -0.5883256882350685 
0.45999999999996566, -0.587159157750162 
0.46999999999996456, -0.586127339842734 
0.47999999999996346, -0.5852279020108988 
0.48999999999996235, -0.5844587785435358 
0.49999999999996125, -0.5838208080205818 
0.5099999999999602, -0.5833187929391002 
0.519999999999959, -0.5829617297274281 
0.529999999999958, -0.5827627158944446 
0.5399999999999568, -0.582738818740931 
0.5499999999999557, -0.5829110224874069 
0.5599999999999546, -0.5833041945918904 
0.5699999999999535, -0.5839467399253013 
0.5799999999999524, -0.584869170844312 
0.5899999999999513, -0.5861002178778547 
0.5999999999999502, -0.5876585957681643 
0.6099999999999491, -0.5895389458443807 
0.619999999999948, -0.5916933451504539 
0.6299999999999469, -0.5940162061524858 
0.6399999999999458, -0.5963471941015394 
0.6499999999999447, -0.5985035862118103 
0.6599999999999436, -0.6003329071691829 
0.6699999999999425, -0.6017547572975608 
0.6799999999999414, -0.6027665427408297 
0.6899999999999403, -0.603417780791604 
0.6999999999999392, -0.6037765889491111 
0.7099999999999381, -0.6039057911251681 
0.719999999999937, -0.603851688426823 
0.7299999999999359, -0.6036408762150896 
0.7399999999999348, -0.6032799150421154 
0.7499999999999337, -0.6027545200847781 
0.7599999999999326, -0.6020265834316898 
0.7699999999999315, -0.601028536249274 
0.7799999999999304, -0.5996562800317926 
0.7899999999999293, -0.5977658584002585 
0.7999999999999282, -0.5951864412688519 
0.8099999999999271, -0.5917688904464676 
0.819999999999926, -0.5874778469108745 
0.8299999999999249, -0.5824871682315602 
0.8399999999999238, -0.577188641582622 
0.8499999999999227, -0.5720670736842071 
0.8599999999999216, -0.5675228296060463 
0.8699999999999205, -0.5637687183529219 
0.8799999999999194, -0.5608375953811138 
0.8899999999999183, -0.5586482490270062 
0.8999999999999172, -0.557071640995934 
0.9099999999999161, -0.5559738259400969 
0.919999999999915, -0.5552365870668643 
0.9299999999999139, -0.5547640715790093 
0.9399999999999128, -0.5544824846919317 
0.9499999999999117, -0.5543370578197555 
0.9599999999999106, -0.5542883991017701 
0.9699999999999095, -0.5543091653389111 
0.9799999999999084, -0.5543814258001534 
0.9899999999999073, -0.5544947921770723 
0.9999999999999062, -0.5546451399152306 
1.0099999999999052, -0.5548334325383796 
1.019999999999904, -0.5550638483076269 
1.029999999999903, -0.5553404032052333 
1.039999999999902, -0.5556619664661213 
1.0499999999999008, -0.5560170206688829 
1.0599999999998997, -0.5563809651476535 
1.0699999999998986, -0.5567187220658797 
1.0799999999998975, -0.5569928184321747 
1.0899999999998964, -0.5571732261172513 
1.0999999999998953, -0.557243628508637 
1.1099999999998942, -0.5572014372190479 
1.119999999999893, -0.5570531417975765 
1.129999999999892, -0.556808495108251 
1.1399999999998909, -0.5564760457872855 
1.1499999999998898, -0.5560607035899549 
1.1599999999998887, -0.5555629280739101 
1.1699999999998876, -0.554978867856113 
1.1799999999998865, -0.5543007920811406 
1.1899999999998854, -0.5535168892660033 
1.1999999999998843, -0.5526085545584405 
1.2099999999998832, -0.5515417888105 
1.219999999999882, -0.5502497269304528 
1.229999999999881, -0.5486130947587557 
1.2399999999998799, -0.5464717114594149 
1.2499999999998788, -0.5437171220839557 
1.2599999999998777, -0.5404462252859089 
1.2699999999998766, -0.5370167010043405 
1.2799999999998755, -0.53388559817405 
1.2899999999998744, -0.5313726807564213 
1.2999999999998733, -0.5295642771975206 
1.3099999999998722, -0.5283742916029344 
1.319999999999871, -0.5276485245151775 
1.32999999999987, -0.5272358566953039 
1.3399999999998689, -0.5270170665557995 
1.3499999999998678, -0.5269081590453019 
1.3599999999998666, -0.5268536725608823 
1.3699999999998655, -0.5268181934223974 
1.3799999999998644, -0.5267792370207445 
1.3899999999998633, -0.5267222701118386 
1.3999999999998622, -0.5266378229400662 
1.4099999999998611, -0.5265204395954965 
1.41999999999986, -0.5263690685759315 
1.429999999999859, -0.5261881107902675 
1.4399999999998578, -0.5259878047180497 
1.4499999999998567, -0.5257825149675642 
1.4599999999998556, -0.5255864571059368 
1.4699999999998545, -0.5254082200803672 
1.4799999999998534, -0.525246787365407 
1.4899999999998523, -0.5250913487213377 
1.4999999999998512, -0.5249251383512027 
1.5099999999998501, -0.524731223921214 
1.519999999999849, -0.5244972794858145 
1.529999999999848, -0.5242175241108437 
1.5399999999998468, -0.5238920725285227 
1.5499999999998457, -0.5235252321703638 
1.5599999999998446, -0.5231242623540355 
1.5699999999998435, -0.5226994655697113 
1.5799999999998424, -0.5222659594508292 
1.5899999999998413, -0.521847272783024 
1.5999999999998402, -0.5214807550506981 
1.6099999999998391, -0.5212241449991459 
1.619999999999838, -0.5211606592282022 
1.629999999999837, -0.521395628142519 
1.6399999999998358, -0.52203155710289 
1.6499999999998347, -0.5231080739398586 
1.6599999999998336, -0.5245187456896716 
1.6699999999998325, -0.5259786689135748 
1.6799999999998314, -0.5271409061406651 
1.6899999999998303, -0.5278167955943313 
1.6999999999998292, -0.5280754796123114 
1.709999999999828, -0.5281235571058283 
1.719999999999827, -0.528134443324513 
1.729999999999826, -0.5281840517639151 
1.7399999999998248, -0.5282765517448494 
1.7499999999998237, -0.5283875356386198 
1.7599999999998226, -0.528490354702535 
1.7699999999998215, -0.5285652884163456 
1.7799999999998204, -0.5285998268595306 
1.7899999999998193, -0.5285860826071567 
1.7999999999998182, -0.5285181188215934 
1.809999999999817, -0.5283901982767284 
1.819999999999816, -0.528196326508655 
1.8299999999998149, -0.5279313104786524 
1.8399999999998138, -0.5275933157833216 
1.8499999999998127, -0.5271871947278749 
1.8599999999998116, -0.5267267976623279 
1.8699999999998105, -0.5262340534906291 
1.8799999999998094, -0.5257339819308575 
1.8899999999998083, -0.5252475533229005 
1.8999999999998072, -0.5247860768732382 
1.909999999999806, -0.5243498584085544 
1.919999999999805, -0.5239311697255286 
1.9299999999998039, -0.5235193492978756 
1.9399999999998028, -0.5231054193842201 
1.9499999999998017, -0.5226847525671781 
1.9599999999998006, -0.522257906928294 
1.9699999999997995, -0.5218307013803052 
1.9799999999997984, -0.5214146828890573 
1.9899999999997973, -0.5210287857579019 
1.9999999999997962, -0.5207026590025832 
2.0099999999998173, -0.5204819590314246 
2.0199999999998384, -0.5204356743446727 
2.0299999999998595, -0.5206648157879683 
2.0399999999998806, -0.5213097892345371 
2.0499999999999017, -0.5225493770996691 
2.059999999999923, -0.5245771804264792 
2.069999999999944, -0.5275363517802697 
2.079999999999965, -0.5314077032680404 
2.089999999999986, -0.5359029510561027 
2.100000000000007, -0.540484385494201 
2.1100000000000283, -0.5445798815985194 
2.1200000000000494, -0.5478458466870751 
2.1300000000000705, -0.5502453875480422 
2.1400000000000916, -0.5519289577620103 
2.1500000000001127, -0.5530862368304346 
2.160000000000134, -0.5538717859432396 
2.170000000000155, -0.5543927340267788 
2.180000000000176, -0.554719161793476 
2.190000000000197, -0.5548959542385848 
2.2000000000002182, -0.5549507760515868 
2.2100000000002393, -0.55489860918267 
2.2200000000002604, -0.5547442308391941 
2.2300000000002815, -0.5544838325924648 
2.2400000000003026, -0.5541069048297877 
2.2500000000003237, -0.5535996043199307 
2.260000000000345, -0.5529506057100313 
2.270000000000366, -0.5521591364336363 
2.280000000000387, -0.5512423167884946 
2.290000000000408, -0.5502369116450399 
2.3000000000004293, -0.5491924108008454 
2.3100000000004504, -0.5481581496343314 
2.3200000000004715, -0.5471716174563634 
2.3300000000004926, -0.5462535516064735 
2.3400000000005137, -0.5454101478427307 
2.3500000000005348, -0.5446390194176554 
2.360000000000556, -0.543935321122519 
2.370000000000577, -0.5432961778093667 
2.380000000000598, -0.5427232754105609 
2.390000000000619, -0.542224334653845 
2.4000000000006403, -0.5418142760292766 
2.4100000000006614, -0.5415166185717062 
2.4200000000006825, -0.5413653583071852 
2.4300000000007036, -0.5414073432929893 
2.4400000000007247, -0.5417049276097469 
2.450000000000746, -0.5423382648674876 
2.460000000000767, -0.5434057203885472 
2.470000000000788, -0.5450192345463329 
2.480000000000809, -0.5472890812895899 
2.49000000000083, -0.5502908380426459 
2.5000000000008513, -0.5540114930662564 
2.5100000000008724, -0.5582894434931286 
2.5200000000008935, -0.5627930790980592 
2.5300000000009146, -0.5670901118576633 
2.5400000000009357, -0.5707977117597757 
2.550000000000957, -0.5737131408657556 
2.560000000000978, -0.5758331475017973 
2.570000000000999, -0.5772792208133601 
2.58000000000102, -0.5782088470243745 
2.5900000000010412, -0.5787617878628126 
2.6000000000010624, -0.5790419596984516 
2.6100000000010835, -0.5791180034093919 
2.6200000000011046, -0.5790293518263651 
2.6300000000011257, -0.5787917115646162 
2.6400000000011468, -0.5784002236954744 
2.650000000001168, -0.5778306004261459 
2.660000000001189, -0.5770398455739973 
2.67000000000121, -0.5759697772822091 
2.680000000001231, -0.5745582537787308 
2.6900000000012523, -0.5727622146905473 
2.7000000000012734, -0.570589079886598 
2.7100000000012945, -0.5681195280871669 
2.7200000000013156, -0.5654997924267057 
2.7300000000013367, -0.5629006058184668 
2.740000000001358, -0.5604679082079251 
2.750000000001379, -0.5582942646796967 
2.7600000000014, -0.5564182661958534 
2.770000000001421, -0.554840188393865 
2.780000000001442, -0.5535400077402349 
2.7900000000014633, -0.5524906992063876 
2.8000000000014844, -0.5516657990862519 
2.8100000000015055, -0.551042792576831 
2.8200000000015266, -0.55060417274805 
2.8300000000015477, -0.5503374982485224 
2.840000000001569, -0.550235205275621 
2.85000000000159, -0.5502945173023844 
2.860000000001611, -0.5505175242952373 
2.870000000001632, -0.5509112862428291 
2.8800000000016532, -0.551487561275595 
2.8900000000016743, -0.5522614008814275 
2.9000000000016954, -0.5532474345988284 
2.9100000000017165, -0.5544524971697429 
2.9200000000017377, -0.555864100481164 
2.9300000000017588, -0.5574371539158085 
2.94000000000178, -0.559086179216758 
2.950000000001801, -0.5606931461490923 
2.960000000001822, -0.5621348416030191 
2.970000000001843, -0.5633181025977004 
2.9800000000018643, -0.5642015701437946 
2.9900000000018854, -0.5647927731038243 
3.0000000000019065, -0.5651283954828582 
3.0100000000019276, -0.5652528634848746 
3.0200000000019487, -0.5652040087242768 
3.03000000000197, -0.565006196490355 
3.040000000001991, -0.5646676327435759 
3.050000000002012, -0.5641785860055809 
3.060000000002033, -0.5635083575541178 
3.070000000002054, -0.5625998617372951 
3.0800000000020753, -0.5613619819301311 
3.0900000000020964, -0.5596628800882333 
3.1000000000021175, -0.5573340998828289 
3.1100000000021386, -0.5542045625718703 
3.1200000000021597, -0.5501822533038507 
3.130000000002181, -0.5453636670049791 
3.140000000002202, -0.5400854704345568 
3.150000000002223, -0.5348350792836544 
3.160000000002244, -0.5300636246994028 
3.1700000000022652, -0.5260441248513941 
3.1800000000022863, -0.5228515893487331 
3.1900000000023074, -0.5204250465058171 
3.2000000000023285, -0.5186416369894482 
3.2100000000023496, -0.5173675135013176 
3.2200000000023707, -0.516482975143097 
3.230000000002392, -0.5158908262347462 
3.240000000002413, -0.5155164484711365 
3.250000000002434, -0.5153047381493409 
3.260000000002455, -0.5152164214653936 
3.2700000000024763, -0.5152247801405287 
3.2800000000024974, -0.5153131161220605 
3.2900000000025185, -0.5154729549916832 
3.3000000000025396, -0.515702760509275 
3.3100000000025607, -0.5160066598201822 
3.3200000000025818, -0.51639236380649 
3.330000000002603, -0.5168673309963979 
3.340000000002624, -0.5174326896880955 
3.350000000002645, -0.5180758707268597 
3.360000000002666, -0.5187650724485409 
3.3700000000026873, -0.5194500663392538 
3.3800000000027084, -0.5200719420794371 
3.3900000000027295, -0.5205785682579215 
3.4000000000027506, -0.5209373950502918 
3.4100000000027717, -0.5211387979032585 
3.420000000002793, -0.5211902481635846 
3.430000000002814, -0.5211067221777856 
3.440000000002835, -0.5209022770568938 
3.450000000002856, -0.5205844831675013 
3.460000000002877, -0.5201509538180809 
3.4700000000028983, -0.5195863708007485 
3.4800000000029194, -0.5188584016631335 
3.4900000000029405, -0.5179110767121471 
3.5000000000029616, -0.5166546796115583 
3.5100000000029827, -0.5149534367014399 
3.520000000003004, -0.5126195480136748 
3.530000000003025, -0.5094369942861435 
3.540000000003046, -0.5052493151930013 
3.550000000003067, -0.50010934384125 
3.5600000000030882, -0.4943842670926205 
3.5700000000031094, -0.48866739661253716 
3.5800000000031305, -0.483522968610837 
3.5900000000031516, -0.4792791825133639 
3.6000000000031727, -0.4760017330840628 
3.6100000000031938, -0.4735872829060721 
3.620000000003215, -0.4718675588760354 
3.630000000003236, -0.470674398487 
3.640000000003257, -0.4698671512623339 
3.650000000003278, -0.4693383079733051 
3.6600000000032993, -0.46900995387968286 
3.6700000000033204, -0.4688277636897243 
3.6800000000033415, -0.46875535401240553 
3.6900000000033626, -0.4687698842289942 
3.7000000000033837, -0.46885899924982655 
3.710000000003405, -0.469018890481857 
3.720000000003426, -0.4692530447742354 
3.730000000003447, -0.46957098303495065 
3.740000000003468, -0.4699859761698645 
3.750000000003489, -0.4705106121293509 
3.7600000000035103, -0.47114962653128556 
3.7700000000035314, -0.4718910408695363 
3.7800000000035525, -0.4726992500393471 
3.7900000000035736, -0.47351561598645153 
3.8000000000035947, -0.4742700932840041 
3.810000000003616, -0.4749001832351206 
3.820000000003637, -0.47536677144969797 
3.830000000003658, -0.475658261459615 
3.840000000003679, -0.4757834446829891 
3.8500000000037002, -0.4757599377985854 
3.8600000000037213, -0.4756041979324979 
3.8700000000037424, -0.4753250010554287 
3.8800000000037635, -0.474919327599799 
3.8900000000037847, -0.4743687286419792 
3.9000000000038058, -0.4736344871210648 
3.910000000003827, -0.47265063902091964 
3.920000000003848, -0.47131571245658355 
3.930000000003869, -0.4694885919964486 
3.94000000000389, -0.467002619266143 
3.9500000000039113, -0.4637193458708744 
3.9600000000039324, -0.4596272299511071 
3.9700000000039535, -0.4549318058265513 
3.9800000000039746, -0.4500374368607911 
3.9900000000039957, -0.44539542883587335 
4.000000000004016, -0.4413339285693631 
4.010000000003993, -0.43799133961517434 
4.02000000000397, -0.435354385501003 
4.030000000003946, -0.4333308406091877 
4.040000000003923, -0.4318066735008547 
4.0500000000039, -0.4306765097660684 
4.0600000000038765, -0.4298548739166451 
4.070000000003853, -0.429277582339867 
4.08000000000383, -0.428899387969986 
4.090000000003807, -0.4286909156681712 
4.100000000003783, -0.4286361250166686 
4.11000000000376, -0.42873066713748215 
4.120000000003737, -0.4289811029684447 
4.130000000003713, -0.4294046893513713 
4.14000000000369, -0.4300290889380543 
4.150000000003667, -0.43089076532004966 
4.1600000000036434, -0.43202997090845574 
4.17000000000362, -0.4334795213205986 
4.180000000003597, -0.43524532969417307 
4.1900000000035735, -0.43728146530740075 
4.20000000000355, -0.4394724713523336 
4.210000000003527, -0.4416435502525455 
4.220000000003504, -0.44360801254665894 
4.23000000000348, -0.4452288462441212 
4.240000000003457, -0.44645288609201916 
4.250000000003434, -0.44730059433705316 
4.26000000000341, -0.447831219062692 
4.270000000003387, -0.44811059850050877 
4.280000000003364, -0.44819304928356685 
4.2900000000033405, -0.44811497950047785 
4.300000000003317, -0.44789424859870464 
4.310000000003294, -0.44753104603169336 
4.320000000003271, -0.4470085902945546 
4.330000000003247, -0.44629401748443664 
4.340000000003224, -0.44534174047017955 
4.350000000003201, -0.44410325681067037 
4.360000000003177, -0.44254691545758024 
4.370000000003154, -0.4406848005833421 
4.380000000003131, -0.4385919536543611 
4.390000000003107, -0.43639829250908163 
4.400000000003084, -0.4342505230101444 
4.410000000003061, -0.4322675064959256 
4.4200000000030375, -0.43051620961588083 
4.430000000003014, -0.42901427705743816 
4.440000000002991, -0.427747096435522 
4.450000000002968, -0.426685865595272 
4.460000000002944, -0.42580031720766065 
4.470000000002921, -0.4250656518429146 
4.480000000002898, -0.4244655524001635 
4.490000000002874, -0.4239932964175308 
4.500000000002851, -0.4236524147555598 
4.510000000002828, -0.42345777431166987 
4.520000000002804, -0.42343758189551234 
4.530000000002781, -0.42363656304197733 
4.540000000002758, -0.42412028015311626 
4.5500000000027345, -0.4249798938276509 
4.560000000002711, -0.4263350855326123 
4.570000000002688, -0.42832958512255115 
4.580000000002665, -0.43110858744053504 
4.590000000002641, -0.4347637008422363 
4.600000000002618, -0.4392415061785921 
4.610000000002595, -0.4442546112774027 
4.620000000002571, -0.4492917134087648 
4.630000000002548, -0.4537943006901142 
4.640000000002525, -0.45739749179386335 
4.6500000000025015, -0.4600318919512407 
4.660000000002478, -0.4618382079780507 
4.670000000002455, -0.463024627468534 
4.6800000000024315, -0.4637765611699808 
4.690000000002408, -0.4642291480635884 
4.700000000002385, -0.46447145384547045 
4.710000000002362, -0.4645585063841297 
4.720000000002338, -0.4645217318509157 
4.730000000002315, -0.46437607921752566 
4.740000000002292, -0.46412471994094345 
4.750000000002268, -0.46376281303382216 
4.760000000002245, -0.46328187255136904 
4.770000000002222, -0.4626758734911718 
4.7800000000021985, -0.4619488596254004 
4.790000000002175, -0.46112138478318004 
4.800000000002152, -0.4602313534907004 
4.810000000002129, -0.4593266669285356 
4.820000000002105, -0.45845252689475535 
4.830000000002082, -0.45764027696501913 
4.840000000002059, -0.45690305302295364 
4.850000000002035, -0.4562385001016616 
4.860000000002012, -0.4556352763971033 
4.870000000001989, -0.45507971583085044 
4.880000000001965, -0.4545605495491734 
4.890000000001942, -0.4540713568265118 
4.900000000001919, -0.45361154401410575 
4.9100000000018955, -0.4531869716981999 
