t, s[1].omega / s[0].omega 
0, -0.14999781842883175 
0.009999999999999995, -0.1498220319275226 
0.019999999999999934, -0.14972306761900564 
0.029999999999999874, -0.14968143270367834 
0.04000000000000012, -0.1496697657458023 
0.050000000000000405, -0.1496590602109217 
0.06000000000000069, -0.14962436930155798 
0.07000000000000098, -0.14954786349344967 
0.08000000000000126, -0.14941860853046487 
0.09000000000000155, -0.14923004564164016 
0.10000000000000184, -0.14897668540167047 
0.11000000000000212, -0.14865109175144253 
0.12000000000000241, -0.14824166559006224 
0.130000000000002, -0.14773162158053185 
0.1400000000000009, -0.1470999799299465 
0.1499999999999998, -0.1463260064527527 
0.1599999999999987, -0.1453983104219888 
0.1699999999999976, -0.14432718891050877 
0.1799999999999965, -0.14315375558735105 
0.1899999999999954, -0.14194673266855556 
0.1999999999999943, -0.1407842570077374 
0.2099999999999932, -0.13973040934659342 
0.2199999999999921, -0.138820424370375 
0.229999999999991, -0.13805990107415947 
0.2399999999999899, -0.1374331888493024 
0.2499999999999888, -0.1369137372800005 
0.2599999999999877, -0.13647226049807315 
0.2699999999999866, -0.1360817025588603 
0.2799999999999855, -0.13571939390348547 
0.2899999999999844, -0.1353671191507803 
0.2999999999999833, -0.1350097872066613 
0.3099999999999822, -0.1346332032944425 
0.3199999999999811, -0.13422112274298056 
0.32999999999998, -0.13375142179961688 
0.3399999999999789, -0.13319106978595682 
0.3499999999999778, -0.1324900967762854 
0.35999999999997667, -0.131576872463546 
0.36999999999997557, -0.1303617385845614 
0.37999999999997447, -0.12876117844186022 
0.38999999999997337, -0.12674893015834182 
0.39999999999997227, -0.12441008158886879 
0.40999999999997117, -0.12194232660360416 
0.41999999999997006, -0.11957985120877294 
0.42999999999996896, -0.11749730138200191 
0.43999999999996786, -0.11576757240521203 
0.44999999999996676, -0.1143806419273484 
0.45999999999996566, -0.11328409228543708 
0.46999999999996456, -0.11241504741791182 
0.47999999999996346, -0.1117167370225077 
0.48999999999996235, -0.11114416612569444 
0.49999999999996125, -0.11066434778543495 
0.5099999999999602, -0.11025449780231233 
0.519999999999959, -0.10989976240684447 
0.529999999999958, -0.10959093115991014 
0.5399999999999568, -0.10932184896301367 
0.5499999999999557, -0.10908548940429286 
0.5599999999999546, -0.10886659134140461 
0.5699999999999535, -0.10862753923449608 
0.5799999999999524, -0.1082847199176132 
0.5899999999999513, -0.10768126985572732 
0.5999999999999502, -0.10658764647486545 
0.6099999999999491, -0.104787562239913 
0.619999999999948, -0.10225341454943385 
0.6299999999999469, -0.09925486826257522 
0.6399999999999458, -0.09623185752577208 
0.6499999999999447, -0.09354565409461943 
0.6599999999999436, -0.0913542914751012 
0.6699999999999425, -0.08965163176980875 
0.6799999999999414, -0.08835634994308786 
0.6899999999999403, -0.08737437058651448 
0.6999999999999392, -0.08662607874376392 
0.7099999999999381, -0.08605299226040929 
0.719999999999937, -0.08561636074318328 
0.7299999999999359, -0.08529397192546478 
0.7399999999999348, -0.08507756079439481 
0.7499999999999337, -0.08497142750805523 
0.7599999999999326, -0.0849920065596784 
0.7699999999999315, -0.0851672390484304 
0.7799999999999304, -0.08553278597119521 
0.7899999999999293, -0.0861184941067103 
0.7999999999999282, -0.08691383569847888 
0.8099999999999271, -0.08780407208002367 
0.819999999999926, -0.08850462990153218 
0.8299999999999249, -0.08859896203221855 
0.8399999999999238, -0.0877794862889098 
0.8499999999999227, -0.08612397555335358 
0.8599999999999216, -0.08405556732660424 
0.8699999999999205, -0.08202484595870473 
0.8799999999999194, -0.0802890125957454 
0.8899999999999183, -0.07891361778364044 
0.8999999999999172, -0.07786327805142138 
0.9099999999999161, -0.07707350668644836 
0.919999999999915, -0.07648476509336008 
0.9299999999999139, -0.07605318936706044 
0.9399999999999128, -0.0757517247649133 
0.9499999999999117, -0.075568806710509 
0.9599999999999106, -0.07550747617922178 
0.9699999999999095, -0.07558588515622187 
0.9799999999999084, -0.07583926215286445 
0.9899999999999073, -0.07632249664685997 
0.9999999999999062, -0.07711044986709381 
1.0099999999999052, -0.07828850104248081 
1.019999999999904, -0.0799185097915221 
1.029999999999903, -0.08196371559858444 
1.039999999999902, -0.08418926331206437 
1.0499999999999008, -0.08614530424692385 
1.0599999999998997, -0.08736919681834909 
1.0699999999998986, -0.08769802680252917 
1.0799999999998975, -0.0873401881386909 
1.0899999999998964, -0.0866483164760254 
1.0999999999998953, -0.08589573841054132 
1.1099999999998942, -0.08521998780750203 
1.119999999999893, -0.08466426803998645 
1.129999999999892, -0.08422800338293304 
1.1399999999998909, -0.08389764849125539 
1.1499999999998898, -0.08366079143917429 
1.1599999999998887, -0.0835116273333282 
1.1699999999998876, -0.08345316236471814 
1.1799999999998865, -0.08349881115846194 
1.1899999999998854, -0.08367452901979032 
1.1999999999998843, -0.08402175586383875 
1.2099999999998832, -0.0846005199432981 
1.219999999999882, -0.08549020922506433 
1.229999999999881, -0.08678181022901076 
1.2399999999998799, -0.08855019110613668 
1.2499999999998788, -0.09079510936105847 
1.2599999999998777, -0.09336415794982264 
1.2699999999998766, -0.09592862671347442 
1.2799999999998755, -0.09809966138802438 
1.2899999999998744, -0.09963412563238244 
1.2999999999998733, -0.10053302767678293 
1.3099999999998722, -0.10095761883965004 
1.319999999999871, -0.10109374842092841 
1.32999999999987, -0.10107985991944371 
1.3399999999998689, -0.10099929427841234 
1.3499999999998678, -0.10089710574157187 
1.3599999999998666, -0.100797331903547 
1.3699999999998655, -0.10071456906166647 
1.3799999999998644, -0.10066080752990145 
1.3899999999998633, -0.1006495909156266 
1.3999999999998622, -0.10069898100550559 
1.4099999999998611, -0.10083407813962839 
1.41999999999986, -0.10108919981938522 
1.429999999999859, -0.10150908540187924 
1.4399999999998578, -0.10214738609521823 
1.4499999999998567, -0.10305908356890572 
1.4599999999998556, -0.10428229031919038 
1.4699999999998545, -0.10580783447398472 
1.4799999999998534, -0.10754777331628611 
1.4899999999998523, -0.10933242745768937 
1.4999999999998512, -0.11096113091345945 
1.5099999999998501, -0.11228353658419561 
1.519999999999849, -0.11324812285060762 
1.529999999999848, -0.1138880868431144 
1.5399999999998468, -0.11427535857280977 
1.5499999999998457, -0.11448308100726154 
1.5599999999998446, -0.11456925425833427 
1.5699999999998435, -0.11457490679541746 
1.5799999999998424, -0.11452799134240896 
1.5899999999998413, -0.11444821007085253 
1.5999999999998402, -0.11435120665055751 
1.6099999999998391, -0.11425195596251778 
1.619999999999838, -0.114167459208751 
1.629999999999837, -0.11411866175438563 
1.6399999999998358, -0.11413121733867612 
1.6499999999998347, -0.11423451609527853 
1.6599999999998336, -0.11445831644726348 
1.6699999999998325, -0.11482637799142943 
1.6799999999998314, -0.11534707951036871 
1.6899999999998303, -0.11600309491609558 
1.6999999999998292, -0.11674586622017083 
1.709999999999828, -0.11750224359299917 
1.719999999999827, -0.11819460006616755 
1.729999999999826, -0.11876419123729742 
1.7399999999998248, -0.11918356998750097 
1.7499999999998237, -0.11945346661007346 
1.7599999999998226, -0.11959101631478682 
1.7699999999998215, -0.11961827908613158 
1.7799999999998204, -0.11955525123428853 
1.7899999999998193, -0.11941723828233938 
1.7999999999998182, -0.11921503649115081 
1.809999999999817, -0.11895667586544037 
1.819999999999816, -0.1186500533524186 
1.8299999999998149, -0.11830595755073434 
1.8399999999998138, -0.11794068030872817 
1.8499999999998127, -0.1175769991595812 
1.8599999999998116, -0.11724246978855242 
1.8699999999998105, -0.11696503708598496 
1.8799999999998094, -0.11676730155672013 
1.8899999999998083, -0.11666125554005284 
1.8999999999998072, -0.11664483738046724 
1.909999999999806, -0.11670121008763601 
1.919999999999805, -0.11680155155395337 
1.9299999999998039, -0.11691133102719671 
1.9399999999998028, -0.11699811096942066 
1.9499999999998017, -0.11703754053036744 
1.9599999999998006, -0.1170152285836518 
1.9699999999997995, -0.11692477137025117 
1.9799999999997984, -0.11676394307974973 
1.9899999999997973, -0.11653099302670011 
1.9999999999997962, -0.11622207120463372 
2.0099999999998173, -0.11583014642946707 
2.0199999999998384, -0.11534571972414168 
2.0299999999998595, -0.11475985049173257 
2.0399999999998806, -0.11406981339684892 
2.0499999999999017, -0.11328631145051637 
2.059999999999923, -0.11243868849864513 
2.069999999999944, -0.11157331099317283 
2.079999999999965, -0.11074336966820275 
2.089999999999986, -0.10999464935417395 
2.100000000000007, -0.10935490397259118 
2.1100000000000283, -0.10883098131378277 
2.1200000000000494, -0.10841231793385733 
2.1300000000000705, -0.10807718582811301 
2.1400000000000916, -0.1077990069451475 
2.1500000000001127, -0.10755143801607392 
2.160000000000134, -0.10731159151252936 
2.170000000000155, -0.10706113966551538 
2.180000000000176, -0.10678553110898033 
2.190000000000197, -0.10647192303698741 
2.2000000000002182, -0.1061064536728202 
2.2100000000002393, -0.1056712782860881 
2.2200000000002604, -0.1051417343043671 
2.2300000000002815, -0.10448447130713212 
2.2400000000003026, -0.10365862130386719 
2.2500000000003237, -0.10262364909163076 
2.260000000000345, -0.10135704579128886 
2.270000000000366, -0.09987832684622051 
2.280000000000387, -0.09826352864678298 
2.290000000000408, -0.09663130094167785 
2.3000000000004293, -0.09510241177802065 
2.3100000000004504, -0.09376022356256897 
2.3200000000004715, -0.09263647183641552 
2.3300000000004926, -0.09172133994185414 
2.3400000000005137, -0.09098219752231301 
2.3500000000005348, -0.09037917417393596 
2.360000000000556, -0.08987429077913064 
2.370000000000577, -0.08943537582251342 
2.380000000000598, -0.0890367456032269 
2.390000000000619, -0.08865807495101471 
2.4000000000006403, -0.08828225504221945 
2.4100000000006614, -0.08789253305922921 
2.4200000000006825, -0.08746880020950973 
2.4300000000007036, -0.08698257323140234 
2.4400000000007247, -0.08639029106294088 
2.450000000000746, -0.08562586759902632 
2.460000000000767, -0.08459754671518147 
2.470000000000788, -0.08320134402611587 
2.480000000000809, -0.08136590086882574 
2.49000000000083, -0.07912122471125653 
2.5000000000008513, -0.07663604742274586 
2.5100000000008724, -0.07416444666973233 
2.5200000000008935, -0.07193160803792772 
2.5300000000009146, -0.07005625872595887 
2.5400000000009357, -0.06855203878396304 
2.550000000000957, -0.06737117921143387 
2.560000000000978, -0.0664457889682331 
2.570000000000999, -0.06571118242006489 
2.58000000000102, -0.06511463533235268 
2.5900000000010412, -0.06461646632379572 
2.6000000000010624, -0.06418806882308506 
2.6100000000010835, -0.06380906156918983 
2.6200000000011046, -0.06346422327396394 
2.6300000000011257, -0.0631399917775043 
2.6400000000011468, -0.0628195887348705 
2.650000000001168, -0.062475055773325315 
2.660000000001189, -0.06205402996138184 
2.67000000000121, -0.06146101705392727 
2.680000000001231, -0.06054241723441354 
2.6900000000012523, -0.059105318690390374 
2.7000000000012734, -0.057010094428818735 
2.7100000000012945, -0.0543131630877268 
2.7200000000013156, -0.05131555018363201 
2.7300000000013367, -0.048415599925988706 
2.740000000001358, -0.045902419614259435 
2.750000000001379, -0.04387875630186673 
2.7600000000014, -0.04231278502909057 
2.770000000001421, -0.04111745117985628 
2.780000000001442, -0.04020124718779812 
2.7900000000014633, -0.03948862565862943 
2.8000000000014844, -0.03892381324272291 
2.8100000000015055, -0.03846836510616378 
2.8200000000015266, -0.03809734542422646 
2.8300000000015477, -0.03779576733222843 
2.840000000001569, -0.037555351807168166 
2.85000000000159, -0.03737070000702106 
2.860000000001611, -0.03723285488463428 
2.870000000001632, -0.03711661605977361 
2.8800000000016532, -0.03695688712266571 
2.8900000000016743, -0.03661421698588037 
2.9000000000016954, -0.03585297337252521 
2.9100000000017165, -0.03439740710741881 
2.9200000000017377, -0.03211602787087679 
2.9300000000017588, -0.02920788739655978 
2.94000000000178, -0.02613704224237807 
2.950000000001801, -0.023344034930268397 
2.960000000001822, -0.02104944783926388 
2.970000000001843, -0.019270697336511978 
2.9800000000018643, -0.01792553038405149 
2.9900000000018854, -0.016910895326285764 
3.0000000000019065, -0.016137945622842226 
3.0100000000019276, -0.015540626991209264 
3.0200000000019487, -0.01507386016233433 
3.03000000000197, -0.014709241661534377 
3.040000000001991, -0.014431048988777232 
3.050000000002012, -0.014232967304196865 
3.060000000002033, -0.014114740888738837 
3.070000000002054, -0.014076709120846898 
3.0800000000020753, -0.01410817515652025 
3.0900000000020964, -0.014163146347047562 
3.1000000000021175, -0.014119012830194969 
3.1100000000021386, -0.01373524111724847 
3.1200000000021597, -0.012682630530953854 
3.130000000002181, -0.010731189082243218 
3.140000000002202, -0.008002604716696147 
3.150000000002223, -0.0049680108582461704 
3.160000000002244, -0.0021339448540360476 
3.1700000000022652, 0.00017493025091741926 
3.1800000000022863, 0.0015658450255287646 
3.1900000000023074, 0.0025069485402363354 
3.2000000000023285, 0.003103955771702166 
3.2100000000023496, 0.003449710247280493 
3.2200000000023707, 0.003613376375679185 
3.230000000002392, 0.003641994705875665 
3.240000000002413, 0.003565025029174616 
3.250000000002434, 0.003398610280920139 
3.260000000002455, 0.0031490589174458933 
3.2700000000024763, 0.0028164041949069836 
3.2800000000024974, 0.002400244525631826 
3.2900000000025185, 0.0019122240262916576 
3.3000000000025396, 0.001402009823262363 
3.3100000000025607, 0.0010009663666087772 
3.3200000000025818, 0.000963377285399683 
3.330000000002603, 0.0016277027801173151 
3.340000000002624, 0.003210701486978018 
3.350000000002645, 0.005554477220499234 
3.360000000002666, 0.008160731390710605 
3.3700000000026873, 0.010527233554070151 
3.3800000000027084, 0.012395128542320808 
3.3900000000027295, 0.013736737565999246 
3.4000000000027506, 0.014636610342567543 
3.4100000000027717, 0.015202098531699928 
3.420000000002793, 0.015525035287084352 
3.430000000002814, 0.01567302101047043 
3.440000000002835, 0.015691831572386697 
3.450000000002856, 0.015610269899645849 
3.460000000002877, 0.015444626207082252 
3.4700000000028983, 0.01520250740015563 
3.4800000000029194, 0.014887141318018337 
3.4900000000029405, 0.014504683093732231 
3.5000000000029616, 0.014079160156393915 
3.5100000000029827, 0.013681245500911987 
3.520000000003004, 0.013470691373648319 
3.530000000003025, 0.013721069273767345 
3.540000000003046, 0.0147421973537994 
3.550000000003067, 0.0166498545793901 
3.5600000000030882, 0.01917216679203848 
3.5700000000031094, 0.02178350587414142 
3.5800000000031305, 0.0240447536723909 
3.5900000000031516, 0.025774643446253565 
3.6000000000031727, 0.026990953374512412 
3.6100000000031938, 0.027793149356562914 
3.620000000003215, 0.02828834991416837 
3.630000000003236, 0.02856361823252273 
3.640000000003257, 0.028681849384131857 
3.650000000003278, 0.02868563764211183 
3.6600000000032993, 0.028602502418889748 
3.6700000000033204, 0.028449633745222924 
3.6800000000033415, 0.028238416191042948 
3.6900000000033626, 0.0279802164184842 
3.7000000000033837, 0.027696273559286243 
3.710000000003405, 0.02743595129473083 
3.720000000003426, 0.027306179999326403 
3.730000000003447, 0.027501247936905605 
3.740000000003468, 0.028285916783457647 
3.750000000003489, 0.029861683207668438 
3.7600000000035103, 0.032155190177946914 
3.7700000000035314, 0.034769594065648966 
3.7800000000035525, 0.03722353381921838 
3.7900000000035736, 0.03921636766843774 
3.8000000000035947, 0.04067859483951228 
3.810000000003616, 0.041676840495788105 
3.820000000003637, 0.042318111763803255 
3.830000000003658, 0.04270126984177115 
3.840000000003679, 0.04290275200632554 
3.8500000000037002, 0.04297719797985919 
3.8600000000037213, 0.04296237883203492 
3.8700000000037424, 0.042884537165207806 
3.8800000000037635, 0.04276344849802652 
3.8900000000037847, 0.042617950891927006 
3.9000000000038058, 0.042473614443055176 
3.910000000003827, 0.042374924884852797 
3.920000000003848, 0.04240353651113203 
3.930000000003869, 0.042697315403003554 
3.94000000000389, 0.04344578083813838 
3.9500000000039113, 0.04481749060088041 
3.9600000000039324, 0.04681490078538426 
3.9700000000039535, 0.04918343716298792 
3.9800000000039746, 0.051523904519502964 
3.9900000000039957, 0.053516786098050904 
4.000000000004016, 0.05503391872404162 
4.010000000003993, 0.05609762072319139 
4.02000000000397, 0.05679534219321852 
4.030000000003946, 0.05722230818438399 
4.040000000003923, 0.057458394577600005 
4.0500000000039, 0.05756399451002764 
4.0600000000038765, 0.057583040677393504 
4.070000000003853, 0.05754779386502614 
4.08000000000383, 0.05748377172609691 
4.090000000003807, 0.05741485718206931 
4.100000000003783, 0.057369346336518204 
4.11000000000376, 0.05738789786258915 
4.120000000003737, 0.057533468353699116 
4.130000000003713, 0.05789948918338036 
4.14000000000369, 0.058603741078291915 
4.150000000003667, 0.05974717277642002 
4.1600000000036434, 0.061334255929847904 
4.17000000000362, 0.06321180062320711 
4.180000000003597, 0.0651120394992258 
4.1900000000035735, 0.06678492290391816 
4.20000000000355, 0.06809739014341971 
4.210000000003527, 0.06903537827255543 
4.220000000003504, 0.06965251385829789 
4.23000000000348, 0.07002282570564264 
4.240000000003457, 0.07021580795921514 
4.250000000003434, 0.07028821084907255 
4.26000000000341, 0.07028384804778395 
4.270000000003387, 0.07023630728019091 
4.280000000003364, 0.07017252071846566 
4.2900000000033405, 0.07011665781067358 
4.300000000003317, 0.07009436075440552 
4.310000000003294, 0.07013737209193825 
4.320000000003271, 0.07028798706921338 
4.330000000003247, 0.07060096324150161 
4.340000000003224, 0.07113738677285548 
4.350000000003201, 0.07194329532076651 
4.360000000003177, 0.0730136682223205 
4.370000000003154, 0.07426402999168416 
4.380000000003131, 0.0755444060812901 
4.390000000003107, 0.07669855491777519 
4.400000000003084, 0.07762294895463714 
4.410000000003061, 0.07828458881600166 
4.4200000000030375, 0.07870265280121264 
4.430000000003014, 0.07892134308346367 
4.440000000002991, 0.07899063702458184 
4.450000000002968, 0.07895682692741873 
4.460000000002944, 0.07885918500833342 
4.470000000002921, 0.0787296038534621 
4.480000000002898, 0.07859370987604311 
4.490000000002874, 0.0784728656573813 
4.500000000002851, 0.07838670042916378 
4.510000000002828, 0.07835573568399422 
4.520000000002804, 0.07840342629325907 
4.530000000002781, 0.07855640340959932 
4.540000000002758, 0.07884096575845534 
4.5500000000027345, 0.07927387360642982 
4.560000000002711, 0.07984831766331116 
4.570000000002688, 0.08052235307878453 
4.580000000002665, 0.08122148761716785 
4.590000000002641, 0.08185972348146511 
4.600000000002618, 0.08236713170925969 
4.610000000002595, 0.08270635473613155 
4.620000000002571, 0.0828723480526707 
4.630000000002548, 0.08288268835709751 
4.640000000002525, 0.082767309678922 
4.6500000000025015, 0.08256120615323001 
4.660000000002478, 0.08229959923068705 
4.670000000002455, 0.08201446091651096 
4.6800000000024315, 0.08173225161638561 
4.690000000002408, 0.08147326542840773 
4.700000000002385, 0.08125258451601734 
4.710000000002362, 0.08108198114109842 
4.720000000002338, 0.08097178412348692 
4.730000000002315, 0.08093175454615867 
4.740000000002292, 0.08097015422879066 
4.750000000002268, 0.08109048778948888 
4.760000000002245, 0.08128630421650626 
4.770000000002222, 0.0815362271513207 
4.7800000000021985, 0.08180298581787514 
4.790000000002175, 0.08203918856837568 
4.800000000002152, 0.08219817095149384 
4.810000000002129, 0.08224434753354234 
4.820000000002105, 0.08215857390284932 
