t, s[1].omega / s[0].omega 
0, -0.32999779444382715 
0.009999999999999995, -0.32980345669650657 
0.019999999999999934, -0.3296549582812526 
0.029999999999999874, -0.32953606192659407 
0.04000000000000012, -0.3294252108765523 
0.050000000000000405, -0.32930117946285276 
0.06000000000000069, -0.3291471913994668 
0.07000000000000098, -0.3289522158641061 
0.08000000000000126, -0.3287097259591686 
0.09000000000000155, -0.3284150865139886 
0.10000000000000184, -0.32806258075995715 
0.11000000000000212, -0.3276424081131145 
0.12000000000000241, -0.3271373675344147 
0.130000000000002, -0.32651863547004434 
0.1400000000000009, -0.3257402264094866 
0.1499999999999998, -0.32473294367930106 
0.1599999999999987, -0.3234020440539563 
0.1699999999999976, -0.3216389223912284 
0.1799999999999965, -0.31936061107974567 
0.1899999999999954, -0.31657602422514136 
0.1999999999999943, -0.3134372784628075 
0.2099999999999932, -0.31021369668170073 
0.2199999999999921, -0.3071868319209562 
0.229999999999991, -0.3045481749464397 
0.2399999999999899, -0.30236815522505134 
0.2499999999999888, -0.3006268328318225 
0.2599999999999877, -0.29926075571995003 
0.2699999999999866, -0.2981974861312975 
0.2799999999999855, -0.2973731943784496 
0.2899999999999844, -0.29673878883192695 
0.2999999999999833, -0.29626050394752973 
0.3099999999999822, -0.2959186713513621 
0.3199999999999811, -0.29570653348828807 
0.32999999999998, -0.2956299019381199 
0.3399999999999789, -0.2957079484712795 
0.3499999999999778, -0.29597510360268375 
0.35999999999997667, -0.29648358788645507 
0.36999999999997557, -0.2973050930985135 
0.37999999999997447, -0.298528019063401 
0.38999999999997337, -0.30024324247142 
0.39999999999997227, -0.30250870928057905 
0.40999999999997117, -0.3052893764553919 
0.41999999999997006, -0.3083970169346199 
0.42999999999996896, -0.31149465340772947 
0.43999999999996786, -0.31421500426744137 
0.44999999999996676, -0.31632632724404997 
0.45999999999996566, -0.31780226282024787 
0.46999999999996456, -0.31875776961625163 
0.47999999999996346, -0.31934517938452917 
0.48999999999996235, -0.31969159845064765 
0.49999999999996125, -0.31988381377720415 
0.5099999999999602, -0.31997555033329433 
0.519999999999959, -0.3199987148130031 
0.529999999999958, -0.31997211981140306 
0.5399999999999568, -0.31990710891835783 
0.5499999999999557, -0.3198111166269201 
0.5599999999999546, -0.319690194198643 
0.5699999999999535, -0.31955113686046877 
0.5799999999999524, -0.31940336215314585 
0.5899999999999513, -0.31926016608753643 
0.5999999999999502, -0.31913858793482974 
0.6099999999999491, -0.3190571738338669 
0.619999999999948, -0.3190316382364168 
0.6299999999999469, -0.3190695138952291 
0.6399999999999458, -0.3191657837404706 
0.6499999999999447, -0.31930172085214115 
0.6599999999999436, -0.3194483071714432 
0.6699999999999425, -0.3195734504212323 
0.6799999999999414, -0.3196498038523686 
0.6899999999999403, -0.3196594967923907 
0.6999999999999392, -0.3195942402081481 
0.7099999999999381, -0.3194520170394632 
0.719999999999937, -0.319232608522786 
0.7299999999999359, -0.3189334766795584 
0.7399999999999348, -0.31854634383126684 
0.7499999999999337, -0.3180541316262642 
0.7599999999999326, -0.3174279613842756 
0.7699999999999315, -0.3166247192495354 
0.7799999999999304, -0.31558746275969785 
0.7899999999999293, -0.3142535132690508 
0.7999999999999282, -0.31257603389613564 
0.8099999999999271, -0.31055826820801724 
0.819999999999926, -0.30828250613415353 
0.8299999999999249, -0.30590423483329265 
0.8399999999999238, -0.30360270447232535 
0.8499999999999227, -0.3015199075115456 
0.8599999999999216, -0.2997286729964562 
0.8699999999999205, -0.29823853963102204 
0.8799999999999194, -0.2970203544514013 
0.8899999999999183, -0.29603006530932185 
0.8999999999999172, -0.2952239633525201 
0.9099999999999161, -0.29456598491031344 
0.919999999999915, -0.2940301608858807 
0.9299999999999139, -0.29360089589089966 
0.9399999999999128, -0.29327276478299746 
0.9499999999999117, -0.29305074599893577 
0.9599999999999106, -0.2929513496193138 
0.9699999999999095, -0.29300478393734275 
0.9799999999999084, -0.29325786537386184 
0.9899999999999073, -0.293776368913747 
0.9999999999999062, -0.29464325166404515 
1.0099999999999052, -0.29594510814282954 
1.019999999999904, -0.2977350909016049 
1.029999999999903, -0.29996585821734817 
1.039999999999902, -0.3024196012528476 
1.0499999999999008, -0.30471847685225717 
1.0599999999998997, -0.306484420619659 
1.0699999999998986, -0.30755001444299934 
1.0799999999998975, -0.3080107813159173 
1.0899999999998964, -0.3080910353100804 
1.0999999999998953, -0.30799365291528125 
1.1099999999998942, -0.3078424826834322 
1.119999999999893, -0.3076941820858603 
1.129999999999892, -0.30756719267258714 
1.1399999999998909, -0.307463382247089 
1.1499999999998898, -0.3073795704971527 
1.1599999999998887, -0.30731257281107 
1.1699999999998876, -0.3072611442453719 
1.1799999999998865, -0.3072267834510883 
1.1899999999998854, -0.3072143072612704 
1.1999999999998843, -0.30723247463354497 
1.2099999999998832, -0.3072944997091391 
1.219999999999882, -0.3074179171883754 
1.229999999999881, -0.3076229865769937 
1.2399999999998799, -0.30792882374863356 
1.2499999999998788, -0.3083469743150557 
1.2599999999998777, -0.30887344467103917 
1.2699999999998766, -0.30948227589311283 
1.2799999999998755, -0.31012542435125046 
1.2899999999998744, -0.31074223943391416 
1.2999999999998733, -0.31127581498839474 
1.3099999999998722, -0.31168749045106736 
1.319999999999871, -0.3119618373523903 
1.32999999999987, -0.3121018711095234 
1.3399999999998689, -0.3121199152633668 
1.3499999999998678, -0.31202933701020474 
1.3599999999998666, -0.31183918347744843 
1.3699999999998655, -0.31155135982263094 
1.3799999999998644, -0.3111593839920767 
1.3899999999998633, -0.3106482732351058 
1.3999999999998622, -0.3099960920238283 
1.4099999999998611, -0.30917865693951196 
1.41999999999986, -0.308178997741117 
1.429999999999859, -0.3070008864143449 
1.4399999999998578, -0.3056805723011874 
1.4499999999998567, -0.3042869528624542 
1.4599999999998556, -0.3029052229707754 
1.4699999999998545, -0.3016118120011119 
1.4799999999998534, -0.300455586216563 
1.4899999999998523, -0.29945361194253717 
1.4999999999998512, -0.2985984403165112 
1.5099999999998501, -0.2978692321602886 
1.519999999999849, -0.297241219993808 
1.529999999999848, -0.2966916663930777 
1.5399999999998468, -0.2962027028180244 
1.5499999999998457, -0.2957621714571771 
1.5599999999998446, -0.2953635511935457 
1.5699999999998435, -0.29500572603455233 
1.5799999999998424, -0.29469298282498163 
1.5899999999998413, -0.29443524642913654 
1.5999999999998402, -0.2942480456164787 
1.6099999999998391, -0.2941507515535272 
1.619999999999838, -0.2941598697143112 
1.629999999999837, -0.29427180900913597 
1.6399999999998358, -0.29442971012798436 
1.6499999999998347, -0.29448137133447005 
1.6599999999998336, -0.29417065019317157 
1.6699999999998325, -0.29323309034987644 
1.6799999999998314, -0.291588372411881 
1.6899999999998303, -0.28944966886231493 
1.6999999999998292, -0.28719933031409056 
1.709999999999828, -0.2851628444727433 
1.719999999999827, -0.2834971589277395 
1.729999999999826, -0.2822177717888946 
1.7399999999998248, -0.281270119377597 
1.7499999999998237, -0.28058256333389353 
1.7599999999998226, -0.2800915179230017 
1.7699999999998215, -0.27974903801164086 
1.7799999999998204, -0.2795227718221814 
1.7899999999998193, -0.2793937199811956 
1.7999999999998182, -0.27935409168705544 
1.809999999999817, -0.2794059929384356 
1.819999999999816, -0.2795610077216366 
1.8299999999998149, -0.27984037421364844 
1.8399999999998138, -0.2802750741661378 
1.8499999999998127, -0.2809045454555741 
1.8599999999998116, -0.2817718589307174 
1.8699999999998105, -0.2829124933212557 
1.8799999999998094, -0.2843348348884319 
1.8899999999998083, -0.2859960266428069 
1.8999999999998072, -0.28778740013798976 
1.909999999999806, -0.2895497639873119 
1.919999999999805, -0.2911227881591856 
1.9299999999998039, -0.2923997882778618 
1.9399999999998028, -0.293350049920604 
1.9499999999998017, -0.2940019196088678 
1.9599999999998006, -0.2944103371435968 
1.9699999999997995, -0.29463147586702193 
1.9799999999997984, -0.29471069603297684 
1.9899999999997973, -0.29467986029053744 
1.9999999999997962, -0.2945588687809323 
2.0099999999998173, -0.29435843620238616 
2.0199999999998384, -0.29408312207560994 
2.0299999999998595, -0.2937346707134362 
2.0399999999998806, -0.2933159370884325 
2.0499999999999017, -0.2928351637741141 
2.059999999999923, -0.2923093265959709 
2.069999999999944, -0.2917644821132289 
2.079999999999965, -0.2912317694096088 
2.089999999999986, -0.2907401315066497 
2.100000000000007, -0.2903090361447308 
2.1100000000000283, -0.2899444091325779 
2.1200000000000494, -0.28963896665246996 
2.1300000000000705, -0.2893760655092984 
2.1400000000000916, -0.28913512758742915 
2.1500000000001127, -0.2888965509600735 
2.160000000000134, -0.28864461747575804 
2.170000000000155, -0.28836800071251967 
2.180000000000176, -0.28805844542834713 
2.190000000000197, -0.28770849162242956 
2.2000000000002182, -0.28730879064983017 
2.2100000000002393, -0.28684500203822333 
2.2200000000002604, -0.2862937883067546 
2.2300000000002815, -0.28561724037047503 
2.2400000000003026, -0.2847555941240877 
2.2500000000003237, -0.2836204756960575 
2.260000000000345, -0.28209675929005285 
2.270000000000366, -0.28006892963277763 
2.280000000000387, -0.2774844002469478 
2.290000000000408, -0.2744302746929064 
2.3000000000004293, -0.2711512825317738 
2.3100000000004504, -0.2679620909159873 
2.3200000000004715, -0.26511625578814724 
2.3300000000004926, -0.2627359767161256 
2.3400000000005137, -0.26082689063916986 
2.3500000000005348, -0.2593301129724238 
2.360000000000556, -0.2581672998874992 
2.370000000000577, -0.25726568846133613 
2.380000000000598, -0.25656770326080053 
2.390000000000619, -0.256032581907919 
2.4000000000006403, -0.25563510169637016 
2.4100000000006614, -0.2553640101247318 
2.4200000000006825, -0.255221295350608 
2.4300000000007036, -0.2552227364912168 
2.4400000000007247, -0.25539982109416076 
2.450000000000746, -0.255802703162085 
2.460000000000767, -0.25650289784256164 
2.470000000000788, -0.2575921259244046 
2.480000000000809, -0.2591694508623719 
2.49000000000083, -0.26130408957099405 
2.5000000000008513, -0.26396537886969995 
2.5100000000008724, -0.266944163062928 
2.5200000000008935, -0.2698495486316139 
2.5300000000009146, -0.27225982576160906 
2.5400000000009357, -0.2739431708560043 
2.550000000000957, -0.2749368737825014 
2.560000000000978, -0.2754355015477789 
2.570000000000999, -0.27564255320398645 
2.58000000000102, -0.2757004567566878 
2.5900000000010412, -0.27568933461844963 
2.6000000000010624, -0.2756485813054631 
2.6100000000010835, -0.2755961471912072 
2.6200000000011046, -0.2755402998474735 
2.6300000000011257, -0.2754857665343081 
2.6400000000011468, -0.2754368480956605 
2.650000000001168, -0.27539921029296555 
2.660000000001189, -0.2753812123196827 
2.67000000000121, -0.27539502542207583 
2.680000000001231, -0.27545731781550714 
2.6900000000012523, -0.2755888887600961 
2.7000000000012734, -0.27581241556400304 
2.7100000000012945, -0.27614761067730964 
2.7200000000013156, -0.27660379799307905 
2.7300000000013367, -0.2771714852596021 
2.740000000001358, -0.2778168198355375 
2.750000000001379, -0.2784841223998684 
2.7600000000014, -0.2791087381754834 
2.770000000001421, -0.279635069788048 
2.780000000001442, -0.2800296734389426 
2.7900000000014633, -0.2802831112838101 
2.8000000000014844, -0.2804027467259581 
2.8100000000015055, -0.2804029425752544 
2.8200000000015266, -0.28029733244525945 
2.8300000000015477, -0.28009434022203 
2.840000000001569, -0.27979519610458203 
2.85000000000159, -0.27939354857158694 
2.860000000001611, -0.2788764936703048 
2.870000000001632, -0.27822772258350553 
2.8800000000016532, -0.2774338986282262 
2.8900000000016743, -0.2764943554401297 
2.9000000000016954, -0.2754310475557322 
2.9100000000017165, -0.27429212357459437 
2.9200000000017377, -0.27314350840996426 
2.9300000000017588, -0.2720508183057537 
2.94000000000178, -0.27106180686666376 
2.950000000001801, -0.2701983890677101 
2.960000000001822, -0.26945921412289237 
2.970000000001843, -0.2688278587096798 
2.9800000000018643, -0.26828146425828503 
2.9900000000018854, -0.267797096460998 
3.0000000000019065, -0.26735525237040986 
3.0100000000019276, -0.26694103981437817 
3.0200000000019487, -0.26654389354886276 
3.03000000000197, -0.2661565865425237 
3.040000000001991, -0.26577395171187784 
3.050000000002012, -0.2653912796212448 
3.060000000002033, -0.2650018100311246 
3.070000000002054, -0.26459198656024097 
3.0800000000020753, -0.26413219075676264 
3.0900000000020964, -0.2635603466196407 
3.1000000000021175, -0.2627594516961484 
3.1100000000021386, -0.26154453998686106 
3.1200000000021597, -0.25969965866572947 
3.130000000002181, -0.2571020670227086 
3.140000000002202, -0.25387369211192146 
3.150000000002223, -0.2503893152400035 
3.160000000002244, -0.24708583315050156 
3.1700000000022652, -0.24425650798378123 
3.1800000000022863, -0.24199562108542416 
3.1900000000023074, -0.24026198586658687 
3.2000000000023285, -0.23896031873108284 
3.2100000000023496, -0.2379921518361338 
3.2200000000023707, -0.2372767624287811 
3.230000000002392, -0.2367556094167568 
3.240000000002413, -0.23639045388060573 
3.250000000002434, -0.23616026222246692 
3.260000000002455, -0.23605891072816038 
3.2700000000024763, -0.23609431844305342 
3.2800000000024974, -0.23628908132223136 
3.2900000000025185, -0.23668234758575987 
3.3000000000025396, -0.23733208794304148 
3.3100000000025607, -0.2383155432749791 
3.3200000000025818, -0.23972290604913318 
3.330000000002603, -0.24163552025335538 
3.340000000002624, -0.24407931850962292 
3.350000000002645, -0.24695874792106362 
3.360000000002666, -0.2500153197094762 
3.3700000000026873, -0.25288270390417733 
3.3800000000027084, -0.25524402453257805 
3.3900000000027295, -0.2569682248165147 
3.4000000000027506, -0.2581103644762818 
3.4100000000027717, -0.2588143960912221 
3.420000000002793, -0.2592244389770252 
3.430000000002814, -0.2594478464792649 
3.440000000002835, -0.2595540290747373 
3.450000000002856, -0.2595850499981346 
3.460000000002877, -0.25956603686039326 
3.4700000000028983, -0.2595125085498411 
3.4800000000029194, -0.2594351073308179 
3.4900000000029405, -0.25934280172174934 
3.5000000000029616, -0.25924532542706147 
3.5100000000029827, -0.2591551249730459 
3.520000000003004, -0.2590885780182103 
3.530000000003025, -0.2590658529739497 
3.540000000003046, -0.25910872557676196 
3.550000000003067, -0.2592360923549776 
3.5600000000030882, -0.25945775574725266 
3.5700000000031094, -0.2597681646983641 
3.5800000000031305, -0.2601429693519391 
3.5900000000031516, -0.26054153203940134 
3.6000000000031727, -0.2609162647321778 
3.6100000000031938, -0.2612250969634986 
3.620000000003215, -0.26144058704577333 
3.630000000003236, -0.26155164639220585 
3.640000000003257, -0.26155905391713696 
3.650000000003278, -0.26146874297912687 
3.6600000000032993, -0.2612859900779545 
3.6700000000033204, -0.26101152945195766 
3.6800000000033415, -0.26063933753986734 
3.6900000000033626, -0.2601557388689625 
3.7000000000033837, -0.25954016097733124 
3.710000000003405, -0.2587688118337272 
3.720000000003426, -0.25782296052620024 
3.730000000003447, -0.2567018525700467 
3.740000000003468, -0.25543551799273523 
3.750000000003489, -0.25408783822213754 
3.7600000000035103, -0.2527429196573562 
3.7700000000035314, -0.25148014234790544 
3.7800000000035525, -0.25035294876256375 
3.7900000000035736, -0.2493819500954392 
3.8000000000035947, -0.2485609462967539 
3.810000000003616, -0.2478681275626037 
3.820000000003637, -0.2472762175382829 
3.830000000003658, -0.2467591440540226 
3.840000000003679, -0.24629532152212635 
3.8500000000037002, -0.24586853408527792 
3.8600000000037213, -0.24546746779652184 
3.8700000000037424, -0.24508465357670492 
3.8800000000037635, -0.24471516599817505 
3.8900000000037847, -0.2443549415699331 
3.9000000000038058, -0.2439979725069749 
3.910000000003827, -0.24363074998611617 
3.920000000003848, -0.24322121279470413 
3.930000000003869, -0.24269929232944837 
3.94000000000389, -0.24193139434194832 
3.9500000000039113, -0.24070986281752157 
3.9600000000039324, -0.23880643109070676 
3.9700000000039535, -0.2361213586594686 
3.9800000000039746, -0.23283375783715687 
3.9900000000039957, -0.22936499607563113 
4.000000000004016, -0.22615064877025515 
4.010000000003993, -0.2234483375693354 
4.02000000000397, -0.22131632542425192 
4.030000000003946, -0.21969340691654646 
4.040000000003923, -0.2184786469915941 
4.0500000000039, -0.21757563713171718 
4.0600000000038765, -0.21690849292729256 
4.070000000003853, -0.21642391404853534 
4.08000000000383, -0.2160885572152949 
4.090000000003807, -0.21588598919053167 
4.100000000003783, -0.21581479808041043 
4.11000000000376, -0.21588831175305317 
4.120000000003737, -0.21613592318619976 
4.130000000003713, -0.21660564409425845 
4.14000000000369, -0.21736665517118672 
4.150000000003667, -0.21850859194824607 
4.1600000000036434, -0.22013043705191576 
4.17000000000362, -0.2223073571506688 
4.180000000003597, -0.22502664576208103 
4.1900000000035735, -0.2281118256277615 
4.20000000000355, -0.2312078785929677 
4.210000000003527, -0.23390406249783924 
4.220000000003504, -0.23593535762366225 
4.23000000000348, -0.23727890749510872 
4.240000000003457, -0.2380787955282993 
4.250000000003434, -0.2385167015895456 
4.26000000000341, -0.23873690339410159 
4.270000000003387, -0.2388322505736702 
4.280000000003364, -0.23885655046699475 
4.2900000000033405, -0.23883987861951064 
4.300000000003317, -0.23879953880619237 
4.310000000003294, -0.23874671157690427 
4.320000000003271, -0.23869041856618417 
4.330000000003247, -0.23864013111450078 
4.340000000003224, -0.23860773993460538 
4.350000000003201, -0.23860903694342422 
4.360000000003177, -0.23866437285835534 
4.370000000003154, -0.238797800390123 
4.380000000003131, -0.23903391659826312 
4.390000000003107, -0.23939191538297638 
4.400000000003084, -0.2398772696072847 
4.410000000003061, -0.24047332143586325 
4.4200000000030375, -0.24113750671802334 
4.430000000003014, -0.24180740452423694 
4.440000000002991, -0.24241692179182994 
4.450000000002968, -0.24291476414664084 
4.460000000002944, -0.24327467232010297 
4.470000000002921, -0.24349364355232256 
4.480000000002898, -0.24358279230478003 
4.490000000002874, -0.2435576065643926 
4.500000000002851, -0.24343123503293188 
4.510000000002828, -0.24321111274255608 
4.520000000002804, -0.242897947803213 
4.530000000002781, -0.24248634541816463 
4.540000000002758, -0.24196711018745715 
4.5500000000027345, -0.24133180641424504 
4.560000000002711, -0.24057977914302214 
4.570000000002688, -0.23972597056034456 
4.580000000002665, -0.23880522078678595 
4.590000000002641, -0.23786834229224213 
4.600000000002618, -0.23696975457189118 
4.610000000002595, -0.23615287930641968 
4.620000000002571, -0.23544099238726038 
4.630000000002548, -0.2348364710422715 
4.640000000002525, -0.23432605721881447 
4.6500000000025015, -0.23388813134084918 
4.660000000002478, -0.2334991190679599 
4.670000000002455, -0.23313771133557903 
4.6800000000024315, -0.23278667639622666 
4.690000000002408, -0.2324327063007387 
4.700000000002385, -0.23206499337017047 
4.710000000002362, -0.23167307784468685 
4.720000000002338, -0.23124408423617043 
4.730000000002315, -0.23075895405094388 
4.740000000002292, -0.23018683506514243 
4.750000000002268, -0.22947671933688762 
4.760000000002245, -0.22854678815181356 
4.770000000002222, -0.22727709035863236 
4.7800000000021985, -0.22552194177844406 
4.790000000002175, -0.22316605618166424 
4.800000000002152, -0.22022273824617072 
4.810000000002129, -0.21690140647357503 
4.820000000002105, -0.21354895443887453 
4.830000000002082, -0.2104905688074136 
4.840000000002059, -0.20790985770880072 
4.850000000002035, -0.20584135201260625 
