t, s[1].omega / s[0].omega 
0, -0.6599977062889053 
0.009999999999999995, -0.6597590764405066 
0.019999999999999934, -0.6594991883498872 
0.029999999999999874, -0.6592109717925383 
0.04000000000000012, -0.658887148482927 
0.050000000000000405, -0.6585240731427714 
0.06000000000000069, -0.6581238197600254 
0.07000000000000098, -0.6576945714778298 
0.08000000000000126, -0.657250532434014 
0.09000000000000155, -0.6568126118977133 
0.10000000000000184, -0.6564105302426747 
0.11000000000000212, -0.6560863714708769 
0.12000000000000241, -0.6558991387209021 
0.130000000000002, -0.6559294390599726 
0.1400000000000009, -0.6562828698038834 
0.1499999999999998, -0.6570898715722242 
0.1599999999999987, -0.6584986333641085 
0.1699999999999976, -0.6606561432328679 
0.1799999999999965, -0.6636717274902905 
0.1899999999999954, -0.6675610195322437 
0.1999999999999943, -0.6721825700909326 
0.2099999999999932, -0.6772052142965186 
0.2199999999999921, -0.6821584762317859 
0.229999999999991, -0.6865763841266876 
0.2399999999999899, -0.6901556182176157 
0.2499999999999888, -0.6928191480456494 
0.2599999999999877, -0.6946632864543736 
0.2699999999999866, -0.6958586562173832 
0.2799999999999855, -0.6965744894455921 
0.2899999999999844, -0.6969444529964839 
0.2999999999999833, -0.6970603760458203 
0.3099999999999822, -0.6969770787947898 
0.3199999999999811, -0.6967184702867575 
0.32999999999998, -0.6962808941388279 
0.3399999999999789, -0.6956325195982529 
0.3499999999999778, -0.694708799645151 
0.35999999999997667, -0.6934054099173027 
0.36999999999997557, -0.6915734874308699 
0.37999999999997447, -0.6890288351973519 
0.38999999999997337, -0.6855942970881903 
0.39999999999997227, -0.6811884418271908 
0.40999999999997117, -0.6759333495020557 
0.41999999999997006, -0.6701975488701 
0.42999999999996896, -0.6645029485954669 
0.43999999999996786, -0.6593405080570565 
0.44999999999996676, -0.6550240276705095 
0.45999999999996566, -0.6516565158590297 
0.46999999999996456, -0.6491816402831438 
0.47999999999996346, -0.6474581911584477 
0.48999999999996235, -0.6463193224568335 
0.49999999999996125, -0.6456076694942064 
0.5099999999999602, -0.6451912265583211 
0.519999999999959, -0.6449672589985549 
0.529999999999958, -0.6448599060131682 
0.5399999999999568, -0.6448151224030914 
0.5499999999999557, -0.6447951361149793 
0.5599999999999546, -0.6447736575691275 
0.5699999999999535, -0.6447324937899553 
0.5799999999999524, -0.6446597992201166 
0.5899999999999513, -0.6445497205261554 
0.5999999999999502, -0.6444025617869718 
0.6099999999999491, -0.644224089610965 
0.619999999999948, -0.6440228883601273 
0.6299999999999469, -0.6438061003235969 
0.6399999999999458, -0.6435755648258488 
0.6499999999999447, -0.6433266984007353 
0.6599999999999436, -0.6430508590651983 
0.6699999999999425, -0.6427396877435354 
0.6799999999999414, -0.6423889483989804 
0.6899999999999403, -0.6420003687025978 
0.6999999999999392, -0.6415817738041765 
0.7099999999999381, -0.6411468682468806 
0.719999999999937, -0.6407159477444376 
0.7299999999999359, -0.6403182092295633 
0.7399999999999348, -0.6399957614937806 
0.7499999999999337, -0.6398090330189687 
0.7599999999999326, -0.6398428396985929 
0.7699999999999315, -0.6402116658240797 
0.7799999999999304, -0.6410614883326765 
0.7899999999999293, -0.642563524181045 
0.7999999999999282, -0.6448927511822807 
0.8099999999999271, -0.6481827034013118 
0.819999999999926, -0.6524535101808187 
0.8299999999999249, -0.6575315586728292 
0.8399999999999238, -0.6630153048209074 
0.8499999999999227, -0.6683537845088137 
0.8599999999999216, -0.6730339889932313 
0.8699999999999205, -0.6767584487637491 
0.8799999999999194, -0.6794888453438178 
0.8899999999999183, -0.6813613588676903 
0.8999999999999172, -0.6825719075252941 
0.9099999999999161, -0.6833011692664508 
0.919999999999915, -0.6836864222635771 
0.9299999999999139, -0.6838199764326337 
0.9399999999999128, -0.6837563669300412 
0.9499999999999117, -0.6835193733783057 
0.9599999999999106, -0.6831057372154327 
0.9699999999999095, -0.6824849725233509 
0.9799999999999084, -0.6815958387063471 
0.9899999999999073, -0.6803416640931043 
0.9999999999999062, -0.678590287226567 
1.0099999999999052, -0.6761900961204044 
1.019999999999904, -0.6730164263540395 
1.029999999999903, -0.6690488980606593 
1.039999999999902, -0.664442538776563 
1.0499999999999008, -0.6595274150814661 
1.0599999999998997, -0.6547116220268585 
1.0699999999998986, -0.6503482438426332 
1.0799999999998975, -0.646652035807893 
1.0899999999998964, -0.6436929735335392 
1.0999999999998953, -0.6414361288613197 
1.1099999999998942, -0.639789453534142 
1.119999999999893, -0.6386401432887154 
1.129999999999892, -0.6378766615744047 
1.1399999999998909, -0.6373999242202382 
1.1499999999998898, -0.637127675736479 
1.1599999999998887, -0.636994930253086 
1.1699999999998876, -0.6369522984285717 
1.1799999999998865, -0.6369633946135909 
1.1899999999998854, -0.6370021647477339 
1.1999999999998843, -0.6370507103243774 
1.2099999999998832, -0.637097871472452 
1.219999999999882, -0.6371383868040936 
1.229999999999881, -0.6371719264513809 
1.2399999999998799, -0.6372010446445636 
1.2499999999998788, -0.6372276283746383 
1.2599999999998777, -0.6372487777836013 
1.2699999999998766, -0.637254306483716 
1.2799999999998755, -0.6372278315580739 
1.2899999999998744, -0.6371513788449779 
1.2999999999998733, -0.6370110290054026 
1.3099999999998722, -0.6368005647462935 
1.319999999999871, -0.636521882219008 
1.32999999999987, -0.6361832817464184 
1.3399999999998689, -0.6357977285554012 
1.3499999999998678, -0.6353826977817058 
1.3599999999998666, -0.6349623705906167 
1.3699999999998655, -0.6345724527969092 
1.3799999999998644, -0.6342677068860846 
1.3899999999998633, -0.6341319903677415 
1.3999999999998622, -0.63428962101073 
1.4099999999998611, -0.6349145797649905 
1.41999999999986, -0.6362297476420252 
1.429999999999859, -0.6384822956028695 
1.4399999999998578, -0.6418776362989866 
1.4499999999998567, -0.6464658026720645 
1.4599999999998556, -0.6520184656995764 
1.4699999999998545, -0.6579983714633288 
1.4799999999998534, -0.6637142576505267 
1.4899999999998523, -0.668597809644673 
1.4999999999998512, -0.6723920209201515 
1.5099999999998501, -0.6751324863851004 
1.519999999999849, -0.6770080721532905 
1.529999999999848, -0.6782355023547573 
1.5399999999998468, -0.6789972864057221 
1.5499999999998457, -0.6794265119963167 
1.5599999999998446, -0.6796116962424784 
1.5699999999998435, -0.6796059215315745 
1.5799999999998424, -0.6794341392078673 
1.5899999999998413, -0.6790971199331424 
1.5999999999998402, -0.6785722427014502 
1.6099999999998391, -0.6778122535227751 
1.619999999999838, -0.6767446205129833 
1.629999999999837, -0.6752767633873632 
1.6399999999998358, -0.6733149889938258 
1.6499999999998347, -0.6708023113389153 
1.6599999999998336, -0.6677658706321318 
1.6699999999998325, -0.6643440375702703 
1.6799999999998314, -0.6607634571388539 
1.6899999999998303, -0.6572724722256813 
1.6999999999998292, -0.6540734409455943 
1.709999999999828, -0.6512897595298038 
1.719999999999827, -0.6489694764614455 
1.729999999999826, -0.6471067688541102 
1.7399999999998248, -0.6456644325288301 
1.7499999999998237, -0.6445903266422119 
1.7599999999998226, -0.643827497702775 
1.7699999999998215, -0.6433199780899341 
1.7799999999998204, -0.6430161022969624 
1.7899999999998193, -0.6428704105927293 
1.7999999999998182, -0.6428446175284346 
1.809999999999817, -0.642907871704605 
1.819999999999816, -0.6430365070229735 
1.8299999999998149, -0.6432134987109192 
1.8399999999998138, -0.6434277349684199 
1.8499999999998127, -0.6436729390632758 
1.8599999999998116, -0.6439457546862661 
1.8699999999998105, -0.6442425083544678 
1.8799999999998094, -0.6445548972295155 
1.8899999999998083, -0.6448662195559249 
1.8999999999998072, -0.6451507297249214 
1.909999999999806, -0.6453778060880253 
1.919999999999805, -0.6455196460498609 
1.9299999999998039, -0.6455583935582901 
1.9399999999998028, -0.6454889068425976 
1.9499999999998017, -0.6453166840729668 
1.9599999999998006, -0.6450534857417869 
1.9699999999997995, -0.6447136473004069 
1.9799999999997984, -0.6443127886328754 
1.9899999999997973, -0.6438694208218221 
1.9999999999997962, -0.6434095772052549 
2.0099999999998173, -0.6429747553653343 
2.0199999999998384, -0.6426334935314881 
2.0299999999998595, -0.6424960247610775 
2.0399999999998806, -0.6427285647591389 
2.0499999999999017, -0.6435576438559731 
2.059999999999923, -0.6452457986030176 
2.069999999999944, -0.6480149967522022 
2.079999999999965, -0.6519138226767243 
2.089999999999986, -0.6566893538485352 
2.100000000000007, -0.6617931281598579 
2.1100000000000283, -0.6665893917557902 
2.1200000000000494, -0.6706259244110008 
2.1300000000000705, -0.6737483404656052 
2.1400000000000916, -0.6760253772340493 
2.1500000000001127, -0.677617978230335 
2.160000000000134, -0.6786916735214613 
2.170000000000155, -0.6793819579889651 
2.180000000000176, -0.6797885015622722 
2.190000000000197, -0.679979313998867 
2.2000000000002182, -0.6799963654571219 
2.2100000000002393, -0.6798598135583613 
2.2200000000002604, -0.6795701859118136 
2.2300000000002815, -0.6791087645605391 
2.2400000000003026, -0.678437231674991 
2.2500000000003237, -0.6774989965266792 
2.260000000000345, -0.676226488485301 
2.270000000000366, -0.674559360868771 
2.280000000000387, -0.6724740726536684 
2.290000000000408, -0.6700135904506329 
2.3000000000004293, -0.6672958043272316 
2.3100000000004504, -0.6644877638811356 
2.3200000000004715, -0.6617588957770593 
2.3300000000004926, -0.659241690511992 
2.3400000000005137, -0.6570167703977929 
2.3500000000005348, -0.6551187175228387 
2.360000000000556, -0.6535502279405638 
2.370000000000577, -0.6522953042670416 
2.380000000000598, -0.6513282020728111 
2.390000000000619, -0.6506185458333249 
2.4000000000006403, -0.6501341395211401 
2.4100000000006614, -0.6498427592430446 
2.4200000000006825, -0.6497136120087038 
2.4300000000007036, -0.6497186440413004 
2.4400000000007247, -0.6498336239192067 
2.450000000000746, -0.6500388739120612 
2.460000000000767, -0.6503195499192422 
2.470000000000788, -0.6506653333666399 
2.480000000000809, -0.6510692371590772 
2.49000000000083, -0.6515250824313444 
2.5000000000008513, -0.65202344984102 
2.5100000000008724, -0.652546910183202 
2.5200000000008935, -0.6530668436536338 
2.5300000000009146, -0.6535448522166807 
2.5400000000009357, -0.6539399924752981 
2.550000000000957, -0.6542190319577761 
2.560000000000978, -0.654364089040328 
2.570000000000999, -0.6543737242835767 
2.58000000000102, -0.6542583054430277 
2.5900000000010412, -0.6540335592719188 
2.6000000000010624, -0.6537157594481373 
2.6100000000010835, -0.653319970424297 
2.6200000000011046, -0.65286141491626 
2.6300000000011257, -0.6523598554679484 
2.6400000000011468, -0.6518472956839344 
2.650000000001168, -0.6513795468915012 
2.660000000001189, -0.6510513990305382 
2.67000000000121, -0.6510119989407058 
2.680000000001231, -0.6514701019037237 
2.6900000000012523, -0.6526688858113763 
2.7000000000012734, -0.6548066730528677 
2.7100000000012945, -0.6579073037700185 
2.7200000000013156, -0.6617160594031712 
2.7300000000013367, -0.6657454479817673 
2.740000000001358, -0.6694891304329412 
2.750000000001379, -0.6726308675035938 
2.7600000000014, -0.6750865866536931 
2.770000000001421, -0.6769173139897445 
2.780000000001442, -0.6782342612011492 
2.7900000000014633, -0.6791478568369319 
2.8000000000014844, -0.6797502326183634 
2.8100000000015055, -0.6801119827554326 
2.8200000000015266, -0.6802832833974638 
2.8300000000015477, -0.6802958109911749 
2.840000000001569, -0.6801642151528491 
2.85000000000159, -0.6798866872148113 
2.860000000001611, -0.6794447203707034 
2.870000000001632, -0.678802989971864 
2.8800000000016532, -0.6779116143856564 
2.8900000000016743, -0.6767145035736272 
2.9000000000016954, -0.6751671848163028 
2.9100000000017165, -0.6732622751523245 
2.9200000000017377, -0.6710508053879283 
2.9300000000017588, -0.6686424678153342 
2.94000000000178, -0.6661791951355915 
2.950000000001801, -0.6637970784330813 
2.960000000001822, -0.6615986571292554 
2.970000000001843, -0.6596451648559171 
2.9800000000018643, -0.657963382219701 
2.9900000000018854, -0.6565571985780403 
3.0000000000019065, -0.6554174214320024 
3.0100000000019276, -0.6545279421108868 
3.0200000000019487, -0.6538689270527531 
3.03000000000197, -0.6534183786872211 
3.040000000001991, -0.6531531504232508 
3.050000000002012, -0.6530499864623485 
3.060000000002033, -0.6530867113566264 
3.070000000002054, -0.653243428843977 
3.0800000000020753, -0.6535034963717543 
3.0900000000020964, -0.6538540306293479 
3.1000000000021175, -0.654285653152985 
3.1100000000021386, -0.6547910649080468 
3.1200000000021597, -0.6553620126616246 
3.130000000002181, -0.6559846705539523 
3.140000000002202, -0.656634713990867 
3.150000000002223, -0.6572749608167482 
3.160000000002244, -0.6578587714368178 
3.1700000000022652, -0.6583397103918767 
3.1800000000022863, -0.6586832270234229 
3.1900000000023074, -0.6588737838984001 
3.2000000000023285, -0.6589140418743605 
3.2100000000023496, -0.6588182893864498 
3.2200000000023707, -0.658604890637456 
3.230000000002392, -0.6582911671391234 
3.240000000002413, -0.6578917007349436 
3.250000000002434, -0.6574197813593916 
3.260000000002455, -0.6568917593540221 
3.2700000000024763, -0.6563346283120095 
3.2800000000024974, -0.6557974630343678 
3.2900000000025185, -0.655366467286875 
3.3000000000025396, -0.6551799718797283 
3.3100000000025607, -0.6554323057468465 
3.3200000000025818, -0.6563456033687765 
3.330000000002603, -0.6580883629492792 
3.340000000002624, -0.6606541684388382 
3.350000000002645, -0.6637863839455338 
3.360000000002666, -0.6670559014738241 
3.3700000000026873, -0.6700639421812037 
3.3800000000027084, -0.6725912231074829 
3.3900000000027295, -0.6745932751882975 
3.4000000000027506, -0.6761178808594448 
3.4100000000027717, -0.6772401813994661 
3.420000000002793, -0.6780345573386184 
3.430000000002814, -0.6785657081140619 
3.440000000002835, -0.6788857788802563 
3.450000000002856, -0.6790332650711856 
3.460000000002877, -0.6790326620862087 
3.4700000000028983, -0.6788943048428734 
3.4800000000029194, -0.6786139786835355 
3.4900000000029405, -0.6781723292919672 
3.5000000000029616, -0.6775349806286914 
3.5100000000029827, -0.6766555784323488 
3.520000000003004, -0.6754850896550335 
3.530000000003025, -0.6739896133443027 
3.540000000003046, -0.6721732094882831 
3.550000000003067, -0.6700936291048902 
3.5600000000030882, -0.6678571477649399 
3.5700000000031094, -0.6655916156464505 
3.5800000000031305, -0.6634136344680595 
3.5900000000031516, -0.6614077781487538 
3.6000000000031727, -0.6596231275018221 
3.6100000000031938, -0.6580808515884462 
3.620000000003215, -0.6567844171045442 
3.630000000003236, -0.6557275704338031 
3.640000000003257, -0.6548989956500914 
3.650000000003278, -0.6542844653442088 
3.6600000000032993, -0.6538677195949426 
3.6700000000033204, -0.6536310318731603 
3.6800000000033415, -0.6535559641134222 
3.6900000000033626, -0.653624410520342 
3.7000000000033837, -0.653819767578622 
3.710000000003405, -0.6541279465855305 
3.720000000003426, -0.654537895851448 
3.730000000003447, -0.6550412299922518 
3.740000000003468, -0.6556304662038792 
3.750000000003489, -0.6562954497915499 
3.7600000000035103, -0.6570182258796682 
3.7700000000035314, -0.6577681146661927 
3.7800000000035525, -0.6585003819826183 
3.7900000000035736, -0.659161714182866 
3.8000000000035947, -0.6597020587491002 
3.810000000003616, -0.6600871595607196 
3.820000000003637, -0.6603046590012704 
3.830000000003658, -0.6603612893658366 
3.840000000003679, -0.6602746798706411 
3.8500000000037002, -0.6600651103793564 
3.8600000000037213, -0.6597503634091098 
3.8700000000037424, -0.6593441953975658 
3.8800000000037635, -0.6588578612488776 
3.8900000000037847, -0.6583043626920142 
3.9000000000038058, -0.6577057568750301 
3.910000000003827, -0.6571041682602539 
3.920000000003848, -0.6565761847722708 
3.930000000003869, -0.6562466716025159 
3.94000000000389, -0.6562904119860128 
3.9500000000039113, -0.656901010488565 
3.9600000000039324, -0.6582104387054126 
3.9700000000039535, -0.6601834728990206 
3.9800000000039746, -0.662576995583797 
3.9900000000039957, -0.6650421270864911 
4.000000000004016, -0.6672976976427192 
4.010000000003993, -0.6692136867748755 
4.02000000000397, -0.670771808895937 
4.030000000003946, -0.6719985221371465 
4.040000000003923, -0.6729310437224412 
4.0500000000039, -0.673608645254199 
4.0600000000038765, -0.6740698915816196 
4.070000000003853, -0.6743493621462999 
4.08000000000383, -0.6744743565721343 
4.090000000003807, -0.6744624750274164 
4.100000000003783, -0.6743200062655123 
4.11000000000376, -0.6740407271042701 
4.120000000003737, -0.6736050949643879 
4.130000000003713, -0.6729807163946406 
4.14000000000369, -0.6721261780563214 
4.150000000003667, -0.6710009994851787 
4.1600000000036434, -0.6695826645068808 
4.17000000000362, -0.6678858341732039 
4.180000000003597, -0.665972187898209 
4.1900000000035735, -0.6639408967974831 
4.20000000000355, -0.6619028319778155 
4.210000000003527, -0.6599538611508838 
4.220000000003504, -0.6581606314984855 
4.23000000000348, -0.6565605834466777 
4.240000000003457, -0.6551697479583569 
4.250000000003434, -0.6539915143034212 
4.26000000000341, -0.6530229242940124 
4.270000000003387, -0.6522580015509916 
4.280000000003364, -0.6516889828623551 
4.2900000000033405, -0.6513065469669911 
4.300000000003317, -0.6510998786760588 
4.310000000003294, -0.6510570283334607 
4.320000000003271, -0.6511656770349322 
4.330000000003247, -0.6514141536220529 
4.340000000003224, -0.6517923787751767 
4.350000000003201, -0.6522922952442535 
4.360000000003177, -0.6529072285726882 
4.370000000003154, -0.6536295506951717 
4.380000000003131, -0.6544462530691575 
4.390000000003107, -0.6553330204055665 
4.400000000003084, -0.6562492716636372 
4.410000000003061, -0.657138349462699 
4.4200000000030375, -0.6579361157966416 
4.430000000003014, -0.6585861096978639 
4.440000000002991, -0.6590534718347506 
4.450000000002968, -0.659329699646397 
4.460000000002944, -0.6594270571564484 
4.470000000002921, -0.6593680240856996 
4.480000000002898, -0.6591758810147824 
4.490000000002874, -0.658869242507448 
4.500000000002851, -0.6584604210301259 
4.510000000002828, -0.6579565993244204 
4.520000000002804, -0.6573632370868869 
4.530000000002781, -0.6566899095020257 
4.540000000002758, -0.6559591355119697 
4.5500000000027345, -0.655217892648343 
4.560000000002711, -0.6545481869257535 
4.570000000002688, -0.6540664829831757 
4.580000000002665, -0.6538959347994923 
4.590000000002641, -0.6541051134839365 
4.600000000002618, -0.65464809638124 
4.610000000002595, -0.6553788928482368 
4.620000000002571, -0.6561544075963099 
4.630000000002548, -0.6569163669349412 
4.640000000002525, -0.6576665335354127 
4.6500000000025015, -0.6584002868970974 
4.660000000002478, -0.6590853145994199 
4.670000000002455, -0.6596810978067454 
4.6800000000024315, -0.6601592707508916 
4.690000000002408, -0.6605089367251595 
4.700000000002385, -0.6607317699614816 
4.710000000002362, -0.6608345508915151 
4.720000000002338, -0.6608229369935451 
4.730000000002315, -0.660697197084468 
4.740000000002292, -0.6604495438734026 
4.750000000002268, -0.660062874674044 
4.760000000002245, -0.6595115191354595 
4.770000000002222, -0.6587654659804516 
4.7800000000021985, -0.6577995555799321 
4.790000000002175, -0.656606871691753 
4.800000000002152, -0.6552109204985401 
4.810000000002129, -0.653668061559506 
4.820000000002105, -0.6520558457376372 
4.830000000002082, -0.6504530365553596 
4.840000000002059, -0.6489228447292665 
4.850000000002035, -0.6475065421017301 
4.860000000002012, -0.6462263664216803 
4.870000000001989, -0.6450924521578122 
4.880000000001965, -0.6441093486917885 
4.890000000001942, -0.6432802397354119 
4.900000000001919, -0.6426088465548776 
4.9100000000018955, -0.6420997381878364 
4.920000000001872, -0.6417578349844129 
