t, s[1].omega / s[0].omega 
0, -0.5899977297564545 
0.009999999999999995, -0.589769531020382 
0.019999999999999934, -0.5895355414410889 
0.029999999999999874, -0.589287051658477 
0.04000000000000012, -0.5890140277962512 
0.050000000000000405, -0.5887090523561322 
0.06000000000000069, -0.5883695511784811 
0.07000000000000098, -0.5879981181623706 
0.08000000000000126, -0.5876019623872574 
0.09000000000000155, -0.5871927292449725 
0.10000000000000184, -0.586787544199384 
0.11000000000000212, -0.5864116847446544 
0.12000000000000241, -0.5861030306735306 
0.130000000000002, -0.5859182346798776 
0.1400000000000009, -0.5859400628425575 
0.1499999999999998, -0.5862841145568662 
0.1599999999999987, -0.5871005786946996 
0.1699999999999976, -0.5885625805841711 
0.1799999999999965, -0.5908288109249461 
0.1899999999999954, -0.5939717401348215 
0.1999999999999943, -0.597886947068519 
0.2099999999999932, -0.6022445946134793 
0.2199999999999921, -0.606561008673456 
0.229999999999991, -0.6103840258563996 
0.2399999999999899, -0.6134589024341812 
0.2499999999999888, -0.6157552169621214 
0.2599999999999877, -0.6173813820928469 
0.2699999999999866, -0.6184871625359983 
0.2799999999999855, -0.6192079972285442 
0.2899999999999844, -0.6196473604887138 
0.2999999999999833, -0.619877446044528 
0.3099999999999822, -0.619944917335105 
0.3199999999999811, -0.6198762876202389 
0.32999999999998, -0.6196815195290488 
0.3399999999999789, -0.6193559647845128 
0.3499999999999778, -0.6188814404851974 
0.35999999999997667, -0.618227916850517 
0.36999999999997557, -0.6173581347608084 
0.37999999999997447, -0.6162377453439831 
0.38999999999997337, -0.6148514859871246 
0.39999999999997227, -0.6132202840557072 
0.40999999999997117, -0.6114084481933274 
0.41999999999997006, -0.6095124949522914 
0.42999999999996896, -0.6076357566862296 
0.43999999999996786, -0.6058636262146795 
0.44999999999996676, -0.6042514829444978 
0.45999999999996566, -0.6028261673634663 
0.46999999999996456, -0.6015945319651289 
0.47999999999996346, -0.600552622727222 
0.48999999999996235, -0.5996923476181832 
0.49999999999996125, -0.5990052308738835 
0.5099999999999602, -0.5984840466749842 
0.519999999999959, -0.598123283785734 
0.529999999999958, -0.5979191532755439 
0.5399999999999568, -0.5978695571983003 
0.5499999999999557, -0.5979741896990876 
0.5599999999999546, -0.5982347385643301 
0.5699999999999535, -0.5986549580004146 
0.5799999999999524, -0.5992401548297095 
0.5899999999999513, -0.5999953711724973 
0.5999999999999502, -0.6009213874582104 
0.6099999999999491, -0.6020079928825515 
0.619999999999948, -0.6032253824939614 
0.6299999999999469, -0.6045172837105361 
0.6399999999999458, -0.6058020091105866 
0.6499999999999447, -0.6069862258741071 
0.6599999999999436, -0.60798826957298 
0.6699999999999425, -0.6087587481192713 
0.6799999999999414, -0.609286668156253 
0.6899999999999403, -0.6095902925277555 
0.6999999999999392, -0.6097014613358314 
0.7099999999999381, -0.6096521230471386 
0.719999999999937, -0.6094663376418794 
0.7299999999999359, -0.6091566947140412 
0.7399999999999348, -0.6087228091464187 
0.7499999999999337, -0.6081499589749744 
0.7599999999999326, -0.6074066278966275 
0.7699999999999315, -0.6064402623340859 
0.7799999999999304, -0.6051712768069507 
0.7899999999999293, -0.6034873383552116 
0.7999999999999282, -0.6012451744322799 
0.8099999999999271, -0.5982962350839406 
0.819999999999926, -0.5945562722025991 
0.8299999999999249, -0.5901107760663991 
0.8399999999999238, -0.5852805089324592 
0.8499999999999227, -0.5805491647927206 
0.8599999999999216, -0.5763716604896629 
0.8699999999999205, -0.5730118689387075 
0.8799999999999194, -0.570513460180406 
0.8899999999999183, -0.5687711490406551 
0.8999999999999172, -0.5676196597557636 
0.9099999999999161, -0.5668941334452381 
0.919999999999915, -0.5664575394385919 
0.9299999999999139, -0.5662067837545112 
0.9399999999999128, -0.5660688884613532 
0.9499999999999117, -0.5659941077941278 
0.9599999999999106, -0.5659492101297635 
0.9699999999999095, -0.5659121313411447 
0.9799999999999084, -0.5658682970553212 
0.9899999999999073, -0.5658085585678123 
0.9999999999999062, -0.5657284834991569 
1.0099999999999052, -0.5656284389366596 
1.019999999999904, -0.5655134948007705 
1.029999999999903, -0.5653920113091963 
1.039999999999902, -0.5652723749022042 
1.0499999999999008, -0.5651587296167353 
1.0599999999998997, -0.5650477968008646 
1.0699999999998986, -0.5649287875622339 
1.0799999999998975, -0.5647867401349644 
1.0899999999998964, -0.5646075037923314 
1.0999999999998953, -0.5643817366130114 
1.1099999999998942, -0.5641063497383736 
1.119999999999893, -0.56378372371288 
1.129999999999892, -0.5634201572992408 
1.1399999999998909, -0.563024944498423 
1.1499999999998898, -0.5626108707111602 
1.1599999999998887, -0.562196456120463 
1.1699999999998876, -0.5618101085114195 
1.1799999999998865, -0.561496233871101 
1.1899999999998854, -0.5613228362949088 
1.1999999999998843, -0.5613885524410664 
1.2099999999998832, -0.5618236030424181 
1.219999999999882, -0.5627738337339306 
1.229999999999881, -0.5643540071496282 
1.2399999999998799, -0.5665686357969563 
1.2499999999998788, -0.5692397710731217 
1.2599999999998777, -0.5720244447485563 
1.2699999999998766, -0.5745594785593985 
1.2799999999998755, -0.5766282675760607 
1.2899999999998744, -0.5782028946692811 
1.2999999999998733, -0.5793644462478145 
1.3099999999998722, -0.5802127530985177 
1.319999999999871, -0.5808259909131354 
1.32999999999987, -0.5812574428614539 
1.3399999999998689, -0.581543059179763 
1.3499999999998678, -0.5817076415955552 
1.3599999999998666, -0.5817678884497733 
1.3699999999998655, -0.5817334885844458 
1.3799999999998644, -0.5816073935495711 
1.3899999999998633, -0.5813859824688428 
1.3999999999998622, -0.5810597510314071 
1.4099999999998611, -0.5806153366112803 
1.41999999999986, -0.5800397507368003 
1.429999999999859, -0.5793269877174148 
1.4399999999998578, -0.5784852674240557 
1.4499999999998567, -0.5775409694440318 
1.4599999999998556, -0.5765354883557253 
1.4699999999998545, -0.5755153338061744 
1.4799999999998534, -0.5745207120804166 
1.4899999999998523, -0.5735785396051128 
1.4999999999998512, -0.5727020073004176 
1.5099999999998501, -0.5718947065076665 
1.519999999999849, -0.5711560227429144 
1.529999999999848, -0.5704855623867855 
1.5399999999998468, -0.5698859807112348 
1.5499999999998457, -0.5693645825090493 
1.5599999999998446, -0.5689343199393629 
1.5699999999998435, -0.5686146488746379 
1.5799999999998424, -0.5684324537966268 
1.5899999999998413, -0.5684230524302772 
1.5999999999998402, -0.5686311247493472 
1.6099999999998391, -0.5691111693404649 
1.619999999999838, -0.5699266244233245 
1.629999999999837, -0.5711459673333382 
1.6399999999998358, -0.572832994701888 
1.6499999999998347, -0.5750278537116496 
1.6599999999998336, -0.5777174687431026 
1.6699999999998325, -0.5808022193487019 
1.6799999999998314, -0.5840799361793755 
1.6899999999998303, -0.5872751302366954 
1.6999999999998292, -0.5901180473176681 
1.709999999999828, -0.5924311156294471 
1.719999999999827, -0.594165129110537 
1.729999999999826, -0.5953721276572207 
1.7399999999998248, -0.5961508600754525 
1.7499999999998237, -0.5966026000772616 
1.7599999999998226, -0.5968092082896773 
1.7699999999998215, -0.5968273878581254 
1.7799999999998204, -0.5966900541964375 
1.7899999999998193, -0.5964089851834832 
1.7999999999998182, -0.5959761933178586 
1.809999999999817, -0.5953634212046569 
1.819999999999816, -0.594520523775151 
1.8299999999998149, -0.5933753024144938 
1.8399999999998138, -0.5918401184446148 
1.8499999999998127, -0.5898328255342797 
1.8599999999998116, -0.5873157162945828 
1.8699999999998105, -0.5843401677221549 
1.8799999999998094, -0.5810649208279235 
1.8899999999998083, -0.5777216409795509 
1.8999999999998072, -0.574542592867615 
1.909999999999806, -0.5716976361185089 
1.919999999999805, -0.5692722593903271 
1.9299999999998039, -0.5672812807964044 
1.9399999999998028, -0.5656958251192076 
1.9499999999998017, -0.5644671264426461 
1.9599999999998006, -0.5635418443505485 
1.9699999999997995, -0.5628699863069823 
1.9799999999997984, -0.5624081775347853 
1.9899999999997973, -0.5621205370884554 
1.9999999999997962, -0.5619785289026455 
2.0099999999998173, -0.5619604767523774 
2.0199999999998384, -0.5620510329614888 
2.0299999999998595, -0.5622406713664124 
2.0399999999998806, -0.5625251120422603 
2.0499999999999017, -0.562904385407729 
2.059999999999923, -0.563380994166277 
2.069999999999944, -0.5639564819646428 
2.079999999999965, -0.5646260262894381 
2.089999999999986, -0.5653718539101994 
2.100000000000007, -0.5661582592857943 
2.1100000000000283, -0.566932456615325 
2.1200000000000494, -0.5676339431045667 
2.1300000000000705, -0.5682096127606042 
2.1400000000000916, -0.5686266290865706 
2.1500000000001127, -0.5688760947543273 
2.160000000000134, -0.5689673637301904 
2.170000000000155, -0.56891828070548 
2.180000000000176, -0.5687465377646261 
2.190000000000197, -0.5684641615914794 
2.2000000000002182, -0.5680745831723552 
2.2100000000002393, -0.5675708673416994 
2.2200000000002604, -0.5669337758855231 
2.2300000000002815, -0.5661286170678035 
2.2400000000003026, -0.5651000607835737 
2.2500000000003237, -0.5637647264289352 
2.260000000000345, -0.5620039387147766 
2.270000000000366, -0.5596663925628514 
2.280000000000387, -0.5566024821351195 
2.290000000000408, -0.5527521315643368 
2.3000000000004293, -0.548260401266303 
2.3100000000004504, -0.5435146283510045 
2.3200000000004715, -0.539016291899994 
2.3300000000004926, -0.535168947946892 
2.3400000000005137, -0.5321540991992868 
2.3500000000005348, -0.5299509243793132 
2.360000000000556, -0.5284264358117419 
2.370000000000577, -0.5274169183804319 
2.380000000000598, -0.5267735077992357 
2.390000000000619, -0.5263784557420007 
2.4000000000006403, -0.5261456460789392 
2.4100000000006614, -0.5260150614898783 
2.4200000000006825, -0.525946164011113 
2.4300000000007036, -0.5259121911011733 
2.4400000000007247, -0.5258959497372774 
2.450000000000746, -0.5258871234018712 
2.460000000000767, -0.5258808710826333 
2.470000000000788, -0.5258772804040229 
2.480000000000809, -0.5258809253319956 
2.49000000000083, -0.5258995298407906 
2.5000000000008513, -0.5259409592341959 
2.5100000000008724, -0.526008747411556 
2.5200000000008935, -0.5260977828472573 
2.5300000000009146, -0.526192599272331 
2.5400000000009357, -0.5262699447947267 
2.550000000000957, -0.5263049351830101 
2.560000000000978, -0.5262777031168933 
2.570000000000999, -0.5261771878709938 
2.58000000000102, -0.5260008926987575 
2.5900000000010412, -0.5257519476052969 
2.6000000000010624, -0.5254356554646943 
2.6100000000010835, -0.5250569752471164 
2.6200000000011046, -0.5246193483456854 
2.6300000000011257, -0.5241246621027451 
2.6400000000011468, -0.5235739331427974 
2.650000000001168, -0.522968089938354 
2.660000000001189, -0.5223075983376007 
2.67000000000121, -0.5215883053878626 
2.680000000001231, -0.5207893841964599 
2.6900000000012523, -0.5198513522332004 
2.7000000000012734, -0.5186561662154637 
2.7100000000012945, -0.5170486934017966 
2.7200000000013156, -0.514939003367675 
2.7300000000013367, -0.5124336288077387 
2.740000000001358, -0.5098432472804628 
2.750000000001379, -0.5075191798675067 
2.7600000000014, -0.5056787496165429 
2.770000000001421, -0.5043619693651433 
2.780000000001442, -0.503492756461016 
2.7900000000014633, -0.50295529751633 
2.8000000000014844, -0.5026408159501797 
2.8100000000015055, -0.5024647791632018 
2.8200000000015266, -0.5023677597538034 
2.8300000000015477, -0.5023102915485766 
2.840000000001569, -0.5022669203813316 
2.85000000000159, -0.5022213867393454 
2.860000000001611, -0.5021634063566921 
2.870000000001632, -0.5020870017599195 
2.8800000000016532, -0.5019901480739801 
2.8900000000016743, -0.5018752561342764 
2.9000000000016954, -0.5017496137172502 
2.9100000000017165, -0.5016245915309396 
2.9200000000017377, -0.5015127320390504 
2.9300000000017588, -0.501423051774715 
2.94000000000178, -0.5013564081546669 
2.950000000001801, -0.5013034186071601 
2.960000000001822, -0.5012464274421591 
2.970000000001843, -0.5011647964444828 
2.9800000000018643, -0.5010408177674054 
2.9900000000018854, -0.5008633954625604 
3.0000000000019065, -0.5006284201673488 
3.0100000000019276, -0.500336808466109 
3.0200000000019487, -0.49999194737545605 
3.03000000000197, -0.499597799510519 
3.040000000001991, -0.49915811117948994 
3.050000000002012, -0.4986766327778883 
3.060000000002033, -0.4981579962882939 
3.070000000002054, -0.4976085495510518 
3.0800000000020753, -0.49703556924060643 
3.0900000000020964, -0.49644154406476604 
3.1000000000021175, -0.49580843969721744 
3.1100000000021386, -0.49506964745176896 
3.1200000000021597, -0.49408476739112583 
3.130000000002181, -0.49266492174064036 
3.140000000002202, -0.4906931252924932 
3.150000000002223, -0.48827297258459296 
3.160000000002244, -0.4857307621988457 
3.1700000000022652, -0.4834322922279646 
3.1800000000022863, -0.4816004565297297 
3.1900000000023074, -0.48027731687201136 
3.2000000000023285, -0.47939028503986914 
3.2100000000023496, -0.47882867083294933 
3.2200000000023707, -0.4784887946603398 
3.230000000002392, -0.4782900797669095 
3.240000000002413, -0.47817571245454105 
3.250000000002434, -0.4781078173027008 
3.260000000002455, -0.4780619787244775 
3.2700000000024763, -0.47802286146567374 
3.2800000000024974, -0.4779813292408008 
3.2900000000025185, -0.47793297959573466 
3.3000000000025396, -0.47787780374364025 
3.3100000000025607, -0.4778204193432772 
3.3200000000025818, -0.47776996256260695 
3.330000000002603, -0.47773854202754995 
3.340000000002624, -0.4777376146730331 
3.350000000002645, -0.4777728839144702 
3.360000000002666, -0.477839744846429 
3.3700000000026873, -0.4779218512699924 
3.3800000000027084, -0.4779942883200559 
3.3900000000027295, -0.47803032219547886 
3.4000000000027506, -0.4780083815062057 
3.4100000000027717, -0.47791586830036376 
3.420000000002793, -0.4777487434505573 
3.430000000002814, -0.4775083330648452 
3.440000000002835, -0.4771975234385142 
3.450000000002856, -0.47681767807241415 
3.460000000002877, -0.47636648388790687 
3.4700000000028983, -0.47583622172899637 
3.4800000000029194, -0.4752115858927632 
3.4900000000029405, -0.47446580386475423 
3.5000000000029616, -0.473553275000054 
3.5100000000029827, -0.47239689763553255 
3.520000000003004, -0.4708714658113825 
3.530000000003025, -0.46879676137702103 
3.540000000003046, -0.46597597005843594 
3.550000000003067, -0.4623152693559828 
3.5600000000030882, -0.45797724696830794 
3.5700000000031094, -0.45340485435359285 
3.5800000000031305, -0.44913005270471673 
3.5900000000031516, -0.44553018396400335 
3.6000000000031727, -0.4427348353053294 
3.6100000000031938, -0.44068683759716987 
3.620000000003215, -0.439245564672443 
3.630000000003236, -0.43826003046635204 
3.640000000003257, -0.43760210275086886 
3.650000000003278, -0.4371746075358165 
3.6600000000032993, -0.4369084589437269 
3.6700000000033204, -0.4367567260993851 
3.6800000000033415, -0.43668898168803266 
3.6900000000033626, -0.4366869750140025 
3.7000000000033837, -0.43674172900537356 
3.710000000003405, -0.4368518074826785 
3.720000000003426, -0.4370222992671384 
3.730000000003447, -0.4372638239777696 
3.740000000003468, -0.437590589891412 
3.750000000003489, -0.4380164533538844 
3.7600000000035103, -0.43854843465006327 
3.7700000000035314, -0.43917859453926944 
3.7800000000035525, -0.43987745202811424 
3.7900000000035736, -0.44059386564759856 
3.8000000000035947, -0.44126474007846284 
3.810000000003616, -0.4418317779658657 
3.820000000003637, -0.442256319358739 
3.830000000003658, -0.4425242626574069 
3.840000000003679, -0.4426406779567828 
3.8500000000037002, -0.4426197694306565 
3.8600000000037213, -0.44247570115367035 
3.8700000000037424, -0.4422163473600299 
3.8800000000037635, -0.4418393034483749 
3.8900000000037847, -0.44132859671589914 
3.9000000000038058, -0.4406507874308313 
3.910000000003827, -0.4397500507864812 
3.920000000003848, -0.43854376110227145 
3.930000000003869, -0.4369240411707659 
3.94000000000389, -0.434776335559986 
3.9500000000039113, -0.43202670313503233 
3.9600000000039324, -0.4287105186096431 
3.9700000000039535, -0.42501610184623984 
3.9800000000039746, -0.42124640612230413 
3.9900000000039957, -0.4177077618298271 
4.000000000004016, -0.4146084260541084 
4.010000000003993, -0.4120293358097811 
4.02000000000397, -0.40995523180677473 
4.030000000003946, -0.4083221683700904 
4.040000000003923, -0.40705355826036005 
4.0500000000039, -0.40607949143543626 
4.0600000000038765, -0.40534415213337427 
4.070000000003853, -0.4048070732050113 
4.08000000000383, -0.4044420358274241 
4.090000000003807, -0.4042355955893925 
4.100000000003783, -0.4041861015431528 
4.11000000000376, -0.40430350116909086 
4.120000000003737, -0.40460990644921174 
4.130000000003713, -0.40514058296066435 
4.14000000000369, -0.4059444773786066 
4.150000000003667, -0.4070823829256692 
4.1600000000036434, -0.40861927936398185 
4.17000000000362, -0.4106059738319055 
4.180000000003597, -0.4130466697521431 
4.1900000000035735, -0.4158587282511209 
4.20000000000355, -0.41885001248792086 
4.210000000003527, -0.4217497352117513 
4.220000000003504, -0.4242976567534983 
4.23000000000348, -0.426336007554106 
4.240000000003457, -0.4278378840427101 
4.250000000003434, -0.428868626122895 
4.26000000000341, -0.4295277898195172 
4.270000000003387, -0.42990917150975516 
4.280000000003364, -0.43008467124961636 
4.2900000000033405, -0.43010248919442134 
4.300000000003317, -0.4299905320064168 
4.310000000003294, -0.4297604253501327 
4.320000000003271, -0.4294108668115036 
4.330000000003247, -0.42893082882712674 
4.340000000003224, -0.42830402974614223 
4.350000000003201, -0.42751624451245585 
4.360000000003177, -0.4265656956757543 
4.370000000003154, -0.42547338528544254 
4.380000000003131, -0.42428675166846314 
4.390000000003107, -0.42307135885243785 
4.400000000003084, -0.4218932257637465 
4.410000000003061, -0.42080177217844394 
4.4200000000030375, -0.4198220252682991 
4.430000000003014, -0.41895705503344105 
4.440000000002991, -0.41819596671367043 
4.450000000002968, -0.41752237773668216 
4.460000000002944, -0.4169206485821653 
4.470000000002921, -0.4163794160237673 
4.480000000002898, -0.4158932161995271 
4.490000000002874, -0.41546331181615015 
4.500000000002851, -0.415098674655599 
4.510000000002828, -0.4148177892100766 
4.520000000002804, -0.41465171315075766 
4.530000000002781, -0.41464861529505 
4.540000000002758, -0.41487954992133336 
4.5500000000027345, -0.4154439564152909 
4.560000000002711, -0.41647033808518 
4.570000000002688, -0.4181018736332627 
4.580000000002665, -0.4204503036097539 
4.590000000002641, -0.42350641251056553 
4.600000000002618, -0.4270371186813116 
4.610000000002595, -0.43057519208881506 
4.620000000002571, -0.4336023098549682 
4.630000000002548, -0.4358222043922167 
4.640000000002525, -0.43726068492860426 
4.6500000000025015, -0.4381304568091637 
4.660000000002478, -0.4386533225397473 
4.670000000002455, -0.4389801296303683 
4.6800000000024315, -0.43919280342294 
4.690000000002408, -0.4393306589544467 
4.700000000002385, -0.439411694116819 
4.710000000002362, -0.439444236718104 
4.720000000002338, -0.4394321454882716 
4.730000000002315, -0.43937689669576113 
4.740000000002292, -0.43927857790182967 
4.750000000002268, -0.4391368612997278 
4.760000000002245, -0.4389524871581412 
4.770000000002222, -0.4387293206833102 
4.7800000000021985, -0.4384764095157922 
4.790000000002175, -0.43820879442454874 
4.800000000002152, -0.4379457288278769 
4.810000000002129, -0.43770602763653416 
4.820000000002105, -0.437502093459476 
4.830000000002082, -0.4373353706148042 
4.840000000002059, -0.4371955383015166 
4.850000000002035, -0.4370639253870892 
4.860000000002012, -0.4369194719414559 
4.870000000001989, -0.43674434654257255 
4.880000000001965, -0.43652690609403066 
4.890000000001942, -0.4362615583953553 
4.900000000001919, -0.4359466839560887 
