t, s[1].omega / s[0].omega 
0, -0.7299976800231601 
0.009999999999999995, -0.729745829609395 
0.019999999999999934, -0.7294535661237506 
0.029999999999999874, -0.729118660007718 
0.04000000000000012, -0.7287402695131593 
0.050000000000000405, -0.7283213243373268 
0.06000000000000069, -0.727869797082942 
0.07000000000000098, -0.7273990772684321 
0.08000000000000126, -0.7269282845557865 
0.09000000000000155, -0.7264831371582321 
0.10000000000000184, -0.7260973627390722 
0.11000000000000212, -0.7258140637608546 
0.12000000000000241, -0.725686135748967 
0.130000000000002, -0.7257748476584017 
0.1400000000000009, -0.726146011350704 
0.1499999999999998, -0.7268636223125254 
0.1599999999999987, -0.7279811256042364 
0.1699999999999976, -0.7295303528332738 
0.1799999999999965, -0.7315080743597131 
0.1899999999999954, -0.7338612174094177 
0.1999999999999943, -0.7364754435670043 
0.2099999999999932, -0.7391770462565299 
0.2199999999999921, -0.7417589388374891 
0.229999999999991, -0.7440296406345924 
0.2399999999999899, -0.7458634323543498 
0.2499999999999888, -0.7472225850431421 
0.2599999999999877, -0.7481424215783671 
0.2699999999999866, -0.7486962522418839 
0.2799999999999855, -0.7489630749528536 
0.2899999999999844, -0.7490087667036202 
0.2999999999999833, -0.7488793495894952 
0.3099999999999822, -0.7486007982490183 
0.3199999999999811, -0.7481809823158461 
0.32999999999998, -0.7476116017052165 
0.3399999999999789, -0.7468697067805208 
0.3499999999999778, -0.745919552913371 
0.35999999999997667, -0.7447164126511929 
0.36999999999997557, -0.7432145537548116 
0.37999999999997447, -0.7413814405238839 
0.38999999999997337, -0.7392188565886405 
0.39999999999997227, -0.7367891208129849 
0.40999999999997117, -0.7342394535129343 
0.41999999999997006, -0.7318048048478226 
0.42999999999996896, -0.729757844256659 
0.43999999999996786, -0.7283050748578671 
0.44999999999996676, -0.7274974533357373 
0.45999999999996566, -0.7272297089755635 
0.46999999999996456, -0.7273167599812915 
0.47999999999996346, -0.7275770246243446 
0.48999999999996235, -0.727876853098222 
0.49999999999996125, -0.7281363930939719 
0.5099999999999602, -0.7283162403499557 
0.519999999999959, -0.7284005304424642 
0.529999999999958, -0.7283833176857908 
0.5399999999999568, -0.7282593600067944 
0.5499999999999557, -0.7280183039153104 
0.5599999999999546, -0.7276412163486923 
0.5699999999999535, -0.7270992988000047 
0.5799999999999524, -0.7263558386469984 
0.5899999999999513, -0.7253732841348517 
0.5999999999999502, -0.7241263740290511 
0.6099999999999491, -0.7226182288359169 
0.619999999999948, -0.7208910324835088 
0.6299999999999469, -0.7190226346417263 
0.6399999999999458, -0.7171088617790453 
0.6499999999999447, -0.7152415199136376 
0.6599999999999436, -0.7134933414476573 
0.6699999999999425, -0.7119136917728424 
0.6799999999999414, -0.7105316739317498 
0.6899999999999403, -0.7093614787440334 
0.6999999999999392, -0.7084067521616602 
0.7099999999999381, -0.7076631549896629 
0.719999999999937, -0.70711967458883 
0.7299999999999359, -0.7067595977314559 
0.7399999999999348, -0.7065617960827816 
0.7499999999999337, -0.7065025025436504 
0.7599999999999326, -0.7065573499773001 
0.7699999999999315, -0.7067032638565394 
0.7799999999999304, -0.7069198530001501 
0.7899999999999293, -0.7071900955141164 
0.7999999999999282, -0.7075002036334018 
0.8099999999999271, -0.7078385234469564 
0.819999999999926, -0.7081933649803873 
0.8299999999999249, -0.7085500905012132 
0.8399999999999238, -0.7088886798092583 
0.8499999999999227, -0.7091836794004325 
0.8599999999999216, -0.7094077797869001 
0.8699999999999205, -0.7095379728952774 
0.8799999999999194, -0.7095610487026887 
0.8899999999999183, -0.7094754581701515 
0.8999999999999172, -0.7092892536974278 
0.9099999999999161, -0.7090162989306211 
0.919999999999915, -0.7086733370378925 
0.9299999999999139, -0.7082794278640979 
0.9399999999999128, -0.7078581847208194 
0.9499999999999117, -0.7074427725475203 
0.9599999999999106, -0.7070834715666036 
0.9699999999999095, -0.7068571775833532 
0.9799999999999084, -0.706876987819908 
0.9899999999999073, -0.7072977141822051 
0.9999999999999062, -0.7083099666861268 
1.0099999999999052, -0.7101127104873635 
1.019999999999904, -0.7128556723967149 
1.029999999999903, -0.7165555697151161 
1.039999999999902, -0.7210188971089015 
1.0499999999999008, -0.7258341902278167 
1.0599999999998997, -0.7304811024629625 
1.0699999999998986, -0.7345146752936211 
1.0799999999998975, -0.7377021752045939 
1.0899999999998964, -0.7400314926820166 
1.0999999999998953, -0.7416264855632725 
1.1099999999998942, -0.7426530645626219 
1.119999999999893, -0.7432619624787428 
1.129999999999892, -0.7435677837272441 
1.1399999999998909, -0.7436478162052037 
1.1499999999998898, -0.7435473390977615 
1.1599999999998887, -0.7432847509450624 
1.1699999999998876, -0.7428540198855368 
1.1799999999998865, -0.742223831186773 
1.1899999999998854, -0.7413337589034523 
1.1999999999998843, -0.740089173306971 
1.2099999999998832, -0.7383597239332503 
1.219999999999882, -0.7359916753867211 
1.229999999999881, -0.7328487448887414 
1.2399999999998799, -0.7288877211467668 
1.2499999999998788, -0.7242416284180562 
1.2599999999998777, -0.7192442753238554 
1.2699999999998766, -0.7143474498166753 
1.2799999999998755, -0.7099697009158406 
1.2899999999998744, -0.7063755971161876 
1.2999999999998733, -0.7036444980950084 
1.3099999999998722, -0.701711769812288 
1.319999999999871, -0.7004344456698743 
1.32999999999987, -0.6996472528175702 
1.3399999999998689, -0.6991976143605775 
1.3499999999998678, -0.6989615369800867 
1.3599999999998666, -0.6988465251538127 
1.3699999999998655, -0.6987874693543233 
1.3799999999998644, -0.6987398563579175 
1.3899999999998633, -0.6986729706081313 
1.3999999999998622, -0.698564494850851 
1.4099999999998611, -0.6983971685398853 
1.41999999999986, -0.698157739632103 
1.429999999999859, -0.697837987550433 
1.4399999999998578, -0.6974368199677978 
1.4499999999998567, -0.6969616090996031 
1.4599999999998556, -0.6964269773284106 
1.4699999999998545, -0.6958508339517893 
1.4799999999998534, -0.6952496228857046 
1.4899999999998523, -0.6946354210718151 
1.4999999999998512, -0.6940160783226026 
1.5099999999998501, -0.6933975515712236 
1.519999999999849, -0.6927867288937427 
1.529999999999848, -0.6921935860820413 
1.5399999999998468, -0.6916324828425422 
1.5499999999998457, -0.6911229096501572 
1.5599999999998446, -0.6906899243732615 
1.5699999999998435, -0.690364223740805 
1.5799999999998424, -0.690181608595074 
1.5899999999998413, -0.6901816358989534 
1.5999999999998402, -0.6904054313051413 
1.6099999999998391, -0.6908927824832752 
1.619999999999838, -0.6916785495286024 
1.629999999999837, -0.6927880384854144 
1.6399999999998358, -0.6942304874044603 
1.6499999999998347, -0.6959898217889597 
1.6599999999998336, -0.6980133486784734 
1.6699999999998325, -0.7002028125954153 
1.6799999999998314, -0.702416744197243 
1.6899999999998303, -0.704492626208417 
1.6999999999998292, -0.7062861473482787 
1.709999999999828, -0.7077084292854878 
1.719999999999827, -0.7087393191713096 
1.729999999999826, -0.7094126019524946 
1.7399999999998248, -0.7097880364492708 
1.7499999999998237, -0.7099271175701068 
1.7599999999998226, -0.7098794166502577 
1.7699999999998215, -0.7096777394481496 
1.7799999999998204, -0.7093378259406533 
1.7899999999998193, -0.7088593465940191 
1.7999999999998182, -0.7082266170845387 
1.809999999999817, -0.7074086816010221 
1.819999999999816, -0.7063592296661714 
1.8299999999998149, -0.7050175122005057 
1.8399999999998138, -0.7033123474660354 
1.8499999999998127, -0.7011730102568998 
1.8599999999998116, -0.6985537011441646 
1.8699999999998105, -0.6954788804318236 
1.8799999999998094, -0.6921011165191345 
1.8899999999998083, -0.6887229468210361 
1.8999999999998072, -0.6857198258182138 
1.909999999999806, -0.6833846194424862 
1.919999999999805, -0.6818143894374391 
1.9299999999998039, -0.680919929994513 
1.9399999999998028, -0.6805165086071325 
1.9499999999998017, -0.6804127416152302 
1.9599999999998006, -0.6804575442305683 
1.9699999999997995, -0.6805498035717548 
1.9799999999997984, -0.6806292455308736 
1.9899999999997973, -0.6806624834120256 
1.9999999999997962, -0.6806307537036295 
2.0099999999998173, -0.6805210594489207 
2.0199999999998384, -0.6803204978567663 
2.0299999999998595, -0.6800132864802767 
2.0399999999998806, -0.6795804681264515 
2.0499999999999017, -0.6790027551698447 
2.059999999999923, -0.6782666970075888 
2.069999999999944, -0.6773726763946011 
2.079999999999965, -0.6763407788299015 
2.089999999999986, -0.6752099962949216 
2.100000000000007, -0.674029791324619 
2.1100000000000283, -0.6728484485502043 
2.1200000000000494, -0.6717044927368843 
2.1300000000000705, -0.6706242612357628 
2.1400000000000916, -0.6696243826163981 
2.1500000000001127, -0.6687160752911322 
2.160000000000134, -0.6679088762057124 
2.170000000000155, -0.6672128615890351 
2.180000000000176, -0.6666394144650989 
2.190000000000197, -0.6662009591361131 
2.2000000000002182, -0.6659101176850594 
2.2100000000002393, -0.6657786943513535 
2.2200000000002604, -0.6658168223601095 
2.2300000000002815, -0.6660324756129146 
2.2400000000003026, -0.6664313209722466 
2.2500000000003237, -0.6670165818622829 
2.260000000000345, -0.6677882633911463 
2.270000000000366, -0.6687408760008996 
2.280000000000387, -0.6698589471963106 
2.290000000000408, -0.6711105748925698 
2.3000000000004293, -0.6724413943200188 
2.3100000000004504, -0.6737738712039557 
2.3200000000004715, -0.6750170053097964 
2.3300000000004926, -0.6760861925980856 
2.3400000000005137, -0.6769242802543232 
2.3500000000005348, -0.6775117507906494 
2.360000000000556, -0.6778615794832505 
2.370000000000577, -0.6780048389780171 
2.380000000000598, -0.6779762694144591 
2.390000000000619, -0.677804907932588 
2.4000000000006403, -0.677509972595303 
2.4100000000006614, -0.6771001029180008 
2.4200000000006825, -0.6765742357183447 
2.4300000000007036, -0.6759233179540317 
2.4400000000007247, -0.6751328678988846 
2.450000000000746, -0.6741867670279278 
2.460000000000767, -0.6730723160419596 
2.470000000000788, -0.6717852610004516 
2.480000000000809, -0.6703320089308816 
2.49000000000083, -0.6687283363245979 
2.5000000000008513, -0.6670034260399224 
2.5100000000008724, -0.6652236540743297 
2.5200000000008935, -0.6635229123071901 
2.5300000000009146, -0.6620846824899241 
2.5400000000009357, -0.661057274269601 
2.550000000000957, -0.6604766750887346 
2.560000000000978, -0.6602675500407449 
2.570000000000999, -0.6603019470287014 
2.58000000000102, -0.6604566949717681 
2.5900000000010412, -0.6606409885942879 
2.6000000000010624, -0.6607988281628508 
2.6100000000010835, -0.6609001011163356 
2.6200000000011046, -0.6609298390216429 
2.6300000000011257, -0.6608795277226347 
2.6400000000011468, -0.6607411447807655 
2.650000000001168, -0.6605035604105155 
2.660000000001189, -0.6601510684512019 
2.67000000000121, -0.6596643770806099 
2.680000000001231, -0.6590247522456383 
2.6900000000012523, -0.6582213747230876 
2.7000000000012734, -0.6572598182715351 
2.7100000000012945, -0.6561670129744577 
2.7200000000013156, -0.6549882916792877 
2.7300000000013367, -0.6537768305875788 
2.740000000001358, -0.6525812634712808 
2.750000000001379, -0.651437886343915 
2.7600000000014, -0.6503696204852585 
2.770000000001421, -0.6493895956566516 
2.780000000001442, -0.6485059931691783 
2.7900000000014633, -0.647725928686575 
2.8000000000014844, -0.6470576951098679 
2.8100000000015055, -0.6465115859584345 
2.8200000000015266, -0.6460997732747207 
2.8300000000015477, -0.6458356718266709 
2.840000000001569, -0.645733129806831 
2.85000000000159, -0.6458057010925661 
2.860000000001611, -0.6460661306269302 
2.870000000001632, -0.6465259729187669 
2.8800000000016532, -0.6471949546452332 
2.8900000000016743, -0.6480793345693266 
2.9000000000016954, -0.6491782626661713 
2.9100000000017165, -0.6504773657975166 
2.9200000000017377, -0.6519401144477267 
2.9300000000017588, -0.6535003736668046 
2.94000000000178, -0.6550627285727417 
2.950000000001801, -0.6565167047144254 
2.960000000001822, -0.6577630565230859 
2.970000000001843, -0.6587391508898772 
2.9800000000018643, -0.6594286227545635 
2.9900000000018854, -0.6598521716558822 
3.0000000000019065, -0.6600489878799016 
3.0100000000019276, -0.6600599929511414 
3.0200000000019487, -0.6599177911023564 
3.03000000000197, -0.6596425081570826 
3.040000000001991, -0.6592407846318613 
3.050000000002012, -0.658705673981163 
3.060000000002033, -0.6580162096882679 
3.070000000002054, -0.657136166055065 
3.0800000000020753, -0.656012029415748 
3.0900000000020964, -0.6545707932296492 
3.1000000000021175, -0.6527198384306444 
3.1100000000021386, -0.6503556678561729 
3.1200000000021597, -0.6473958699576282 
3.130000000002181, -0.6438481705291896 
3.140000000002202, -0.6398948617272501 
3.150000000002223, -0.635908412008186 
3.160000000002244, -0.6323290211377048 
3.1700000000022652, -0.6294759437424126 
3.1800000000022863, -0.6274458401534333 
3.1900000000023074, -0.6261479480275788 
3.2000000000023285, -0.6254027897442896 
3.2100000000023496, -0.6250249330008922 
3.2200000000023707, -0.6248639448781097 
3.230000000002392, -0.6248132990591986 
3.240000000002413, -0.6248037648842615 
3.250000000002434, -0.6247924826655836 
3.260000000002455, -0.6247529279474858 
3.2700000000024763, -0.6246673952247102 
3.2800000000024974, -0.624522142723379 
3.2900000000025185, -0.624305006903788 
3.3000000000025396, -0.6240053760919783 
3.3100000000025607, -0.6236163303326258 
3.3200000000025818, -0.6231380950791323 
3.330000000002603, -0.6225808463725939 
3.340000000002624, -0.6219644229074017 
3.350000000002645, -0.6213139306219502 
3.360000000002666, -0.6206530915987134 
3.3700000000026873, -0.6199989366423677 
3.3800000000027084, -0.6193603432769358 
3.3900000000027295, -0.6187402252086278 
3.4000000000027506, -0.6181393456173608 
3.4100000000027717, -0.6175597685901897 
3.420000000002793, -0.6170071233185545 
3.430000000002814, -0.6164919204232492 
3.440000000002835, -0.6160305399428212 
3.450000000002856, -0.6156463436349954 
3.460000000002877, -0.6153710280113673 
3.4700000000028983, -0.6152460616835368 
3.4800000000029194, -0.6153238719849504 
3.4900000000029405, -0.6156682762892002 
3.5000000000029616, -0.6163533511123952 
3.5100000000029827, -0.6174593366994359 
3.520000000003004, -0.6190632429465509 
3.530000000003025, -0.6212210256734886 
3.540000000003046, -0.6239392429774941 
3.550000000003067, -0.627140194685379 
3.5600000000030882, -0.63063749263278 
3.5700000000031094, -0.6341505049109838 
3.5800000000031305, -0.6373739497101762 
3.5900000000031516, -0.6400744371158107 
3.6000000000031727, -0.642151924725787 
3.6100000000031938, -0.6436315108566673 
3.620000000003215, -0.6446096070534503 
3.630000000003236, -0.6451994249038273 
3.640000000003257, -0.6454988661610462 
3.650000000003278, -0.6455792527360885 
3.6600000000032993, -0.6454850153038445 
3.6700000000033204, -0.6452365138629891 
3.6800000000033415, -0.644831992802868 
3.6900000000033626, -0.6442471621845243 
3.7000000000033837, -0.6434322626074367 
3.710000000003405, -0.6423078626231199 
3.720000000003426, -0.6407633503683682 
3.730000000003447, -0.6386667824173996 
3.740000000003468, -0.6358986883609546 
3.750000000003489, -0.6324154748309302 
3.7600000000035103, -0.6283192977045816 
3.7700000000035314, -0.6238782423347682 
3.7800000000035525, -0.6194573964997576 
3.7900000000035736, -0.6153968688563405 
3.8000000000035947, -0.6119189991571634 
3.810000000003616, -0.6091078517051979 
3.820000000003637, -0.6069417677547583 
3.830000000003658, -0.6053401447947684 
3.840000000003679, -0.6042008377694347 
3.8500000000037002, -0.6034227596202434 
3.8600000000037213, -0.6029168062446864 
3.8700000000037424, -0.6026096258829177 
3.8800000000037635, -0.6024436006005898 
3.8900000000037847, -0.6023750765598952 
3.9000000000038058, -0.6023719945024777 
3.910000000003827, -0.6024115787689894 
3.920000000003848, -0.6024784547434666 
3.930000000003869, -0.6025633174339267 
3.94000000000389, -0.6026619608142046 
3.9500000000039113, -0.602774110620162 
3.9600000000039324, -0.6029013129526057 
3.9700000000039535, -0.6030435101283349 
3.9800000000039746, -0.6031950326488758 
3.9900000000039957, -0.6033419641583541 
4.000000000004016, -0.6034629953220372 
4.010000000003993, -0.6035342026052535 
4.02000000000397, -0.6035355454515352 
4.030000000003946, -0.6034555820888011 
4.040000000003923, -0.6032923340391662 
4.0500000000039, -0.6030509691600259 
4.0600000000038765, -0.6027405433249232 
4.070000000003853, -0.6023717516329028 
4.08000000000383, -0.6019566034241695 
4.090000000003807, -0.6015102411866444 
4.100000000003783, -0.6010549845017661 
4.11000000000376, -0.6006267473855859 
4.120000000003737, -0.6002837139688674 
4.130000000003713, -0.6001158501119083 
4.14000000000369, -0.6002505471655639 
4.150000000003667, -0.600844026917871 
4.1600000000036434, -0.6020431586386803 
4.17000000000362, -0.6039097373849545 
4.180000000003597, -0.6063356741405921 
4.1900000000035735, -0.6090279880006977 
4.20000000000355, -0.6116228997071855 
4.210000000003527, -0.6138560079926361 
4.220000000003504, -0.6156382191181181 
4.23000000000348, -0.6170045696576675 
4.240000000003457, -0.6180304658121101 
4.250000000003434, -0.6187855726182646 
4.26000000000341, -0.6193236080253378 
4.270000000003387, -0.6196850149376412 
4.280000000003364, -0.6199002055630354 
4.2900000000033405, -0.6199909913357734 
4.300000000003317, -0.6199708601638918 
4.310000000003294, -0.6198448085312659 
4.320000000003271, -0.6196091263292802 
4.330000000003247, -0.6192515856943908 
4.340000000003224, -0.6187528927436566 
4.350000000003201, -0.6180907188813438 
4.360000000003177, -0.6172474101594578 
4.370000000003154, -0.6162205667726609 
4.380000000003131, -0.6150321604335811 
4.390000000003107, -0.6137297307135745 
4.400000000003084, -0.6123766153827955 
4.410000000003061, -0.6110358848046638 
4.4200000000030375, -0.6097570002392182 
4.430000000003014, -0.6085708810612868 
4.440000000002991, -0.607492610434645 
4.450000000002968, -0.6065275728708148 
4.460000000002944, -0.6056773544875005 
4.470000000002921, -0.6049437893656103 
4.480000000002898, -0.6043311046310569 
4.490000000002874, -0.6038467371636034 
4.500000000002851, -0.6035014115350176 
4.510000000002828, -0.6033088930210277 
4.520000000002804, -0.6032856642196401 
4.530000000002781, -0.6034506408524247 
4.540000000002758, -0.6038248832154799 
4.5500000000027345, -0.6044310056631076 
4.560000000002711, -0.6052915977922007 
4.570000000002688, -0.606425496551769 
4.580000000002665, -0.6078404687165746 
4.590000000002641, -0.6095215067632007 
4.600000000002618, -0.6114166493124165 
4.610000000002595, -0.6134273666713459 
4.620000000002571, -0.6154147917115624 
4.630000000002548, -0.6172285648472655 
4.640000000002525, -0.6187484957809597 
4.6500000000025015, -0.6199147691605823 
4.660000000002478, -0.6207295406438289 
4.670000000002455, -0.6212353746247206 
4.6800000000024315, -0.621488646879659 
4.690000000002408, -0.6215406720145921 
4.700000000002385, -0.621428628505072 
4.710000000002362, -0.6211727144759118 
4.720000000002338, -0.6207755060611404 
4.730000000002315, -0.6202208508436625 
4.740000000002292, -0.6194708691996778 
4.750000000002268, -0.6184605488586488 
4.760000000002245, -0.6170907845662585 
4.770000000002222, -0.6152240484733226 
4.7800000000021985, -0.6126937519935545 
4.790000000002175, -0.6093463455101608 
4.800000000002152, -0.6051291882177628 
4.810000000002129, -0.6001940272953872 
4.820000000002105, -0.5949261613748551 
4.830000000002082, -0.5898312184687563 
4.840000000002059, -0.5853436242241289 
4.850000000002035, -0.5816985907587523 
4.860000000002012, -0.5789282958088416 
4.870000000001989, -0.576933320912816 
4.880000000001965, -0.5755603342940405 
4.890000000001942, -0.5746536345648938 
4.900000000001919, -0.5740795647049707 
4.9100000000018955, -0.5737334272000957 
4.920000000001872, -0.5735377492780749 
