t, s[1].omega / s[0].omega 
0, -0.509997753826395 
0.009999999999999995, -0.5097846940447137 
0.019999999999999934, -0.5095890780895533 
0.029999999999999874, -0.5093968441128174 
0.04000000000000012, -0.5091906263021055 
0.050000000000000405, -0.5089553505926341 
0.06000000000000069, -0.5086816267778215 
0.07000000000000098, -0.5083662709610237 
0.08000000000000126, -0.5080110202529498 
0.09000000000000155, -0.5076210268317751 
0.10000000000000184, -0.5072042739529234 
0.11000000000000212, -0.5067724433746279 
0.12000000000000241, -0.5063434189402225 
0.130000000000002, -0.5059454434916829 
0.1400000000000009, -0.5056225277159202 
0.1499999999999998, -0.505439323044448 
0.1599999999999987, -0.5054803295361707 
0.1699999999999976, -0.5058327290995726 
0.1799999999999965, -0.5065388417140675 
0.1899999999999954, -0.5075196882080022 
0.1999999999999943, -0.5085248937195148 
0.2099999999999932, -0.5092136781789269 
0.2199999999999921, -0.5093756104754432 
0.229999999999991, -0.5090817460149597 
0.2399999999999899, -0.5085891208963443 
0.2499999999999888, -0.5081330193324815 
0.2599999999999877, -0.5078227020390818 
0.2699999999999866, -0.5076623841100856 
0.2799999999999855, -0.507609489791124 
0.2899999999999844, -0.5076151666357727 
0.2999999999999833, -0.5076406492868804 
0.3099999999999822, -0.5076596208493275 
0.3199999999999811, -0.5076553568082527 
0.32999999999998, -0.5076170722281502 
0.3399999999999789, -0.5075371196782759 
0.3499999999999778, -0.5074095203777652 
0.35999999999997667, -0.5072299545255359 
0.36999999999997557, -0.5069971382603213 
0.37999999999997447, -0.5067150545496555 
0.38999999999997337, -0.5063947344838168 
0.39999999999997227, -0.5060537877671545 
0.40999999999997117, -0.505712606002991 
0.41999999999997006, -0.5053882225285706 
0.42999999999996896, -0.5050887209993729 
0.43999999999996786, -0.5048110991686207 
0.44999999999996676, -0.5045435405101346 
0.45999999999996566, -0.5042706127657114 
0.46999999999996456, -0.5039786167101539 
0.47999999999996346, -0.503658854764072 
0.48999999999996235, -0.5033083316883167 
0.49999999999996125, -0.5029289056704539 
0.5099999999999602, -0.5025263275061949 
0.519999999999959, -0.5021102166467817 
0.529999999999958, -0.501695513848274 
0.5399999999999568, -0.5013056676038853 
0.5499999999999557, -0.5009776434322589 
0.5599999999999546, -0.500768357855208 
0.5699999999999535, -0.5007605713428176 
0.5799999999999524, -0.5010625331407375 
0.5899999999999513, -0.5017893474771471 
0.5999999999999502, -0.5030097991686271 
0.6099999999999491, -0.5046579218872609 
0.619999999999948, -0.5064661995688758 
0.6299999999999469, -0.508035610768643 
0.6399999999999458, -0.5090665543527767 
0.6499999999999447, -0.5095427300137416 
0.6599999999999436, -0.5096683160031686 
0.6699999999999425, -0.509669292400582 
0.6799999999999414, -0.5096757594651323 
0.6899999999999403, -0.5097240900689516 
0.6999999999999392, -0.5098025631617751 
0.7099999999999381, -0.5098867713710064 
0.719999999999937, -0.509955395540226 
0.7299999999999359, -0.5099937476395234 
0.7399999999999348, -0.509992412312409 
0.7499999999999337, -0.5099448700011608 
0.7599999999999326, -0.5098456562820648 
0.7699999999999315, -0.5096896196611855 
0.7799999999999304, -0.5094725280945427 
0.7899999999999293, -0.5091930435082282 
0.7999999999999282, -0.508855517627159 
0.8099999999999271, -0.5084721513232477 
0.819999999999926, -0.5080625232764076 
0.8299999999999249, -0.5076494091312378 
0.8399999999999238, -0.5072521664787935 
0.8499999999999227, -0.506880923772114 
0.8599999999999216, -0.5065345348213287 
0.8699999999999205, -0.5062029967895988 
0.8799999999999194, -0.5058726044435471 
0.8899999999999183, -0.5055310911776668 
0.8999999999999172, -0.5051707622725867 
0.9099999999999161, -0.5047893158590637 
0.919999999999915, -0.5043893652178689 
0.9299999999999139, -0.503977991227605 
0.9399999999999128, -0.5035672968198011 
0.9499999999999117, -0.5031765083043125 
0.9599999999999106, -0.5028359393691564 
0.9699999999999095, -0.5025929665160562 
0.9799999999999084, -0.5025196197481524 
0.9899999999999073, -0.502719677810903 
0.9999999999999062, -0.5033291000106654 
1.0099999999999052, -0.504496675346981 
1.019999999999904, -0.5063264465234087 
1.029999999999903, -0.5087777780176328 
1.039999999999902, -0.5115777263376551 
1.0499999999999008, -0.5142683868324445 
1.0599999999998997, -0.5164373967859023 
1.0699999999998986, -0.5179421017898387 
1.0799999999998975, -0.518901676203231 
1.0899999999998964, -0.5195208533325864 
1.0999999999998953, -0.5199550733953606 
1.1099999999998942, -0.5202840330559384 
1.119999999999893, -0.5205380456820793 
1.129999999999892, -0.5207258620135397 
1.1399999999998909, -0.5208496231740425 
1.1499999999998898, -0.5209100840275539 
1.1599999999998887, -0.5209073109520206 
1.1699999999998876, -0.520840002775566 
1.1799999999998865, -0.5207048908362688 
1.1899999999998854, -0.520496926012286 
1.1999999999998843, -0.5202107291950719 
1.2099999999998832, -0.5198435276673515 
1.219999999999882, -0.5193990676667564 
1.229999999999881, -0.5188907766390978 
1.2399999999998799, -0.5183416914205715 
1.2499999999998788, -0.5177797972479949 
1.2599999999998777, -0.5172303765660724 
1.2699999999998766, -0.5167092830720565 
1.2799999999998755, -0.5162204672840527 
1.2899999999998744, -0.5157582735267162 
1.2999999999998733, -0.5153124819051501 
1.3099999999998722, -0.5148733459065987 
1.319999999999871, -0.5144348596062155 
1.32999999999987, -0.5139960810792736 
1.3399999999998689, -0.5135614361348889 
1.3499999999998678, -0.51314115901018 
1.3599999999998666, -0.5127527398646639 
1.3699999999998655, -0.5124239152919949 
1.3799999999998644, -0.5121975399495751 
1.3899999999998633, -0.5121384777285038 
1.3999999999998622, -0.5123420559798171 
1.4099999999998611, -0.5129419237002849 
1.41999999999986, -0.5141112634681403 
1.429999999999859, -0.5160445325678163 
1.4399999999998578, -0.518900487063314 
1.4499999999998567, -0.5226959004580781 
1.4599999999998556, -0.5271884376570404 
1.4699999999998545, -0.5318639057668657 
1.4799999999998534, -0.5361244409928522 
1.4899999999998523, -0.5395689630023717 
1.4999999999998512, -0.5421157846885806 
1.5099999999998501, -0.5439030218216236 
1.519999999999849, -0.5451286984814759 
1.529999999999848, -0.5459599951516397 
1.5399999999998468, -0.5465136156025442 
1.5499999999998457, -0.5468655055321472 
1.5599999999998446, -0.5470640098247841 
1.5699999999998435, -0.5471390516374781 
1.5799999999998424, -0.5471074047503502 
1.5899999999998413, -0.5469755547886499 
1.5999999999998402, -0.5467414687277604 
1.6099999999998391, -0.5463964194887642 
1.619999999999838, -0.5459280422647024 
1.629999999999837, -0.5453256265379034 
1.6399999999998358, -0.5445875526463679 
1.6499999999998347, -0.5437284592243287 
1.6599999999998336, -0.5427816387060947 
1.6699999999998325, -0.5417933438226717 
1.6799999999998314, -0.5408108731165863 
1.6899999999998303, -0.5398709588910828 
1.6999999999998292, -0.5389942441436438 
1.709999999999828, -0.538186809917624 
1.719999999999827, -0.5374457972605873 
1.729999999999826, -0.5367655369772154 
1.7399999999998248, -0.5361421189215395 
1.7499999999998237, -0.5355760921836894 
1.7599999999998226, -0.5350739828614509 
1.7699999999998215, -0.5346494988469436 
1.7799999999998204, -0.5343250504103993 
1.7899999999998193, -0.5341339073461193 
1.7999999999998182, -0.5341230704284841 
1.809999999999817, -0.5343566946318853 
1.819999999999816, -0.5349194725279447 
1.8299999999998149, -0.5359184595511548 
1.8399999999998138, -0.5374800008469423 
1.8499999999998127, -0.5397355462279606 
1.8599999999998116, -0.5427875370269366 
1.8699999999998105, -0.5466495528955593 
1.8799999999998094, -0.5511735782479327 
1.8899999999998083, -0.5560134860167314 
1.8999999999998072, -0.5606907790072291 
1.909999999999806, -0.5647634661908583 
1.919999999999805, -0.5679855022592354 
1.9299999999998039, -0.5703398539654718 
1.9399999999998028, -0.571956343340812 
1.9499999999998017, -0.5730088635714746 
1.9599999999998006, -0.5736527235240809 
1.9699999999997995, -0.5740037939637713 
1.9799999999997984, -0.5741394684752027 
1.9899999999997973, -0.5741059634062545 
1.9999999999997962, -0.5739250194095391 
2.0099999999998173, -0.5735981294041522 
2.0199999999998384, -0.5731086111441147 
2.0299999999998595, -0.5724230094536488 
2.0399999999998806, -0.5714945553545023 
2.0499999999999017, -0.5702726408532324 
2.059999999999923, -0.5687215697399453 
2.069999999999944, -0.5668459777133811 
2.079999999999965, -0.5647098459150245 
2.089999999999986, -0.562431788193883 
2.100000000000007, -0.5601532466526407 
2.1100000000000283, -0.5579983458443601 
2.1200000000000494, -0.5560489185236246 
2.1300000000000705, -0.5543421987790752 
2.1400000000000916, -0.5528828270046151 
2.1500000000001127, -0.5516577996311608 
2.160000000000134, -0.5506479813904439 
2.170000000000155, -0.5498348753030862 
2.180000000000176, -0.5492037578213965 
2.190000000000197, -0.5487447127704016 
2.2000000000002182, -0.5484527330829658 
2.2100000000002393, -0.548327587499523 
2.2200000000002604, -0.5483737897597507 
2.2300000000002815, -0.5486007548444644 
2.2400000000003026, -0.5490230017285033 
2.2500000000003237, -0.5496599725844911 
2.260000000000345, -0.550534610661122 
2.270000000000366, -0.5516692970954364 
2.280000000000387, -0.5530774072619904 
2.290000000000408, -0.554749505104553 
2.3000000000004293, -0.5566364800193481 
2.3100000000004504, -0.55863814795117 
2.3200000000004715, -0.5606106377885887 
2.3300000000004926, -0.5623995009189792 
2.3400000000005137, -0.5638852905070157 
2.3500000000005348, -0.5650135020876181 
2.360000000000556, -0.5657924323146174 
2.370000000000577, -0.5662683230858258 
2.380000000000598, -0.5664979712468489 
2.390000000000619, -0.5665306952523743 
2.4000000000006403, -0.5664002237411753 
2.4100000000006614, -0.5661222009349622 
2.4200000000006825, -0.5656931904363427 
2.4300000000007036, -0.5650886391534138 
2.4400000000007247, -0.5642586405280029 
2.450000000000746, -0.5631217736007474 
2.460000000000767, -0.5615600870741732 
2.470000000000788, -0.5594239638973142 
2.480000000000809, -0.5565628386289881 
2.49000000000083, -0.5528954944626123 
2.5000000000008513, -0.5485021457114774 
2.5100000000008724, -0.543668486239955 
2.5200000000008935, -0.5388143006304033 
2.5300000000009146, -0.534339261192877 
2.5400000000009357, -0.5304999775964097 
2.550000000000957, -0.5273850180109192 
2.560000000000978, -0.5249610269114768 
2.570000000000999, -0.5231338072759751 
2.58000000000102, -0.5217929611035866 
2.5900000000010412, -0.5208355967529688 
2.6000000000010624, -0.5201754866608612 
2.6100000000010835, -0.5197445770191118 
2.6200000000011046, -0.5194913163038787 
2.6300000000011257, -0.5193781006539699 
2.6400000000011468, -0.5193788385925279 
2.650000000001168, -0.5194769906917535 
2.660000000001189, -0.519664123988341 
2.67000000000121, -0.5199388000673666 
2.680000000001231, -0.52030534956174 
2.6900000000012523, -0.5207717600694094 
2.7000000000012734, -0.5213457067715416 
2.7100000000012945, -0.5220281105185752 
2.7200000000013156, -0.5228050029730966 
2.7300000000013367, -0.5236408902585498 
2.740000000001358, -0.5244787750194229 
2.750000000001379, -0.5252504865211154 
2.7600000000014, -0.525894480921427 
2.770000000001421, -0.5263715456635458 
2.780000000001442, -0.526669706576016 
2.7900000000014633, -0.5267979095522389 
2.8000000000014844, -0.5267747710031802 
2.8100000000015055, -0.5266185560424292 
2.8200000000015266, -0.5263406571798992 
2.8300000000015477, -0.5259417728707139 
2.840000000001569, -0.5254089400319459 
2.85000000000159, -0.5247116447659811 
2.860000000001611, -0.5237955643309228 
2.870000000001632, -0.5225731178352538 
2.8800000000016532, -0.5209121997753675 
2.8900000000016743, -0.5186310928973403 
2.9000000000016954, -0.5155207765295226 
2.9100000000017165, -0.5114255596471461 
2.9200000000017377, -0.5063821781506672 
2.9300000000017588, -0.5007245483685556 
2.94000000000178, -0.49501518855295046 
2.950000000001801, -0.4898117437868567 
2.960000000001822, -0.4854604035910465 
2.970000000001843, -0.4820535859747589 
2.9800000000018643, -0.47950995134468244 
2.9900000000018854, -0.4776742654135992 
3.0000000000019065, -0.47638390746917014 
3.0100000000019276, -0.47549911318162685 
3.0200000000019487, -0.47491090363967425 
3.03000000000197, -0.474538972003735 
3.040000000001991, -0.47432645005974344 
3.050000000002012, -0.4742346216857509 
3.060000000002033, -0.474238650848448 
3.070000000002054, -0.47432452496360156 
3.0800000000020753, -0.47448705989304624 
3.0900000000020964, -0.47472859791924293 
3.1000000000021175, -0.4750577672387769 
3.1100000000021386, -0.47548734552118477 
3.1200000000021597, -0.47603008726270934 
3.130000000002181, -0.4766917726570842 
3.140000000002202, -0.477462214177845 
3.150000000002223, -0.47830755917060375 
3.160000000002244, -0.4791695349074878 
3.1700000000022652, -0.479975980068126 
3.1800000000022863, -0.4806600540188238 
3.1900000000023074, -0.4811777943254679 
3.2000000000023285, -0.48151417379985295 
3.2100000000023496, -0.4816768085182573 
3.2200000000023707, -0.4816840533737995 
3.230000000002392, -0.4815542274278532 
3.240000000002413, -0.48129848597175906 
3.250000000002434, -0.48091649023058763 
3.260000000002455, -0.48039289998249685 
3.2700000000024763, -0.4796928855399162 
3.2800000000024974, -0.4787555371790824 
3.2900000000025185, -0.47748556305208967 
3.3000000000025396, -0.47574756272659896 
3.3100000000025607, -0.47337522016267747 
3.3200000000025818, -0.4702165499126368 
3.330000000002603, -0.4662268925927832 
3.340000000002624, -0.4615692367491119 
3.350000000002645, -0.45662304204684573 
3.360000000002666, -0.4518510151629528 
3.3700000000026873, -0.4476185093688782 
3.3800000000027084, -0.44410196429124305 
3.3900000000027295, -0.4413118585363929 
3.4000000000027506, -0.43916475745368444 
3.4100000000027717, -0.43754601276365906 
3.420000000002793, -0.4363454871371563 
3.430000000002814, -0.43547190803650804 
3.440000000002835, -0.43485562523668647 
3.450000000002856, -0.434446640137996 
3.460000000002877, -0.4342114784682682 
3.4700000000028983, -0.4341304200042842 
3.4800000000029194, -0.43419557557644894 
3.4900000000029405, -0.4344098369301805 
3.5000000000029616, -0.4347864588925452 
3.5100000000029827, -0.43534872544444647 
3.520000000003004, -0.4361286423180034 
3.530000000003025, -0.43716285111423775 
3.540000000003046, -0.4384832655542141 
3.550000000003067, -0.4401003437149087 
3.5600000000030882, -0.4419805335167286 
3.5700000000031094, -0.44402776406129585 
3.5800000000031305, -0.4460871066363298 
3.5900000000031516, -0.4479825719738949 
3.6000000000031727, -0.44957386457404197 
3.6100000000031938, -0.450794967074401 
3.620000000003215, -0.45165245989236924 
3.630000000003236, -0.4521960545175068 
3.640000000003257, -0.45248701248322004 
3.650000000003278, -0.4525783758097832 
3.6600000000032993, -0.4525068677289118 
3.6700000000033204, -0.45229117661798524 
3.6800000000033415, -0.45193223629874246 
3.6900000000033626, -0.45141343576056137 
3.7000000000033837, -0.45070076509353896 
3.710000000003405, -0.44974491665007976 
3.720000000003426, -0.4484894797576254 
3.730000000003447, -0.44688998180528305 
3.740000000003468, -0.44494340624023276 
3.750000000003489, -0.44271476561095213 
3.7600000000035103, -0.4403372282384238 
3.7700000000035314, -0.43797539217693926 
3.7800000000035525, -0.4357728568871823 
3.7900000000035736, -0.4338179468868127 
3.8000000000035947, -0.43214088114459803 
3.810000000003616, -0.43073115143482205 
3.820000000003637, -0.4295585178710475 
3.830000000003658, -0.4285886031555555 
3.840000000003679, -0.4277916714990567 
3.8500000000037002, -0.42714651592279135 
3.8600000000037213, -0.4266417889020124 
3.8700000000037424, -0.4262764903820063 
3.8800000000037635, -0.42606064211582984 
3.8900000000037847, -0.42601670808202635 
3.9000000000038058, -0.4261820363299753 
3.910000000003827, -0.42661233645934243 
3.920000000003848, -0.4273857024822433 
3.930000000003869, -0.4286055100867975 
3.94000000000389, -0.43039804189467895 
3.9500000000039113, -0.43289656932291604 
3.9600000000039324, -0.4361997405352439 
3.9700000000039535, -0.4402969725082036 
3.9800000000039746, -0.4449828010238851 
3.9900000000039957, -0.44983358198781404 
4.000000000004016, -0.45432500820944666 
4.010000000003993, -0.45804857776629515 
4.02000000000397, -0.4608543908493636 
4.030000000003946, -0.4628206323467454 
4.040000000003923, -0.46412915389938625 
4.0500000000039, -0.4649638860099371 
4.0600000000038765, -0.46546805372003686 
4.070000000003853, -0.4657397411132279 
4.08000000000383, -0.4658409522913202 
4.090000000003807, -0.46580766040578314 
4.100000000003783, -0.4656572690381736 
4.11000000000376, -0.4653936287164405 
4.120000000003737, -0.4650109152950471 
4.130000000003713, -0.4644980090753813 
4.14000000000369, -0.46384484989269226 
4.150000000003667, -0.46305102981568946 
4.1600000000036434, -0.4621341964002087 
4.17000000000362, -0.4611331523529222 
4.180000000003597, -0.4601014889765461 
4.1900000000035735, -0.459093564819382 
4.20000000000355, -0.4581504960658199 
4.210000000003527, -0.4572932724910948 
4.220000000003504, -0.45652436245748734 
4.23000000000348, -0.4558343905276473 
4.240000000003457, -0.4552096110186269 
4.250000000003434, -0.45463755560036717 
4.26000000000341, -0.45411024933735167 
4.270000000003387, -0.4536256882587155 
4.280000000003364, -0.4531886976999542 
4.2900000000033405, -0.45281215832734195 
4.300000000003317, -0.4525192980749207 
4.310000000003294, -0.45234752810991863 
4.320000000003271, -0.4523541216658913 
4.330000000003247, -0.4526236225796535 
4.340000000003224, -0.4532756296655819 
4.350000000003201, -0.45446846193080626 
4.360000000003177, -0.4563879012914337 
4.370000000003154, -0.4592017942849112 
4.380000000003131, -0.4629618852908335 
4.390000000003107, -0.46747227843157696 
4.400000000003084, -0.4722319807494119 
4.410000000003061, -0.4765921209450072 
4.4200000000030375, -0.48007647326052805 
4.430000000003014, -0.4825744136469539 
4.440000000002991, -0.4842530579679156 
4.450000000002968, -0.48535702874581377 
4.460000000002944, -0.48608567043709944 
4.470000000002921, -0.4865683223340576 
4.480000000002898, -0.48688149393604807 
4.490000000002874, -0.48706960719851367 
4.500000000002851, -0.48715858042107085 
4.510000000002828, -0.4871630635208525 
4.520000000002804, -0.4870900477098063 
4.530000000002781, -0.48694089443125543 
4.540000000002758, -0.48671311455614985 
4.5500000000027345, -0.48640282857929573 
4.560000000002711, -0.486008417224787 
4.570000000002688, -0.48553498535578754 
4.580000000002665, -0.48499788914867487 
4.590000000002641, -0.48442271231907885 
4.600000000002618, -0.48384025534273 
4.610000000002595, -0.48327825897678967 
4.620000000002571, -0.482754057141356 
4.630000000002548, -0.4822717250908929 
4.640000000002525, -0.4818243424403633 
4.6500000000025015, -0.48139932757406123 
4.660000000002478, -0.48098396003536487 
4.670000000002455, -0.4805690854354478 
4.6800000000024315, -0.4801506054100617 
4.690000000002408, -0.47972959443082114 
4.700000000002385, -0.47931225273968964 
4.710000000002362, -0.4789106551462323 
4.720000000002338, -0.47854489023935887 
4.730000000002315, -0.478246955292716 
4.740000000002292, -0.47806657705136235 
4.750000000002268, -0.4780785584161853 
4.760000000002245, -0.47838951721763034 
4.770000000002222, -0.47913776330505947 
4.7800000000021985, -0.4804728586289187 
4.790000000002175, -0.482495509439978 
4.800000000002152, -0.4851525643907215 
4.810000000002129, -0.4881437925041731 
4.820000000002105, -0.49097267278857615 
4.830000000002082, -0.4931973318574084 
4.840000000002059, -0.49467630820599673 
4.850000000002035, -0.4955575420758643 
4.860000000002012, -0.4960799805621191 
4.870000000001989, -0.4964227286766044 
4.880000000001965, -0.4966764491670469 
4.890000000001942, -0.4968740506941612 
4.900000000001919, -0.49702292261298603 
