t, s[1].omega / s[0].omega 
0, -1.7399970231962125 
0.009999999999999995, -1.739571379700378 
0.019999999999999934, -1.7388913764441376 
0.029999999999999874, -1.737961045798476 
0.04000000000000012, -1.7368125795440181 
0.050000000000000405, -1.7355470826289867 
0.06000000000000069, -1.7343673214064783 
0.07000000000000098, -1.7335182685720647 
0.08000000000000126, -1.733101309972883 
0.09000000000000155, -1.7329785603149446 
0.10000000000000184, -1.732923687587856 
0.11000000000000212, -1.7327832715721943 
0.12000000000000241, -1.7324853107358542 
0.130000000000002, -1.7319845853575166 
0.1400000000000009, -1.7312336591337842 
0.1499999999999998, -1.7302209340703623 
0.1599999999999987, -1.7291244434982893 
0.1699999999999976, -1.728506122268426 
0.1799999999999965, -1.729068652669044 
0.1899999999999954, -1.7308360981737558 
0.1999999999999943, -1.7330241381892375 
0.2099999999999932, -1.7348776963011538 
0.2199999999999921, -1.7361180763035062 
0.229999999999991, -1.7367842833474962 
0.2399999999999899, -1.7370080719505516 
0.2499999999999888, -1.736911035335466 
0.2599999999999877, -1.736583137718809 
0.2699999999999866, -1.7360936535692542 
0.2799999999999855, -1.735510413512006 
0.2899999999999844, -1.7349120389294985 
0.2999999999999833, -1.7343825169504665 
0.3099999999999822, -1.7339883101875055 
0.3199999999999811, -1.7337449256127542 
0.32999999999998, -1.7335981447885271 
0.3399999999999789, -1.7334517868058392 
0.3499999999999778, -1.7332123256274077 
0.35999999999997667, -1.7327976286708313 
0.36999999999997557, -1.7321108169979293 
0.37999999999997447, -1.7310081689212065 
0.38999999999997337, -1.729297775419403 
0.39999999999997227, -1.7268561437480812 
0.40999999999997117, -1.7239914855670864 
0.41999999999997006, -1.7218102083824511 
0.42999999999996896, -1.7215165635994214 
0.43999999999996786, -1.722906112430249 
0.44999999999996676, -1.7246980523509645 
0.45999999999996566, -1.7260310932422105 
0.46999999999996456, -1.7267548695412707 
0.47999999999996346, -1.7270057325317687 
0.48999999999996235, -1.726937078886256 
0.49999999999996125, -1.7266571879987054 
0.5099999999999602, -1.7262474626157576 
0.519999999999959, -1.7257977654246173 
0.529999999999958, -1.7254212202533221 
0.5399999999999568, -1.7252145622280923 
0.5499999999999557, -1.725194236428895 
0.5599999999999546, -1.7252921513481163 
0.5699999999999535, -1.7254083041535562 
0.5799999999999524, -1.7254528746480777 
0.5899999999999513, -1.7253575929334695 
0.5999999999999502, -1.7250677080214736 
0.6099999999999491, -1.7245263478249637 
0.619999999999948, -1.723662011069082 
0.6299999999999469, -1.7223898432224185 
0.6399999999999458, -1.720644346473912 
0.6499999999999447, -1.718472885132223 
0.6599999999999436, -1.7161855354071727 
0.6699999999999425, -1.7143749842308569 
0.6799999999999414, -1.713509324204774 
0.6899999999999403, -1.7134549048811354 
0.6999999999999392, -1.7137019409689962 
0.7099999999999381, -1.7138791838770504 
0.719999999999937, -1.7138627938695314 
0.7299999999999359, -1.7136461003526056 
0.7399999999999348, -1.713245534332278 
0.7499999999999337, -1.712686033202803 
0.7599999999999326, -1.7120488295002443 
0.7699999999999315, -1.7115501091557366 
0.7799999999999304, -1.711514828853868 
0.7899999999999293, -1.7121121011825753 
0.7999999999999282, -1.7131432265642537 
0.8099999999999271, -1.714231226018536 
0.819999999999926, -1.715105294887934 
0.8299999999999249, -1.7156621752785983 
0.8399999999999238, -1.715897926873597 
0.8499999999999227, -1.7158437126309753 
0.8599999999999216, -1.7155345291290398 
0.8699999999999205, -1.7150009546862393 
0.8799999999999194, -1.7142749073992498 
0.8899999999999183, -1.7134053265182523 
0.8999999999999172, -1.7124787647592452 
0.9099999999999161, -1.7116288779620692 
0.919999999999915, -1.7109985946403008 
0.9299999999999139, -1.710644030934955 
0.9399999999999128, -1.7104812028743974 
0.9499999999999117, -1.7103602858452724 
0.9599999999999106, -1.710160816777832 
0.9699999999999095, -1.7098050784241217 
0.9799999999999084, -1.7092219047059083 
0.9899999999999073, -1.7083168623696015 
0.9999999999999062, -1.7069921734299327 
1.0099999999999052, -1.705297177052096 
1.019999999999904, -1.7037525866666954 
1.029999999999903, -1.703403033499652 
1.039999999999902, -1.7048381448389378 
1.0499999999999008, -1.7073177134992932 
1.0599999999998997, -1.7096594285750792 
1.0699999999998986, -1.711288086989016 
1.0799999999998975, -1.7121960772557059 
1.0899999999998964, -1.7125654154615702 
1.0999999999998953, -1.712569467796112 
1.1099999999998942, -1.7123300809813506 
1.119999999999893, -1.711933100163547 
1.129999999999892, -1.7114558972938354 
1.1399999999998909, -1.7109835095096844 
1.1499999999998898, -1.7105963308593854 
1.1599999999998887, -1.7103390833689314 
1.1699999999998876, -1.7102037919991155 
1.1799999999998865, -1.7101363788788624 
1.1899999999998854, -1.7100579369048916 
1.1999999999998843, -1.7098890641848428 
1.2099999999998832, -1.7095573630631087 
1.219999999999882, -1.7089828934806324 
1.229999999999881, -1.7080554939184953 
1.2399999999998799, -1.7066232614903676 
1.2499999999998788, -1.7045270766133473 
1.2599999999998777, -1.7017510647777372 
1.2699999999998766, -1.6987186960778282 
1.2799999999998755, -1.696399083528935 
1.2899999999998744, -1.6955843136387752 
1.2999999999998733, -1.6960026584980916 
1.3099999999998722, -1.696779909158959 
1.319999999999871, -1.6973554115939802 
1.32999999999987, -1.6976006326018442 
1.3399999999998689, -1.69756341482478 
1.3499999999998678, -1.6973121920400882 
1.3599999999998666, -1.6969030687301436 
1.3699999999998655, -1.6964056604447015 
1.3799999999998644, -1.6959479926491585 
1.3899999999998633, -1.6957161643277305 
1.3999999999998622, -1.69584090863041 
1.4099999999998611, -1.6962716869423928 
1.41999999999986, -1.6968218808249833 
1.429999999999859, -1.6973105979482928 
1.4399999999998578, -1.6976297168317127 
1.4499999999998567, -1.6977317656371422 
1.4599999999998556, -1.6975995505384092 
1.4699999999998545, -1.697224867912531 
1.4799999999998534, -1.6965996974129554 
1.4899999999998523, -1.6957191007745849 
1.4999999999998512, -1.6945978587054786 
1.5099999999998501, -1.693304434307813 
1.519999999999849, -1.6920018836094866 
1.529999999999848, -1.690937064834528 
1.5399999999998468, -1.6903006505909957 
1.5499999999998457, -1.6900592965870533 
1.5599999999998446, -1.6900021451844711 
1.5699999999998435, -1.6899301379276548 
1.5799999999998424, -1.6897363280843063 
1.5899999999998413, -1.6893692747899647 
1.5999999999998402, -1.6887847550623458 
1.6099999999998391, -1.6879366832879357 
1.619999999999838, -1.686842857375294 
1.629999999999837, -1.6857643709021204 
1.6399999999998358, -1.6853460056435285 
1.6499999999998347, -1.6862170600407524 
1.6599999999998336, -1.688211111472738 
1.6699999999998325, -1.6904797975355508 
1.6799999999998314, -1.692331009184829 
1.6899999999998303, -1.693546641381823 
1.6999999999998292, -1.6941911615863383 
1.709999999999828, -1.6944031970537323 
1.719999999999827, -1.6943054835535076 
1.729999999999826, -1.6939883264316062 
1.7399999999998248, -1.6935218951955933 
1.7499999999998237, -1.6929750399405101 
1.7599999999998226, -1.6924253090352337 
1.7699999999998215, -1.6919499648419571 
1.7799999999998204, -1.6916030077175008 
1.7899999999998193, -1.6913911956427838 
1.7999999999998182, -1.6912644723416375 
1.809999999999817, -1.6911376141791208 
1.819999999999816, -1.6909247216120395 
1.8299999999998149, -1.6905485367854614 
1.8399999999998138, -1.6899208405659496 
1.8499999999998127, -1.6889143100263506 
1.8599999999998116, -1.6873505204803347 
1.8699999999998105, -1.685056080595849 
1.8799999999998094, -1.6820876080998601 
1.8899999999998083, -1.6791114298280543 
1.8999999999998072, -1.6773368388987258 
1.909999999999806, -1.6773765890160877 
1.919999999999805, -1.678521085208232 
1.9299999999998039, -1.6797298504097853 
1.9399999999998028, -1.680523762263504 
1.9499999999998017, -1.680877336092155 
1.9599999999998006, -1.680898682542375 
1.9699999999997995, -1.6806873381792513 
1.9799999999997984, -1.680316057869676 
1.9899999999997973, -1.679858696321893 
1.9999999999997962, -1.679425727391002 
2.0099999999998173, -1.679160383896424 
2.0199999999998384, -1.6791588821046166 
2.0299999999998595, -1.6793902302820651 
2.0399999999998806, -1.6797264134227081 
2.0499999999999017, -1.6800326846625768 
2.059999999999923, -1.6802152160948087 
2.069999999999944, -1.6802195334301175 
2.079999999999965, -1.680012689650234 
2.089999999999986, -1.6795675514629849 
2.100000000000007, -1.6788552931392189 
2.1100000000000283, -1.677848999106791 
2.1200000000000494, -1.6765436467358583 
2.1300000000000705, -1.6750003349899063 
2.1400000000000916, -1.6734063132190211 
2.1500000000001127, -1.6720764809190989 
2.160000000000134, -1.6712805764415166 
2.170000000000155, -1.671006120442129 
2.180000000000176, -1.67099500658555 
2.190000000000197, -1.6709941562098414 
2.2000000000002182, -1.6708740637474861 
2.2100000000002393, -1.6705872719400716 
2.2200000000002604, -1.6701069298503985 
2.2300000000002815, -1.6694069623544459 
2.2400000000003026, -1.6685042547840105 
2.2500000000003237, -1.6675869306802986 
2.260000000000345, -1.6671401623263393 
2.270000000000366, -1.6677176210213347 
2.280000000000387, -1.6693314311372967 
2.290000000000408, -1.6713590516943913 
2.3000000000004293, -1.6731539010227479 
2.3100000000004504, -1.6744261860031862 
2.3200000000004715, -1.6751663420789147 
2.3300000000004926, -1.6754716634853009 
2.3400000000005137, -1.6754488277053898 
2.3500000000005348, -1.6751834509986487 
2.360000000000556, -1.674742082949327 
2.370000000000577, -1.6741864162434443 
2.380000000000598, -1.673586717015271 
2.390000000000619, -1.6730228024217038 
2.4000000000006403, -1.6725681932818386 
2.4100000000006614, -1.672262314145165 
2.4200000000006825, -1.672084624250558 
2.4300000000007036, -1.671959469039922 
2.4400000000007247, -1.6717944379050373 
2.450000000000746, -1.671508044896428 
2.460000000000767, -1.6710219263721242 
2.470000000000788, -1.6702331819216976 
2.480000000000809, -1.668990049766419 
2.49000000000083, -1.6671044297041544 
2.5000000000008513, -1.6644805047755937 
2.5100000000008724, -1.661446054410283 
2.5200000000008935, -1.6590258022254332 
2.5300000000009146, -1.6583107066967062 
2.5400000000009357, -1.6592100302003714 
2.550000000000957, -1.6606494622786734 
2.560000000000978, -1.6618058961111764 
2.570000000000999, -1.662463719006316 
2.58000000000102, -1.6627008761023934 
2.5900000000010412, -1.662639627063572 
2.6000000000010624, -1.6623724106928077 
2.6100000000010835, -1.6619693736351948 
2.6200000000011046, -1.6615119110980288 
2.6300000000011257, -1.6611194036358825 
2.6400000000011468, -1.6609232691633349 
2.650000000001168, -1.6609816490579221 
2.660000000001189, -1.6612323511919764 
2.67000000000121, -1.6615469613126101 
2.680000000001231, -1.6618069178994976 
2.6900000000012523, -1.6619325542641732 
2.7000000000012734, -1.66187634131734 
2.7100000000012945, -1.661606659366767 
2.7200000000013156, -1.6610949972129891 
2.7300000000013367, -1.6603113874897304 
2.740000000001358, -1.6592312686848216 
2.750000000001379, -1.6578596561288816 
2.7600000000014, -1.6562789422381816 
2.770000000001421, -1.6547029739245223 
2.780000000001442, -1.6534509538126028 
2.7900000000014633, -1.652749902905023 
2.8000000000014844, -1.6525338906584832 
2.8100000000015055, -1.6525349871970458 
2.8200000000015266, -1.6525215576943064 
2.8300000000015477, -1.6523817181143214 
2.840000000001569, -1.6520734499545757 
2.85000000000159, -1.651568857595883 
2.860000000001611, -1.6508399748331413 
2.870000000001632, -1.6499058842685816 
2.8800000000016532, -1.6489657312959132 
2.8900000000016743, -1.648522231309989 
2.9000000000016954, -1.6491390054142516 
2.9100000000017165, -1.6508213357241002 
2.9200000000017377, -1.652928720035445 
2.9300000000017588, -1.6547962193490542 
2.94000000000178, -1.656124549024312 
2.950000000001801, -1.656904454808601 
2.960000000001822, -1.6572383240895145 
2.970000000001843, -1.6572383901554673 
2.9800000000018643, -1.6569945014065783 
2.9900000000018854, -1.6565758001394326 
3.0000000000019065, -1.656045051704412 
3.0100000000019276, -1.6554721647019555 
3.0200000000019487, -1.654934802989255 
3.03000000000197, -1.6545022480646732 
3.040000000001991, -1.6542104821865944 
3.050000000002012, -1.654041312164194 
3.060000000002033, -1.6539258959606316 
3.070000000002054, -1.653776882494504 
3.0800000000020753, -1.6535149250374732 
3.0900000000020964, -1.6530647484704013 
3.1000000000021175, -1.6523312196055744 
3.1100000000021386, -1.651175549116553 
3.1200000000021597, -1.6494173668232062 
3.130000000002181, -1.646921360171562 
3.140000000002202, -1.6438534533720695 
3.150000000002223, -1.640997305602165 
3.160000000002244, -1.6394816943619208 
3.1700000000022652, -1.6396606021025188 
3.1800000000022863, -1.6407477607012857 
3.1900000000023074, -1.641827908230436 
3.2000000000023285, -1.6425169151767016 
3.2100000000023496, -1.642806371765444 
3.2200000000023707, -1.6427923509395623 
3.230000000002392, -1.6425611593466343 
3.240000000002413, -1.642176955944959 
3.250000000002434, -1.6417094680103541 
3.260000000002455, -1.6412706728753954 
3.2700000000024763, -1.6410144703078657 
3.2800000000024974, -1.6410545514187942 
3.2900000000025185, -1.6413683139697166 
3.3000000000025396, -1.6418164693108561 
3.3100000000025607, -1.6422446509295843 
3.3200000000025818, -1.6425459096060813 
3.330000000002603, -1.6426630046871769 
3.340000000002624, -1.6425686237845025 
3.350000000002645, -1.642247647064093 
3.360000000002666, -1.6416879132200772 
3.3700000000026873, -1.640880276575912 
3.3800000000027084, -1.6398293428017616 
3.3900000000027295, -1.6385779679454628 
3.4000000000027506, -1.6372430209418742 
3.4100000000027717, -1.6360315805752599 
3.420000000002793, -1.6351683991734685 
3.430000000002814, -1.6347339527646951 
3.440000000002835, -1.6345977195911494 
3.450000000002856, -1.6345491811423378 
3.460000000002877, -1.6344375175035544 
3.4700000000028983, -1.6341873869374068 
3.4800000000029194, -1.633753126165783 
3.4900000000029405, -1.6330832716082555 
3.5000000000029616, -1.6321240707831888 
3.5100000000029827, -1.6308994015929212 
3.520000000003004, -1.6297034061191855 
3.530000000003025, -1.6292307975796916 
3.540000000003046, -1.6301436271413567 
3.550000000003067, -1.632272003526067 
3.5600000000030882, -1.6347233704069672 
3.5700000000031094, -1.636747421708663 
3.5800000000031305, -1.6380956799169328 
3.5900000000031516, -1.6388338454259102 
3.6000000000031727, -1.6391145535347789 
3.6100000000031938, -1.6390740844886889 
3.620000000003215, -1.6388116534954498 
3.630000000003236, -1.6384016316344714 
3.640000000003257, -1.6379137597594018 
3.650000000003278, -1.6374252191393537 
3.6600000000032993, -1.6370115007896302 
3.6700000000033204, -1.6367211648297055 
3.6800000000033415, -1.6365571797875476 
3.6900000000033626, -1.6364766299072975 
3.7000000000033837, -1.6364073894324054 
3.710000000003405, -1.6362725705740153 
3.720000000003426, -1.6360029071947984 
3.730000000003447, -1.6355285494984717 
3.740000000003468, -1.6347606261565115 
3.750000000003489, -1.6335775715694751 
3.7600000000035103, -1.6318359454356144 
3.7700000000035314, -1.6294442053900795 
3.7800000000035525, -1.6265445669091858 
3.7900000000035736, -1.6237232334604308 
3.8000000000035947, -1.6218505982859153 
3.810000000003616, -1.6213352293691146 
3.820000000003637, -1.621729323048021 
3.830000000003658, -1.6223264465095795 
3.840000000003679, -1.622736107496277 
3.8500000000037002, -1.6228745612011413 
3.8600000000037213, -1.6227751701755142 
3.8700000000037424, -1.6224839757334053 
3.8800000000037635, -1.6220397016877999 
3.8900000000037847, -1.6215003615519876 
3.9000000000038058, -1.6209943418663708 
3.910000000003827, -1.6207392767502706 
3.920000000003848, -1.6209333991592771 
3.930000000003869, -1.6215735958141941 
3.94000000000389, -1.6224438159670338 
3.9500000000039113, -1.623289333750615 
3.9600000000039324, -1.623945710553278 
3.9700000000039535, -1.624346230171766 
3.9800000000039746, -1.624481750291824 
3.9900000000039957, -1.6243668019053374 
4.000000000004016, -1.6240220715465248 
4.010000000003993, -1.623469559786408 
4.02000000000397, -1.6227370555093596 
4.030000000003946, -1.621870019394328 
4.040000000003923, -1.6209467721529172 
4.0500000000039, -1.620084690874292 
4.0600000000038765, -1.6194126813984415 
4.070000000003853, -1.6189990280588424 
4.08000000000383, -1.6187958821318191 
4.090000000003807, -1.618677362879708 
4.100000000003783, -1.6185225181641378 
4.11000000000376, -1.6182481448121837 
4.120000000003737, -1.617787872014753 
4.130000000003713, -1.6170589644904012 
4.14000000000369, -1.6159448627197683 
4.150000000003667, -1.614329973977685 
4.1600000000036434, -1.6122653224659202 
4.17000000000362, -1.6102843192053886 
4.180000000003597, -1.6094397164971066 
4.1900000000035735, -1.6104051701579152 
4.20000000000355, -1.6125951345495495 
4.210000000003527, -1.61485330109585 
4.220000000003504, -1.6165102075990774 
4.23000000000348, -1.6174795771335393 
4.240000000003457, -1.6179132697873588 
4.250000000003434, -1.6179792387061969 
4.26000000000341, -1.6177995902597686 
4.270000000003387, -1.617458357559202 
4.280000000003364, -1.6170287386927462 
4.2900000000033405, -1.6165971752919575 
4.300000000003317, -1.6162609688062282 
4.310000000003294, -1.6160884961236568 
4.320000000003271, -1.616079621569726 
4.330000000003247, -1.616172540778487 
4.340000000003224, -1.6162816440703704 
4.350000000003201, -1.6163275810535846 
4.360000000003177, -1.6162478980116806 
4.370000000003154, -1.615992813940996 
4.380000000003131, -1.615514628206626 
4.390000000003107, -1.61475958682377 
4.400000000003084, -1.613669184237582 
4.410000000003061, -1.6121988286867235 
4.4200000000030375, -1.6103656587824589 
4.430000000003014, -1.608328379918022 
4.440000000002991, -1.606440946988048 
4.450000000002968, -1.605127343587452 
4.460000000002944, -1.6045579484946138 
4.470000000002921, -1.604510449668935 
4.480000000002898, -1.6046268465526605 
4.490000000002874, -1.6046748292751016 
4.500000000002851, -1.6045685861245986 
4.510000000002828, -1.6042881114201737 
4.520000000002804, -1.6038236302697289 
4.530000000002781, -1.6031673267096274 
4.540000000002758, -1.6023574553189843 
4.5500000000027345, -1.6015821832150272 
4.560000000002711, -1.6012557748563019 
4.570000000002688, -1.6018180726728073 
4.580000000002665, -1.6032833211206636 
4.590000000002641, -1.6051633831133738 
4.600000000002618, -1.606905178228208 
4.610000000002595, -1.6082132200053547 
4.620000000002571, -1.6090345664297445 
4.630000000002548, -1.60943210767309 
4.640000000002525, -1.6094959275771241 
4.6500000000025015, -1.6093065339755843 
4.660000000002478, -1.6089287099030163 
4.670000000002455, -1.6084198690383265 
4.6800000000024315, -1.607842288987768 
4.690000000002408, -1.6072685870112164 
4.700000000002385, -1.6067726310526442 
4.710000000002362, -1.6064079595206207 
4.720000000002338, -1.6061834156123775 
4.730000000002315, -1.6060532476434048 
4.740000000002292, -1.6059373111047233 
4.750000000002268, -1.6057537480211486 
4.760000000002245, -1.6054307482536345 
4.770000000002222, -1.604892618627406 
4.7800000000021985, -1.6040364410857255 
4.790000000002175, -1.602716460432985 
4.800000000002152, -1.600763405443017 
4.810000000002129, -1.5980962296161851 
4.820000000002105, -1.5949762244539003 
4.830000000002082, -1.592220305176227 
4.840000000002059, -1.5908061333461962 
4.850000000002035, -1.5909176865033656 
4.860000000002012, -1.591816273154795 
4.870000000001989, -1.592719520570426 
4.880000000001965, -1.5932956223072157 
4.890000000001942, -1.5935256731654799 
4.900000000001919, -1.5934831925945832 
4.9100000000018955, -1.5932373519128011 
4.920000000001872, -1.592840384016909 
4.930000000001849, -1.5923527374595068 
4.940000000001826, -1.591883269078985 
