t, s[1].omega / s[0].omega 
0, -0.8199976431919722 
0.009999999999999995, -0.8197352318370594 
0.019999999999999934, -0.8194210007714358 
0.029999999999999874, -0.8190583924911685 
0.04000000000000012, -0.8186535404393804 
0.050000000000000405, -0.8182155710657252 
0.06000000000000069, -0.8177567250468722 
0.07000000000000098, -0.8172924147932443 
0.08000000000000126, -0.8168413191438251 
0.09000000000000155, -0.8164253774852458 
0.10000000000000184, -0.8160693020694778 
0.11000000000000212, -0.8157991932724211 
0.12000000000000241, -0.8156401067822404 
0.130000000000002, -0.8156128913363186 
0.1400000000000009, -0.8157310247115918 
0.1499999999999998, -0.8159982350020215 
0.1599999999999987, -0.8164073315993499 
0.1699999999999976, -0.816940136329863 
0.1799999999999965, -0.8175681079492062 
0.1899999999999954, -0.8182534570295947 
0.1999999999999943, -0.8189511510777525 
0.2099999999999932, -0.8196126808722808 
0.2199999999999921, -0.8201920516994893 
0.229999999999991, -0.8206529230030792 
0.2399999999999899, -0.8209741893249041 
0.2499999999999888, -0.8211513785206505 
0.2599999999999877, -0.8211934635489296 
0.2699999999999866, -0.8211171654433403 
0.2799999999999855, -0.8209415461179745 
0.2899999999999844, -0.8206846748059313 
0.2999999999999833, -0.8203628033062869 
0.3099999999999822, -0.8199917735949318 
0.3199999999999811, -0.8195902992495414 
0.32999999999998, -0.8191848282518208 
0.3399999999999789, -0.8188154229964132 
0.3499999999999778, -0.8185411728592197 
0.35999999999997667, -0.8184421347473455 
0.36999999999997557, -0.8186134270155678 
0.37999999999997447, -0.8191475157802147 
0.38999999999997337, -0.8201048110227429 
0.39999999999997227, -0.8214807102645004 
0.40999999999997117, -0.8231855304519196 
0.41999999999997006, -0.8250544141785936 
0.42999999999996896, -0.826890594646646 
0.43999999999996786, -0.8285229094633261 
0.44999999999996676, -0.8298470122270073 
0.45999999999996566, -0.8308326681316514 
0.46999999999996456, -0.8315038147527728 
0.47999999999996346, -0.8319104119613986 
0.48999999999996235, -0.832106338260777 
0.49999999999996125, -0.8321372881861138 
0.5099999999999602, -0.8320363362466272 
0.519999999999959, -0.8318235395958171 
0.529999999999958, -0.8315069837415583 
0.5399999999999568, -0.8310840276097864 
0.5499999999999557, -0.8305425425557058 
0.5599999999999546, -0.8298627242578732 
0.5699999999999535, -0.8290207485915639 
0.5799999999999524, -0.8279960545684784 
0.5899999999999513, -0.8267837540670987 
0.5999999999999502, -0.8254113900936677 
0.6099999999999491, -0.8239541002344201 
0.619999999999948, -0.8225361462502386 
0.6299999999999469, -0.8213068363612456 
0.6399999999999458, -0.8203927596300448 
0.6499999999999447, -0.8198502624806101 
0.6599999999999436, -0.8196489875811034 
0.6699999999999425, -0.819695508003002 
0.6799999999999414, -0.8198767655262664 
0.6899999999999403, -0.8200958018595352 
0.6999999999999392, -0.8202870835994697 
0.7099999999999381, -0.8204149329117433 
0.719999999999937, -0.8204642920248274 
0.7299999999999359, -0.8204307831202369 
0.7399999999999348, -0.8203129816514834 
0.7499999999999337, -0.8201071709266751 
0.7599999999999326, -0.8198038774195101 
0.7699999999999315, -0.8193855551559281 
0.7799999999999304, -0.818825382032012 
0.7899999999999293, -0.8180880107318709 
0.7999999999999282, -0.8171339986497683 
0.8099999999999271, -0.8159297472210468 
0.819999999999926, -0.8144628083008749 
0.8299999999999249, -0.8127579102222551 
0.8399999999999238, -0.8108848277265441 
0.8499999999999227, -0.8089506696409205 
0.8599999999999216, -0.8070776839272857 
0.8699999999999205, -0.8053764034513244 
0.8799999999999194, -0.8039251496999335 
0.8899999999999183, -0.8027612618432155 
0.8999999999999172, -0.8018832296212853 
0.9099999999999161, -0.8012599121850016 
0.919999999999915, -0.8008426773343016 
0.9299999999999139, -0.8005770164517303 
0.9399999999999128, -0.8004113031541304 
0.9499999999999117, -0.800301713489566 
0.9599999999999106, -0.8002136070110956 
0.9699999999999095, -0.8001204844494334 
0.9799999999999084, -0.8000018530575745 
0.9899999999999073, -0.7998411294691217 
0.9999999999999062, -0.7996243584552677 
1.0099999999999052, -0.7993401436509054 
1.019999999999904, -0.7989807249820318 
1.029999999999903, -0.7985435774764271 
1.039999999999902, -0.7980324963512999 
1.0499999999999008, -0.797457312810977 
1.0599999999998997, -0.7968322360932126 
1.0699999999998986, -0.7961737038741692 
1.0799999999998975, -0.7954987743745441 
1.0899999999998964, -0.7948244943608205 
1.0999999999998953, -0.7941679854646725 
1.1099999999998942, -0.7935467032295509 
1.119999999999893, -0.7929784036880609 
1.129999999999892, -0.7924805574598327 
1.1399999999998909, -0.7920691656718146 
1.1499999999998898, -0.7917571602824138 
1.1599999999998887, -0.7915527863161274 
1.1699999999998876, -0.7914584572324668 
1.1799999999998865, -0.7914704502390857 
1.1899999999998854, -0.7915794933867332 
1.1999999999998843, -0.7917719511898411 
1.2099999999998832, -0.79203112151837 
1.219999999999882, -0.7923381946779398 
1.229999999999881, -0.7926726613084439 
1.2399999999998799, -0.7930123116078638 
1.2499999999998788, -0.7933333527221039 
1.2599999999998777, -0.7936113904868198 
1.2699999999998766, -0.7938237537319867 
1.2799999999998755, -0.7939527547214935 
1.2899999999998744, -0.7939885133552951 
1.2999999999998733, -0.7939298911811067 
1.3099999999998722, -0.7937831674393108 
1.319999999999871, -0.7935594273555686 
1.32999999999987, -0.7932721471488795 
1.3399999999998689, -0.7929360501976278 
1.3499999999998678, -0.792567610553302 
1.3599999999998666, -0.7921870816733048 
1.3699999999998655, -0.7918216361668682 
1.3799999999998644, -0.7915088789159317 
1.3899999999998633, -0.7912994764347505 
1.3999999999998622, -0.7912570267980337 
1.4099999999998611, -0.7914529868024534 
1.41999999999986, -0.7919550635083853 
1.429999999999859, -0.7928094053805561 
1.4399999999998578, -0.7940201482355798 
1.4499999999998567, -0.7955335927245448 
1.4599999999998556, -0.7972365225503141 
1.4699999999998545, -0.798975500181178 
1.4799999999998534, -0.8005940664759696 
1.4899999999998523, -0.8019721809140445 
1.4999999999998512, -0.8030486987038004 
1.5099999999998501, -0.8038189936843416 
1.519999999999849, -0.8043156533373834 
1.529999999999848, -0.8045862607428086 
1.5399999999998468, -0.8046773738911002 
1.5499999999998457, -0.804626398871726 
1.5599999999998446, -0.8044590498088027 
1.5699999999998435, -0.8041895862146691 
1.5799999999998424, -0.8038219937042884 
1.5899999999998413, -0.8033513707555031 
1.5999999999998402, -0.8027656229128232 
1.6099999999998391, -0.8020481966243649 
1.619999999999838, -0.8011830354445874 
1.629999999999837, -0.800162950247859 
1.6399999999998358, -0.7990015137828573 
1.6499999999998347, -0.797745724762655 
1.6599999999998336, -0.7964824827645953 
1.6699999999998325, -0.7953295178118404 
1.6799999999998314, -0.7944061312245574 
1.6899999999998303, -0.7937927482329061 
1.6999999999998292, -0.7935015558097904 
1.709999999999828, -0.7934772680183574 
1.719999999999827, -0.7936257870609702 
1.729999999999826, -0.7938501744194172 
1.7399999999998248, -0.7940747685790872 
1.7499999999998237, -0.7942522268472179 
1.7599999999998226, -0.7943589386274439 
1.7699999999998215, -0.7943862825186813 
1.7799999999998204, -0.7943324226278909 
1.7899999999998193, -0.7941962345938521 
1.7999999999998182, -0.7939732226185875 
1.809999999999817, -0.7936528090206213 
1.819999999999816, -0.7932166188520338 
1.8299999999998149, -0.7926380005392976 
1.8399999999998138, -0.7918838164869121 
1.8499999999998127, -0.7909201103873963 
1.8599999999998116, -0.789722719912174 
1.8699999999998105, -0.7882912642803778 
1.8799999999998094, -0.7866608210024745 
1.8899999999998083, -0.7849036761185642 
1.8999999999998072, -0.7831176124295078 
1.909999999999806, -0.7814052809883865 
1.919999999999805, -0.7798539884232856 
1.9299999999998039, -0.778522989121839 
1.9399999999998028, -0.7774398023075694 
1.9499999999998017, -0.7766032949986568 
1.9599999999998006, -0.7759904951478285 
1.9699999999997995, -0.7755647527467582 
1.9799999999997984, -0.775283565367046 
1.9899999999997973, -0.775104869754532 
1.9999999999997962, -0.7749911126198907 
2.0099999999998173, -0.7749110327992119 
2.0199999999998384, -0.7748396419269341 
2.0299999999998595, -0.7747571946995466 
2.0399999999998806, -0.7746479580297166 
2.0499999999999017, -0.7744993981544996 
2.059999999999923, -0.7743020770002369 
2.069999999999944, -0.7740501262531903 
2.079999999999965, -0.7737417720494101 
2.089999999999986, -0.773379282034073 
2.100000000000007, -0.7729680950320247 
2.1100000000000283, -0.772515535867458 
2.1200000000000494, -0.7720298324547572 
2.1300000000000705, -0.7715198564513586 
2.1400000000000916, -0.770995464819513 
2.1500000000001127, -0.770468050473832 
2.160000000000134, -0.7699510058455663 
2.170000000000155, -0.7694599818330689 
2.180000000000176, -0.7690128668611421 
2.190000000000197, -0.7686293486485941 
2.2000000000002182, -0.7683299061234492 
2.2100000000002393, -0.7681342035891314 
2.2200000000002604, -0.7680590865514965 
2.2300000000002815, -0.7681165692068779 
2.2400000000003026, -0.7683122116980767 
2.2500000000003237, -0.7686440736460552 
2.260000000000345, -0.769102122059478 
2.270000000000366, -0.769667792394796 
2.280000000000387, -0.7703135574034622 
2.290000000000408, -0.7710029017645856 
2.3000000000004293, -0.771691775354076 
2.3100000000004504, -0.7723327425706283 
2.3200000000004715, -0.7728819331224915 
2.3300000000004926, -0.7733067519810948 
2.3400000000005137, -0.7735908925123156 
2.3500000000005348, -0.7737343016181093 
2.360000000000556, -0.773748708866279 
2.370000000000577, -0.7736515078656857 
2.380000000000598, -0.7734606874011141 
2.390000000000619, -0.7731920660220529 
2.4000000000006403, -0.7728588417988037 
2.4100000000006614, -0.7724730435449748 
2.4200000000006825, -0.7720486053759306 
2.4300000000007036, -0.7716060007537423 
2.4400000000007247, -0.7711782518319455 
2.450000000000746, -0.7708173306571224 
2.460000000000767, -0.7705982948516465 
2.470000000000788, -0.7706163336624704 
2.480000000000809, -0.7709709274026386 
2.49000000000083, -0.7717347285298468 
2.5000000000008513, -0.7729149901513807 
2.5100000000008724, -0.7744283945843269 
2.5200000000008935, -0.7761122091128081 
2.5300000000009146, -0.7777741847438031 
2.5400000000009357, -0.7792535534945412 
2.550000000000957, -0.7804578281648962 
2.560000000000978, -0.7813631401101173 
2.570000000000999, -0.7819917963837633 
2.58000000000102, -0.7823866312808404 
2.5900000000010412, -0.78259279549918 
2.6000000000010624, -0.782648250361769 
2.6100000000010835, -0.7825801732190721 
2.6200000000011046, -0.7824042331483099 
2.6300000000011257, -0.7821247063533183 
2.6400000000011468, -0.7817343969000065 
2.650000000001168, -0.7812140696645209 
2.660000000001189, -0.7805317761663626 
2.67000000000121, -0.7796433423009731 
2.680000000001231, -0.7784965100377114 
2.6900000000012523, -0.7770422445952672 
2.7000000000012734, -0.7752556547922222 
2.7100000000012945, -0.7731631076012597 
2.7200000000013156, -0.7708620154069827 
2.7300000000013367, -0.768514657156689 
2.740000000001358, -0.7663092544504679 
2.750000000001379, -0.7644055360350166 
2.7600000000014, -0.76289429598122 
2.770000000001421, -0.7617882674335389 
2.780000000001442, -0.7610399098944878 
2.7900000000014633, -0.760570142736392 
2.8000000000014844, -0.7602939875224508 
2.8100000000015055, -0.7601366690720435 
2.8200000000015266, -0.7600401017389017 
2.8300000000015477, -0.7599627064593142 
2.840000000001569, -0.7598758775535132 
2.85000000000159, -0.7597595462002469 
2.860000000001611, -0.7595982332729119 
2.870000000001632, -0.7593782542199946 
2.8800000000016532, -0.7590864042767876 
2.8900000000016743, -0.7587103256002612 
2.9000000000016954, -0.7582405284107625 
2.9100000000017165, -0.7576734617058767 
2.9200000000017377, -0.7570142530869177 
2.9300000000017588, -0.7562774635671612 
2.94000000000178, -0.7554850987558506 
2.950000000001801, -0.7546627721541427 
2.960000000001822, -0.753835926678438 
2.970000000001843, -0.7530275657091711 
2.9800000000018643, -0.752257685508243 
2.9900000000018854, -0.7515436894197559 
3.0000000000019065, -0.7509009259481335 
3.0100000000019276, -0.7503428232845908 
3.0200000000019487, -0.7498804921917643 
3.03000000000197, -0.749521962046545 
3.040000000001991, -0.7492713754992364 
3.050000000002012, -0.749128489339187 
3.060000000002033, -0.7490887094250669 
3.070000000002054, -0.7491436691427367 
3.0800000000020753, -0.7492821402164254 
3.0900000000020964, -0.7494909383612294 
3.1000000000021175, -0.749755493848876 
3.1100000000021386, -0.7500598830452814 
3.1200000000021597, -0.7503863454122114 
3.130000000002181, -0.7507146459121544 
3.140000000002202, -0.7510220105714616 
3.150000000002223, -0.7512844645244311 
3.160000000002244, -0.7514798377442686 
3.1700000000022652, -0.7515915347885416 
3.1800000000022863, -0.7516112885640999 
3.1900000000023074, -0.7515395200937898 
3.2000000000023285, -0.7513833995442643 
3.2100000000023496, -0.7511539531498506 
3.2200000000023707, -0.7508637170020238 
3.230000000002392, -0.7505258100180174 
3.240000000002413, -0.7501546358643324 
3.250000000002434, -0.7497680840525789 
3.260000000002455, -0.7493909660992191 
3.2700000000024763, -0.7490592031650115 
3.2800000000024974, -0.7488237433761753 
3.2900000000025185, -0.7487522799674232 
3.3000000000025396, -0.7489258419506782 
3.3100000000025607, -0.7494270090699571 
3.3200000000025818, -0.7503181523005359 
3.330000000002603, -0.7516129944829568 
3.340000000002624, -0.7532524592597498 
3.350000000002645, -0.7551013565377752 
3.360000000002666, -0.7569770552979938 
3.3700000000026873, -0.7587017548955777 
3.3800000000027084, -0.7601507746682105 
3.3900000000027295, -0.7612718357253141 
3.4000000000027506, -0.7620732020398328 
3.4100000000027717, -0.7625972708770352 
3.420000000002793, -0.7628965020423597 
3.430000000002814, -0.763018666651144 
3.440000000002835, -0.7630004628281596 
3.450000000002856, -0.7628659920680554 
3.460000000002877, -0.7626271446771093 
3.4700000000028983, -0.7622841958701692 
3.4800000000029194, -0.7618259063006427 
3.4900000000029405, -0.7612291149589068 
3.5000000000029616, -0.7604584810784526 
3.5100000000029827, -0.7594679587012204 
3.520000000003004, -0.7582068008610485 
3.530000000003025, -0.756633602345895 
3.540000000003046, -0.7547398465587304 
3.550000000003067, -0.7525769543427945 
3.5600000000030882, -0.7502701363835342 
3.5700000000031094, -0.748000452008233 
3.5800000000031305, -0.7459546656101441 
3.5900000000031516, -0.7442687947790486 
3.6000000000031727, -0.7429969930580096 
3.6100000000031938, -0.7421164684765196 
3.620000000003215, -0.7415555640131558 
3.630000000003236, -0.7412253858595265 
3.640000000003257, -0.7410425472981009 
3.650000000003278, -0.7409401641661939 
3.6600000000032993, -0.7408698192050991 
3.6700000000033204, -0.7407985787766875 
3.6800000000033415, -0.7407042963726026 
3.6900000000033626, -0.7405710830299906 
3.7000000000033837, -0.7403857974780943 
3.710000000003405, -0.740135893997423 
3.720000000003426, -0.7398088233835769 
3.730000000003447, -0.7393931280024607 
3.740000000003468, -0.7388810784778808 
3.750000000003489, -0.7382720014938375 
3.7600000000035103, -0.737574682587574 
3.7700000000035314, -0.7368072436998548 
3.7800000000035525, -0.7359941879864852 
3.7900000000035736, -0.7351620433231493 
3.8000000000035947, -0.7343356901254848 
3.810000000003616, -0.7335365842813586 
3.820000000003637, -0.7327827166096158 
3.830000000003658, -0.7320894017126314 
3.840000000003679, -0.7314700397118554 
3.8500000000037002, -0.7309364040594797 
3.8600000000037213, -0.7304983922586225 
3.8700000000037424, -0.7301634169498891 
3.8800000000037635, -0.7299357278730374 
3.8900000000037847, -0.729815956444736 
3.9000000000038058, -0.7298010683515089 
3.910000000003827, -0.7298847282033741 
3.920000000003848, -0.7300578945079963 
3.930000000003869, -0.7303093468110378 
3.94000000000389, -0.7306258413355697 
3.9500000000039113, -0.7309917132958076 
3.9600000000039324, -0.7313880177571848 
3.9700000000039535, -0.7317917328470035 
3.9800000000039746, -0.7321759804932785 
3.9900000000039957, -0.7325122057575798 
4.000000000004016, -0.7327743508625438 
4.010000000003993, -0.7329435615714716 
4.02000000000397, -0.7330111468162539 
4.030000000003946, -0.7329783943666236 
4.040000000003923, -0.7328537610219092 
4.0500000000039, -0.7326492251488875 
4.0600000000038765, -0.7323774655569741 
4.070000000003853, -0.7320506628461599 
4.08000000000383, -0.7316810069247395 
4.090000000003807, -0.731282741216306 
4.100000000003783, -0.7308755805063429 
4.11000000000376, -0.7304892666866071 
4.120000000003737, -0.7301685748854841 
4.130000000003713, -0.7299770562578158 
4.14000000000369, -0.7299962902859297 
4.150000000003667, -0.7303161933223408 
4.1600000000036434, -0.7310128787591814 
4.17000000000362, -0.732116217798144 
4.180000000003597, -0.7335798150845464 
4.1900000000035735, -0.7352744905043174 
4.20000000000355, -0.7370192046074694 
4.210000000003527, -0.7386377716836535 
4.220000000003504, -0.7400082344437162 
4.23000000000348, -0.7410795415214764 
4.240000000003457, -0.7418575794405204 
4.250000000003434, -0.7423794137039383 
4.26000000000341, -0.7426913436123078 
4.270000000003387, -0.7428358736555187 
4.280000000003364, -0.7428460180203741 
4.2900000000033405, -0.7427437191473572 
4.300000000003317, -0.7425398729590251 
4.310000000003294, -0.7422345363255936 
4.320000000003271, -0.7418167184132857 
4.330000000003247, -0.7412637821977008 
4.340000000003224, -0.7405411627490598 
4.350000000003201, -0.7396040601084453 
4.360000000003177, -0.7384038413812312 
4.370000000003154, -0.7369020237072561 
4.380000000003131, -0.7350917474395511 
4.390000000003107, -0.7330194273371488 
4.400000000003084, -0.7307922613997057 
4.410000000003061, -0.7285604112124232 
4.4200000000030375, -0.7264787061023056 
4.430000000003014, -0.7246676060577031 
4.440000000002991, -0.7231916652019019 
4.450000000002968, -0.7220596930953 
4.460000000002944, -0.721239110071719 
4.470000000002921, -0.7206744725598969 
4.480000000002898, -0.7203034245609338 
4.490000000002874, -0.7200673983926336 
4.500000000002851, -0.7199170671883637 
4.510000000002828, -0.7198137846279641 
4.520000000002804, -0.7197285478698456 
4.530000000002781, -0.7196398373088506 
4.540000000002758, -0.7195313297602589 
4.5500000000027345, -0.7193901338911766 
4.560000000002711, -0.7192059138674556 
4.570000000002688, -0.7189709905153048 
4.580000000002665, -0.7186811499200395 
4.590000000002641, -0.7183364922648086 
4.600000000002618, -0.7179415051858224 
4.610000000002595, -0.7175039597636936 
4.620000000002571, -0.7170330582440183 
4.630000000002548, -0.7165378219430281 
4.640000000002525, -0.7160264737230183 
4.6500000000025015, -0.7155068266862084 
4.660000000002478, -0.7149871602697115 
4.670000000002455, -0.7144770760251192 
4.6800000000024315, -0.7139881249565264 
4.690000000002408, -0.7135342116828852 
4.700000000002385, -0.7131317883178058 
4.710000000002362, -0.7127997588014864 
4.720000000002338, -0.7125589594301455 
4.730000000002315, -0.7124311210345767 
4.740000000002292, -0.7124373238077046 
4.750000000002268, -0.7125960466575527 
4.760000000002245, -0.7129209102031582 
4.770000000002222, -0.7134181055868045 
4.7800000000021985, -0.7140834036812637 
4.790000000002175, -0.7148987907855624 
4.800000000002152, -0.7158294304448873 
4.810000000002129, -0.7168227584011049 
4.820000000002105, -0.7178122766300774 
4.830000000002082, -0.7187275157888673 
4.840000000002059, -0.7195080147427919 
4.850000000002035, -0.7201153450282358 
4.860000000002012, -0.7205373371284495 
4.870000000001989, -0.7207834862556152 
4.880000000001965, -0.7208755428877803 
4.890000000001942, -0.7208383536869062 
4.900000000001919, -0.720693732881035 
4.9100000000018955, -0.7204575633949909 
4.920000000001872, -0.7201391273699091 
