t, s[1].omega / s[0].omega 
0, -0.9299975909731499 
0.009999999999999995, -0.9297061852203055 
0.019999999999999934, -0.9293167957803474 
0.029999999999999874, -0.9288359219957526 
0.04000000000000012, -0.9282757631193863 
0.050000000000000405, -0.9276554154008577 
0.06000000000000069, -0.9270016234558895 
0.07000000000000098, -0.9263489721898182 
0.08000000000000126, -0.9257390057590369 
0.09000000000000155, -0.9252172140122296 
0.10000000000000184, -0.9248271610937197 
0.11000000000000212, -0.9246025928631496 
0.12000000000000241, -0.924560159738969 
0.130000000000002, -0.9246958078519176 
0.1400000000000009, -0.92498632662855 
0.1499999999999998, -0.9253950972540329 
0.1599999999999987, -0.9258794338175399 
0.1699999999999976, -0.9263968607376574 
0.1799999999999965, -0.9269088371429122 
0.1899999999999954, -0.9273818590406909 
0.1999999999999943, -0.9277868799128811 
0.2099999999999932, -0.9280985037072991 
0.2199999999999921, -0.9282953821542325 
0.229999999999991, -0.9283623695986993 
0.2399999999999899, -0.9282934214698664 
0.2499999999999888, -0.9280932990364006 
0.2599999999999877, -0.9277770586143754 
0.2699999999999866, -0.9273682599013305 
0.2799999999999855, -0.9268978114705364 
0.2899999999999844, -0.9264045362216129 
0.2999999999999833, -0.925936676518279 
0.3099999999999822, -0.9255518910484362 
0.3199999999999811, -0.9253129291094944 
0.32999999999998, -0.9252779830245951 
0.3399999999999789, -0.9254882976681786 
0.3499999999999778, -0.925958359696186 
0.35999999999997667, -0.9266731041468794 
0.36999999999997557, -0.9275924980236946 
0.37999999999997447, -0.928660064269194 
0.38999999999997337, -0.9298110665356922 
0.39999999999997227, -0.9309779471833413 
0.40999999999997117, -0.932093394739959 
0.41999999999997006, -0.9330934220987119 
0.42999999999996896, -0.9339228006002263 
0.43999999999996786, -0.9345426518878167 
0.44999999999996676, -0.934936629634632 
0.45999999999996566, -0.9351114970684691 
0.46999999999996456, -0.9350914481511987 
0.47999999999996346, -0.9349098591741392 
0.48999999999996235, -0.9346032492896776 
0.49999999999996125, -0.9342101504809378 
0.5099999999999602, -0.9337749371063918 
0.519999999999959, -0.9333547009705432 
0.529999999999958, -0.9330254826461826 
0.5399999999999568, -0.9328825155725337 
0.5499999999999557, -0.9330295351422796 
0.5599999999999546, -0.933557070655287 
0.5699999999999535, -0.934517428291237 
0.5799999999999524, -0.9359079525353422 
0.5899999999999513, -0.9376692749545539 
0.5999999999999502, -0.9396960578140551 
0.6099999999999491, -0.94185300995874 
0.619999999999948, -0.943991515619949 
0.6299999999999469, -0.9459672501125735 
0.6399999999999458, -0.9476602252073872 
0.6499999999999447, -0.9489939009443213 
0.6599999999999436, -0.9499447862568606 
0.6699999999999425, -0.9505363751385005 
0.6799999999999414, -0.9508208859208169 
0.6899999999999403, -0.9508591607689689 
0.6999999999999392, -0.950707311968008 
0.7099999999999381, -0.9504127047598981 
0.719999999999937, -0.9500179507891954 
0.7299999999999359, -0.9495709193187529 
0.7399999999999348, -0.9491388544760712 
0.7499999999999337, -0.9488228536908203 
0.7599999999999326, -0.9487646462865937 
0.7699999999999315, -0.9491344076629066 
0.7799999999999304, -0.9500934591980752 
0.7899999999999293, -0.9517415240287574 
0.7999999999999282, -0.9540729212119011 
0.8099999999999271, -0.9569633555001833 
0.819999999999926, -0.9601908386742908 
0.8299999999999249, -0.9634797388873665 
0.8399999999999238, -0.9665552765133988 
0.8499999999999227, -0.9691975176553816 
0.8599999999999216, -0.9712804741262847 
0.8699999999999205, -0.972781109420825 
0.8799999999999194, -0.9737558511184824 
0.8899999999999183, -0.9743004994662806 
0.8999999999999172, -0.9745146526035183 
0.9099999999999161, -0.9744817812407186 
0.919999999999915, -0.9742643689349558 
0.9299999999999139, -0.9739090889535247 
0.9399999999999128, -0.9734584556536687 
0.9499999999999117, -0.9729680174212809 
0.9599999999999106, -0.9725282791313955 
0.9699999999999095, -0.9722857698876688 
0.9799999999999084, -0.9724485771099962 
0.9899999999999073, -0.9732565655537927 
0.9999999999999062, -0.9749097429753597 
1.0099999999999052, -0.9774805173208938 
1.019999999999904, -0.980858216031281 
1.029999999999903, -0.9847590333889833 
1.039999999999902, -0.9887961607947643 
1.0499999999999008, -0.9925791478426556 
1.0599999999998997, -0.9958068894497725 
1.0699999999998986, -0.9983230538929441 
1.0799999999998975, -1.0001166921803655 
1.0899999999998964, -1.0012774175514692 
1.0999999999998953, -1.0019361199909689 
1.1099999999998942, -1.0022196209985226 
1.119999999999893, -1.0022289307146985 
1.129999999999892, -1.0020361509434228 
1.1399999999998909, -1.0016919966987403 
1.1499999999998898, -1.0012394438422922 
1.1599999999998887, -1.000732957307345 
1.1699999999998876, -1.0002633514354788 
1.1799999999998865, -0.999982869562013 
1.1899999999998854, -1.0001135553001885 
1.1999999999998843, -1.0009142763982133 
1.2099999999998832, -1.0025974082070417 
1.219999999999882, -1.0052279012498317 
1.229999999999881, -1.0086660870143935 
1.2399999999998799, -1.0125917580938508 
1.2499999999998788, -1.016594047445842 
1.2599999999998777, -1.0202820959548928 
1.2699999999998766, -1.0233750293834087 
1.2799999999998755, -1.02574454730367 
1.2899999999998744, -1.027402512414453 
1.2999999999998733, -1.028450115200212 
1.3099999999998722, -1.0290199257354948 
1.319999999999871, -1.029235109509671 
1.32999999999987, -1.0291918574966448 
1.3399999999998689, -1.0289590437547738 
1.3499999999998678, -1.0285877090153794 
1.3599999999998666, -1.0281266657036072 
1.3699999999998655, -1.027643400489318 
1.3799999999998644, -1.0272477004108116 
1.3899999999998633, -1.0271073194141096 
1.3999999999998622, -1.02743542700267 
1.4099999999998611, -1.0284345803847095 
1.41999999999986, -1.0302132197725937 
1.429999999999859, -1.0327240865545417 
1.4399999999998578, -1.0357653685774202 
1.4499999999998567, -1.0390390376749097 
1.4599999999998556, -1.042229403436669 
1.4699999999998545, -1.0450707831139692 
1.4799999999998534, -1.0473908624141233 
1.4899999999998523, -1.0491246734529889 
1.4999999999998512, -1.0502989703802963 
1.5099999999998501, -1.0509966568393616 
1.519999999999849, -1.0513187700176803 
1.529999999999848, -1.0513582379271547 
1.5399999999998468, -1.0511894534964275 
1.5499999999998457, -1.0508705231111608 
1.5599999999998446, -1.0504538748380863 
1.5699999999998435, -1.0500021660269083 
1.5799999999998424, -1.0496055056397515 
1.5899999999998413, -1.0493909350176052 
1.5999999999998402, -1.0495102416528508 
1.6099999999998391, -1.0500990292191221 
1.619999999999838, -1.0512230752997431 
1.629999999999837, -1.0528461038500088 
1.6399999999998358, -1.0548395868381626 
1.6499999999998347, -1.057022683037665 
1.6599999999998336, -1.0592057072023262 
1.6699999999998325, -1.0612213914623962 
1.6799999999998314, -1.0629434573138734 
1.6899999999998303, -1.064296602179029 
1.6999999999998292, -1.065258395205599 
1.709999999999828, -1.0658512428370948 
1.719999999999827, -1.0661260642685253 
1.729999999999826, -1.0661443138143252 
1.7399999999998248, -1.06596546911631 
1.7499999999998237, -1.0656432762077137 
1.7599999999998226, -1.0652300807911983 
1.7699999999998215, -1.0647862297957005 
1.7799999999998204, -1.0643892940408624 
1.7899999999998193, -1.0641350453556364 
1.7999999999998182, -1.064122584502989 
1.809999999999817, -1.0644253389186344 
1.819999999999816, -1.0650636642183986 
1.8299999999998149, -1.0659972953778851 
1.8399999999998138, -1.0671408037140053 
1.8499999999998127, -1.0683892271413962 
1.8599999999998116, -1.0696396145137619 
1.8699999999998105, -1.0708029943025534 
1.8799999999998094, -1.0718089762468899 
1.8899999999998083, -1.0726074362612523 
1.8999999999998072, -1.0731698840076789 
1.909999999999806, -1.073490021810494 
1.919999999999805, -1.0735815499478198 
1.9299999999998039, -1.0734727912863478 
1.9399999999998028, -1.0732004664744614 
1.9499999999998017, -1.072805967904379 
1.9599999999998006, -1.0723358533151406 
1.9699999999997995, -1.0718452494728319 
1.9799999999997984, -1.0713998680888304 
1.9899999999997973, -1.0710711305839533 
1.9999999999997962, -1.0709220940410171 
2.0099999999998173, -1.0709894404611422 
2.0199999999998384, -1.0712720803804043 
2.0299999999998595, -1.0717330820128272 
2.0399999999998806, -1.0723123349718344 
2.0499999999999017, -1.0729420835661883 
2.059999999999923, -1.0735589240417394 
2.069999999999944, -1.0741100409606008 
2.079999999999965, -1.074554740678446 
2.089999999999986, -1.0748636616729934 
2.100000000000007, -1.0750177655526012 
2.1100000000000283, -1.075008105140142 
2.1200000000000494, -1.074836136866913 
2.1300000000000705, -1.0745137326515526 
2.1400000000000916, -1.074062537824428 
2.1500000000001127, -1.0735133275507556 
2.160000000000134, -1.0729061347081477 
2.170000000000155, -1.0722905134189011 
2.180000000000176, -1.0717234282313681 
2.190000000000197, -1.0712621255484545 
2.2000000000002182, -1.070952334217039 
2.2100000000002393, -1.0708163860907822 
2.2200000000002604, -1.0708471610029755 
2.2300000000002815, -1.071010705312983 
2.2400000000003026, -1.071255814912017 
2.2500000000003237, -1.071525944483636 
2.260000000000345, -1.0717687608437019 
2.270000000000366, -1.0719411571583701 
2.280000000000387, -1.072010504654997 
2.290000000000408, -1.0719541480885997 
2.3000000000004293, -1.0717585580482292 
2.3100000000004504, -1.0714186023939871 
2.3200000000004715, -1.0709370751815037 
2.3300000000004926, -1.0703246889842477 
2.3400000000005137, -1.0696006596720102 
2.3500000000005348, -1.0687937524351088 
2.360000000000556, -1.067943277187682 
2.370000000000577, -1.0670988562030026 
2.380000000000598, -1.0663171287965951 
2.390000000000619, -1.0656539807752128 
2.4000000000006403, -1.065153038843341 
2.4100000000006614, -1.0648340437196735 
2.4200000000006825, -1.0646863142776661 
2.4300000000007036, -1.0646711815959182 
2.4400000000007247, -1.0647326928251897 
2.450000000000746, -1.0648109138322683 
2.460000000000767, -1.0648514786941983 
2.470000000000788, -1.0648091685620817 
2.480000000000809, -1.0646477330003967 
2.49000000000083, -1.0643393446888951 
2.5000000000008513, -1.0638654114608295 
2.5100000000008724, -1.0632182242799046 
2.5200000000008935, -1.0624019882959561 
2.5300000000009146, -1.0614326276245243 
2.5400000000009357, -1.0603371401966055 
2.550000000000957, -1.0591535846522233 
2.560000000000978, -1.0579317082058393 
2.570000000000999, -1.0567326967971091 
2.58000000000102, -1.0556255610042693 
2.5900000000010412, -1.0546780400074405 
2.6000000000010624, -1.053942236278807 
2.6100000000010835, -1.0534393363871817 
2.6200000000011046, -1.0531513323464285 
2.6300000000011257, -1.053025985934889 
2.6400000000011468, -1.0529929856756426 
2.650000000001168, -1.0529815006365073 
2.660000000001189, -1.0529302524795265 
2.67000000000121, -1.052788648999682 
2.680000000001231, -1.0525133593247062 
2.6900000000012523, -1.0520656101559518 
2.7000000000012734, -1.0514123081940565 
2.7100000000012945, -1.050531025658815 
2.7200000000013156, -1.049416194417741 
2.7300000000013367, -1.048083061443113 
2.740000000001358, -1.046567909133144 
2.750000000001379, -1.0449259242440678 
2.7600000000014, -1.043228853709766 
2.770000000001421, -1.0415625168877756 
2.780000000001442, -1.0400214676605126 
2.7900000000014633, -1.038697231339575 
2.8000000000014844, -1.0376593667534102 
2.8100000000015055, -1.036935116430821 
2.8200000000015266, -1.03649921398124 
2.8300000000015477, -1.036282535200089 
2.840000000001569, -1.036195517778586 
2.85000000000159, -1.0361518178410405 
2.860000000001611, -1.0360804411575677 
2.870000000001632, -1.0359253121866723 
2.8800000000016532, -1.0356384063867048 
2.8900000000016743, -1.035173151347501 
2.9000000000016954, -1.0344825221352818 
2.9100000000017165, -1.0335237437154072 
2.9200000000017377, -1.0322685695805656 
2.9300000000017588, -1.0307147823374057 
2.94000000000178, -1.028893290328068 
2.950000000001801, -1.026868098273885 
2.960000000001822, -1.0247310523244464 
2.970000000001843, -1.0225945934503995 
2.9800000000018643, -1.0205826999964942 
2.9900000000018854, -1.0188167442415834 
3.0000000000019065, -1.0173938705448133 
3.0100000000019276, -1.0163623081398436 
3.0200000000019487, -1.0157062235624668 
3.03000000000197, -1.0153522174121006 
3.040000000001991, -1.0151959838922164 
3.050000000002012, -1.0151330718181346 
3.060000000002033, -1.0150776048479286 
3.070000000002054, -1.014964872180894 
3.0800000000020753, -1.0147437844696245 
3.0900000000020964, -1.0143670969600878 
3.1000000000021175, -1.0137848953772994 
3.1100000000021386, -1.012944530520793 
3.1200000000021597, -1.0117983770661323 
3.130000000002181, -1.0103177955439613 
3.140000000002202, -1.0085076174305754 
3.150000000002223, -1.0064139666341083 
3.160000000002244, -1.0041221856571196 
3.1700000000022652, -1.0017476482812986 
3.1800000000022863, -0.9994238624281142 
3.1900000000023074, -0.9972886337874339 
3.2000000000023285, -0.9954656531076072 
3.2100000000023496, -0.9940409685884208 
3.2200000000023707, -0.993041305556998 
3.230000000002392, -0.9924270154096255 
3.240000000002413, -0.9921073649463725 
3.250000000002434, -0.9919710227907679 
3.260000000002455, -0.9919145334667319 
3.2700000000024763, -0.9918563077572283 
3.2800000000024974, -0.9917357864850216 
3.2900000000025185, -0.9915047887511703 
3.3000000000025396, -0.9911181872480908 
3.3100000000025607, -0.9905284959577957 
3.3200000000025818, -0.9896869706924708 
3.330000000002603, -0.9885520477268377 
3.340000000002624, -0.9871028127230067 
3.350000000002645, -0.9853514332805517 
3.360000000002666, -0.9833479425420208 
3.3700000000026873, -0.9811755256159473 
3.3800000000027084, -0.978940246583111 
3.3900000000027295, -0.976759980172359 
3.4000000000027506, -0.9747533678094575 
3.4100000000027717, -0.9730262353665798 
3.420000000002793, -0.9716541672762254 
3.430000000002814, -0.9706654592930608 
3.440000000002835, -0.9700336188822394 
3.450000000002856, -0.9696864291593175 
3.460000000002877, -0.9695285733058521 
3.4700000000028983, -0.9694658290600179 
3.4800000000029194, -0.9694197512787991 
3.4900000000029405, -0.9693301701628435 
3.5000000000029616, -0.969149880874013 
3.5100000000029827, -0.9688375774626975 
3.520000000003004, -0.9683535361055012 
3.530000000003025, -0.9676604939121505 
3.540000000003046, -0.9667299804530597 
3.550000000003067, -0.9655515018369514 
3.5600000000030882, -0.9641395948334972 
3.5700000000031094, -0.9625345813544923 
3.5800000000031305, -0.9607971871580363 
3.5900000000031516, -0.9590009845376413 
3.6000000000031727, -0.9572261879677539 
3.6100000000031938, -0.9555549056199653 
3.620000000003215, -0.9540653121009752 
3.630000000003236, -0.9528224793375886 
3.640000000003257, -0.9518665360122881 
3.650000000003278, -0.9512026271048484 
3.6600000000032993, -0.9507987580740249 
3.6700000000033204, -0.9505944183639384 
3.6800000000033415, -0.950516350719508 
3.6900000000033626, -0.9504936476787169 
3.7000000000033837, -0.9504662068332728 
3.710000000003405, -0.9503858932657799 
3.720000000003426, -0.9502136917367586 
3.730000000003447, -0.9499168720599689 
3.740000000003468, -0.9494688099260902 
3.750000000003489, -0.9488518726076881 
3.7600000000035103, -0.9480614829505187 
3.7700000000035314, -0.9471083406821345 
3.7800000000035525, -0.9460170363820888 
3.7900000000035736, -0.9448221253665603 
3.8000000000035947, -0.9435643720203236 
3.810000000003616, -0.9422888837382697 
3.820000000003637, -0.9410446322188906 
3.830000000003658, -0.9398834319459404 
3.840000000003679, -0.9388564821123703 
3.8500000000037002, -0.938007790351989 
3.8600000000037213, -0.9373657200156984 
3.8700000000037424, -0.93693577163107 
3.8800000000037635, -0.9366982447375255 
3.8900000000037847, -0.936612588738886 
3.9000000000038058, -0.9366267319538512 
3.910000000003827, -0.9366871072121972 
3.920000000003848, -0.9367455817154898 
3.930000000003869, -0.9367622770335859 
3.94000000000389, -0.9367057704038748 
3.9500000000039113, -0.936552789718404 
3.9600000000039324, -0.9362884700920102 
3.9700000000039535, -0.9359067503272349 
3.9800000000039746, -0.9354098711964512 
3.9900000000039957, -0.9348067132585814 
4.000000000004016, -0.9341109518044611 
4.010000000003993, -0.933340255089149 
4.02000000000397, -0.9325168259842886 
4.030000000003946, -0.931668585443332 
4.040000000003923, -0.9308299368210042 
4.0500000000039, -0.9300410748906692 
4.0600000000038765, -0.9293449497517621 
4.070000000003853, -0.9287815826595587 
4.08000000000383, -0.9283807087014451 
4.090000000003807, -0.9281551085200302 
4.100000000003783, -0.9280973680169149 
4.11000000000376, -0.9281815830174012 
4.120000000003737, -0.9283692962528033 
4.130000000003713, -0.9286171349431138 
4.14000000000369, -0.9288833849759893 
4.150000000003667, -0.9291320110024616 
4.1600000000036434, -0.9293341886380123 
4.17000000000362, -0.9294681656075234 
4.180000000003597, -0.9295182154897711 
4.1900000000035735, -0.9294733182643331 
4.20000000000355, -0.9293263341085126 
4.210000000003527, -0.9290743265536248 
4.220000000003504, -0.9287199147173075 
4.23000000000348, -0.9282727360568475 
4.240000000003457, -0.9277502446238042 
4.250000000003434, -0.9271779326759468 
4.26000000000341, -0.9265894482382185 
4.270000000003387, -0.9260264017753815 
4.280000000003364, -0.9255365924680797 
4.2900000000033405, -0.9251691817536287 
4.300000000003317, -0.9249667370165305 
4.310000000003294, -0.9249564165639738 
4.320000000003271, -0.9251439488795186 
4.330000000003247, -0.9255130235732208 
4.340000000003224, -0.9260299499491838 
4.350000000003201, -0.9266510629667681 
4.360000000003177, -0.9273297714241526 
4.370000000003154, -0.9280211801375285 
4.380000000003131, -0.9286838760637819 
4.390000000003107, -0.9292799054659737 
4.400000000003084, -0.9297747784305963 
4.410000000003061, -0.930139168493968 
4.4200000000030375, -0.9303525243506694 
4.430000000003014, -0.9304067664334154 
4.440000000002991, -0.9303075447923549 
4.450000000002968, -0.9300722771830628 
4.460000000002944, -0.9297267572190087 
4.470000000002921, -0.9293030423019312 
4.480000000002898, -0.928840107111317 
4.490000000002874, -0.9283865984729853 
4.500000000002851, -0.9280030585716339 
4.510000000002828, -0.9277599672813466 
4.520000000002804, -0.9277290073390864 
4.530000000002781, -0.9279686980474183 
4.540000000002758, -0.9285099980713307 
4.5500000000027345, -0.9293485741591146 
4.560000000002711, -0.9304465293246672 
4.570000000002688, -0.9317408694736301 
4.580000000002665, -0.9331534750398655 
4.590000000002641, -0.9345989549775181 
4.600000000002618, -0.9359903103060251 
4.610000000002595, -0.9372449975569396 
4.620000000002571, -0.9382937009365577 
4.630000000002548, -0.939090589920885 
4.640000000002525, -0.9396199771466106 
4.6500000000025015, -0.9398947329119661 
4.660000000002478, -0.939947115400775 
4.670000000002455, -0.93981755817726 
4.6800000000024315, -0.9395470986618875 
4.690000000002408, -0.9391760051740649 
4.700000000002385, -0.9387482992062809 
4.710000000002362, -0.9383202888734458 
4.720000000002338, -0.9379696945756185 
4.730000000002315, -0.9377996902739308 
4.740000000002292, -0.9379310124205473 
4.750000000002268, -0.9384789917623652 
4.760000000002245, -0.9395217072117745 
4.770000000002222, -0.9410734973813586 
4.7800000000021985, -0.943075879815382 
4.790000000002175, -0.9454069256741497 
4.800000000002152, -0.9479015273632443 
4.810000000002129, -0.9503755847861495 
4.820000000002105, -0.9526523419766235 
4.830000000002082, -0.9545901815416828 
4.840000000002059, -0.9561057140609559 
4.850000000002035, -0.9571816649621413 
4.860000000002012, -0.9578547852384723 
4.870000000001989, -0.9581911948437799 
4.880000000001965, -0.9582624915018918 
4.890000000001942, -0.9581314320921972 
4.900000000001919, -0.9578484721109979 
4.9100000000018955, -0.9574567323409555 
4.920000000001872, -0.9570031213025489 
4.930000000001849, -0.9565540907454846 
