t, s[1].omega / s[0].omega 
0, -0.7099976877292877 
0.009999999999999995, -0.7097491130291652 
0.019999999999999934, -0.7094652000145704 
0.029999999999999874, -0.709143901486063 
0.04000000000000012, -0.7087842605438378 
0.050000000000000405, -0.70838845851625 
0.06000000000000069, -0.7079629054253315 
0.07000000000000098, -0.7075185317106328 
0.08000000000000126, -0.707071006604237 
0.09000000000000155, -0.7066414818187388 
0.10000000000000184, -0.7062579757481325 
0.11000000000000212, -0.7059570372194495 
0.12000000000000241, -0.7057850022851013 
0.130000000000002, -0.7057980008714348 
0.1400000000000009, -0.7060598788826706 
0.1499999999999998, -0.7066373310290944 
0.1599999999999987, -0.7075916755248131 
0.1699999999999976, -0.7089667979190636 
0.1799999999999965, -0.7107732200430238 
0.1899999999999954, -0.7129700629114502 
0.1999999999999943, -0.7154509495109044 
0.2099999999999932, -0.7180452321180637 
0.2199999999999921, -0.7205456148477882 
0.229999999999991, -0.7227594501663892 
0.2399999999999899, -0.724559734976272 
0.2499999999999888, -0.7259066257369313 
0.2599999999999877, -0.7268320080738289 
0.2699999999999866, -0.727405114491712 
0.2799999999999855, -0.7277013941978602 
0.2899999999999844, -0.727784462436724 
0.2999999999999833, -0.7276994981823992 
0.3099999999999822, -0.727472755733608 
0.3199999999999811, -0.7271129277482145 
0.32999999999998, -0.7266121070251061 
0.3399999999999789, -0.7259455438301928 
0.3499999999999778, -0.7250703146133923 
0.35999999999997667, -0.7239239184275386 
0.36999999999997557, -0.7224253046145479 
0.37999999999997447, -0.7204833894609143 
0.38999999999997337, -0.7180210866854269 
0.39999999999997227, -0.7150216596622284 
0.40999999999997117, -0.7115886807860867 
0.41999999999997006, -0.7079788492830132 
0.42999999999996896, -0.7045536035230756 
0.43999999999996786, -0.7016506615368393 
0.44999999999996676, -0.6994602123525022 
0.45999999999996566, -0.6979898052283677 
0.46999999999996456, -0.6971168566753968 
0.47999999999996346, -0.6966690632610921 
0.48999999999996235, -0.6964842690369896 
0.49999999999996125, -0.6964373860181985 
0.5099999999999602, -0.6964434461584498 
0.519999999999959, -0.6964494613358514 
0.529999999999958, -0.6964236728912843 
0.5399999999999568, -0.6963461693591703 
0.5499999999999557, -0.69620202268992 
0.5599999999999546, -0.695976944545829 
0.5699999999999535, -0.6956553344612236 
0.5799999999999524, -0.6952208520586489 
0.5899999999999513, -0.694659692013894 
0.5999999999999502, -0.6939659943910196 
0.6099999999999491, -0.6931472334216611 
0.619999999999948, -0.6922262358575815 
0.6299999999999469, -0.6912376424100203 
0.6399999999999458, -0.6902201682595971 
0.6499999999999447, -0.6892088568132652 
0.6599999999999436, -0.6882309207185249 
0.6699999999999425, -0.6873057862167963 
0.6799999999999414, -0.6864476155735261 
0.6899999999999403, -0.6856682240957778 
0.6999999999999392, -0.6849791651601865 
0.7099999999999381, -0.6843926682903237 
0.719999999999937, -0.6839216007644154 
0.7299999999999359, -0.6835787741934911 
0.7399999999999348, -0.6833759425127064 
0.7499999999999337, -0.6833228247853731 
0.7599999999999326, -0.6834264131822076 
0.7699999999999315, -0.6836906569665356 
0.7799999999999304, -0.684116358905832 
0.7899999999999293, -0.6847008453539465 
0.7999999999999282, -0.6854367784468256 
0.8099999999999271, -0.6863095335864436 
0.819999999999926, -0.6872931330443806 
0.8299999999999249, -0.6883460456243602 
0.8399999999999238, -0.6894099109435814 
0.8499999999999227, -0.690414861695203 
0.8599999999999216, -0.6912924139475952 
0.8699999999999205, -0.6919912004039899 
0.8799999999999194, -0.6924871632986742 
0.8899999999999183, -0.6927830342122565 
0.8999999999999172, -0.6928992835272603 
0.9099999999999161, -0.6928629026075799 
0.919999999999915, -0.6926989405787362 
0.9299999999999139, -0.6924261642587334 
0.9399999999999128, -0.6920559858748427 
0.9499999999999117, -0.6915934469684644 
0.9599999999999106, -0.6910396270441603 
0.9699999999999095, -0.6903955389803904 
0.9799999999999084, -0.6896679305577169 
0.9899999999999073, -0.68887701693042 
0.9999999999999062, -0.6880644476685036 
1.0099999999999052, -0.6872966006359371 
1.019999999999904, -0.6866557398359003 
1.029999999999903, -0.6862157623392795 
1.039999999999902, -0.6860142971219538 
1.0499999999999008, -0.6860446975171727 
1.0599999999998997, -0.6862737984772909 
1.0699999999998986, -0.686659778052548 
1.0799999999998975, -0.687152213682762 
1.0899999999998964, -0.6876896155304618 
1.0999999999998953, -0.6882092819529401 
1.1099999999998942, -0.6886617944311657 
1.119999999999893, -0.6890180658394471 
1.129999999999892, -0.6892671089319562 
1.1399999999998909, -0.6894092394939786 
1.1499999999998898, -0.6894490810574325 
1.1599999999998887, -0.6893902071476703 
1.1699999999998876, -0.6892315191536094 
1.1799999999998865, -0.6889649212826954 
1.1899999999998854, -0.6885740981083118 
1.1999999999998843, -0.6880348587154839 
1.2099999999998832, -0.6873182610640062 
1.219999999999882, -0.6863979152672677 
1.229999999999881, -0.685261380497563 
1.2399999999998799, -0.6839219745845344 
1.2499999999998788, -0.6824240230674368 
1.2599999999998777, -0.6808363198452411 
1.2699999999998766, -0.6792361423858255 
1.2799999999998755, -0.6776926455949613 
1.2899999999998744, -0.6762573171107521 
1.2999999999998733, -0.6749628572685182 
1.3099999999998722, -0.6738270978023732 
1.319999999999871, -0.6728579908116182 
1.32999999999987, -0.6720574276527636 
1.3399999999998689, -0.6714234000848665 
1.3499999999998678, -0.6709509412271156 
1.3599999999998666, -0.6706325101142352 
1.3699999999998655, -0.6704583482997298 
1.3799999999998644, -0.6704170760444286 
1.3899999999998633, -0.6704965379191299 
1.3999999999998622, -0.6706847203506509 
1.4099999999998611, -0.6709704631251336 
1.41999999999986, -0.6713436426291762 
1.429999999999859, -0.6717944826880629 
1.4399999999998578, -0.6723116996856499 
1.4499999999998567, -0.6728795068736522 
1.4599999999998556, -0.6734743023454006 
1.4699999999998545, -0.6740629643178563 
1.4799999999998534, -0.6746050942405668 
1.4899999999998523, -0.6750599897508545 
1.4999999999998512, -0.6753958065035445 
1.5099999999998501, -0.6755960878749913 
1.519999999999849, -0.6756603505522067 
1.529999999999848, -0.675599481410483 
1.5399999999998468, -0.6754293983550976 
1.5499999999998457, -0.6751660592258308 
1.5599999999998446, -0.674823071684786 
1.5699999999998435, -0.6744118325738351 
1.5799999999998424, -0.6739438309204666 
1.5899999999998413, -0.673435037005139 
1.5999999999998402, -0.6729125763397394 
1.6099999999998391, -0.6724236045868185 
1.619999999999838, -0.6720448069560689 
1.629999999999837, -0.6718875966936764 
1.6399999999998358, -0.672089355271783 
1.6499999999998347, -0.67277920985357 
1.6599999999998336, -0.6740176121337631 
1.6699999999998325, -0.6757381444427 
1.6799999999998314, -0.6777441790217426 
1.6899999999998303, -0.6797831867774526 
1.6999999999998292, -0.6816464601268624 
1.709999999999828, -0.683219825818384 
1.719999999999827, -0.6844725555248931 
1.729999999999826, -0.6854226791205494 
1.7399999999998248, -0.6861087958333539 
1.7499999999998237, -0.6865739584724284 
1.7599999999998226, -0.6868574881283742 
1.7699999999998215, -0.686990978417939 
1.7799999999998204, -0.6869964659608996 
1.7899999999998193, -0.6868856039925795 
1.7999999999998182, -0.686659109631084 
1.809999999999817, -0.6863061763041151 
1.819999999999816, -0.685804127993895 
1.8299999999998149, -0.6851194364059328 
1.8399999999998138, -0.6842121837463331 
1.8499999999998127, -0.6830462862112601 
1.8599999999998116, -0.6816056012138795 
1.8699999999998105, -0.6799106094797129 
1.8799999999998094, -0.6780253396417452 
1.8899999999998083, -0.6760469654715431 
1.8999999999998072, -0.6740820718478687 
1.909999999999806, -0.6722229160981972 
1.919999999999805, -0.6705345173355184 
1.9299999999998039, -0.6690537983312759 
1.9399999999998028, -0.6677955338528091 
1.9499999999998017, -0.6667595875341334 
1.9599999999998006, -0.6659365885060836 
1.9699999999997995, -0.6653115634071977 
1.9799999999997984, -0.6648661262896626 
1.9899999999997973, -0.6645799706386322 
1.9999999999997962, -0.6644321401397115 
2.0099999999998173, -0.6644022314913631 
2.0199999999998384, -0.6644714667327504 
2.0299999999998595, -0.6646234955805472 
2.0399999999998806, -0.6648447952526817 
2.0499999999999017, -0.6651245362617688 
2.059999999999923, -0.6654537274515208 
2.069999999999944, -0.6658234187788664 
2.079999999999965, -0.6662219575345214 
2.089999999999986, -0.6666319782332535 
2.100000000000007, -0.6670287479110438 
2.1100000000000283, -0.667381778432477 
2.1200000000000494, -0.667660241653292 
2.1300000000000705, -0.6678400589769747 
2.1400000000000916, -0.667908898000612 
2.1500000000001127, -0.6678666305729771 
2.160000000000134, -0.6677219254891921 
2.170000000000155, -0.6674876307826818 
2.180000000000176, -0.66717731583672 
2.190000000000197, -0.6668040170729488 
2.2000000000002182, -0.6663812825140384 
2.2100000000002393, -0.6659263982339904 
2.2200000000002604, -0.665465837317264 
2.2300000000002815, -0.665042973230646 
2.2400000000003026, -0.664727391757513 
2.2500000000003237, -0.6646230874961676 
2.260000000000345, -0.6648690282454921 
2.270000000000366, -0.6656211532219127 
2.280000000000387, -0.6670051692386995 
2.290000000000408, -0.6690446769329849 
2.3000000000004293, -0.6716023677113487 
2.3100000000004504, -0.6743936234663878 
2.3200000000004715, -0.677089920658072 
2.3300000000004926, -0.6794427882383756 
2.3400000000005137, -0.681339720694332 
2.3500000000005348, -0.6827801624128989 
2.360000000000556, -0.6838219747583375 
2.370000000000577, -0.6845394523605711 
2.380000000000598, -0.6850015592481726 
2.390000000000619, -0.6852637739011335 
2.4000000000006403, -0.6853663838536168 
2.4100000000006614, -0.6853350730497472 
2.4200000000006825, -0.6851818350456315 
2.4300000000007036, -0.684905404375684 
2.4400000000007247, -0.6844910968156303 
2.450000000000746, -0.6839106459280001 
2.460000000000767, -0.6831235930595609 
2.470000000000788, -0.6820828995681179 
2.480000000000809, -0.6807476053718128 
2.49000000000083, -0.6791023906899215 
2.5000000000008513, -0.6771769771167995 
2.5100000000008724, -0.6750525096069813 
2.5200000000008935, -0.6728466221696177 
2.5300000000009146, -0.6706837137455633 
2.5400000000009357, -0.6686672534366594 
2.550000000000957, -0.6668662029616489 
2.560000000000978, -0.6653156334175597 
2.570000000000999, -0.6640246738346907 
2.58000000000102, -0.6629854221030732 
2.5900000000010412, -0.6621798427465013 
2.6000000000010624, -0.6615843097647819 
2.6100000000010835, -0.6611725123720363 
2.6200000000011046, -0.6609174808642555 
2.6300000000011257, -0.660793164316202 
2.6400000000011468, -0.6607756836227059 
2.650000000001168, -0.6608442295287384 
2.660000000001189, -0.6609815592497034 
2.67000000000121, -0.6611740742903779 
2.680000000001231, -0.6614114369896897 
2.6900000000012523, -0.661685574420347 
2.7000000000012734, -0.6619888405496666 
2.7100000000012945, -0.6623113213866241 
2.7200000000013156, -0.6626379650762957 
2.7300000000013367, -0.6629471085061708 
2.740000000001358, -0.6632121189081902 
2.750000000001379, -0.6634064260295816 
2.7600000000014, -0.6635097936904825 
2.770000000001421, -0.6635124657833075 
2.780000000001442, -0.6634152729337525 
2.7900000000014633, -0.6632265478840991 
2.8000000000014844, -0.6629582467758972 
2.8100000000015055, -0.662623291625653 
2.8200000000015266, -0.6622350039674118 
2.8300000000015477, -0.6618087416551457 
2.840000000001569, -0.661365697688659 
2.85000000000159, -0.6609389053562011 
2.860000000001611, -0.6605813174092695 
2.870000000001632, -0.6603748468698081 
2.8800000000016532, -0.6604368947312665 
2.8900000000016743, -0.6609169549708288 
2.9000000000016954, -0.6619720694235173 
2.9100000000017165, -0.6637122972257326 
2.9200000000017377, -0.6661259194799299 
2.9300000000017588, -0.6690284593657968 
2.94000000000178, -0.6720944037679331 
2.950000000001801, -0.6749769080570216 
2.960000000001822, -0.6774336785145392 
2.970000000001843, -0.6793723789550561 
2.9800000000018643, -0.6808148895407716 
2.9900000000018854, -0.681837241988326 
3.0000000000019065, -0.6825258894653461 
3.0100000000019276, -0.682956662806485 
3.0200000000019487, -0.683188101394106 
3.03000000000197, -0.6832611252754027 
3.040000000001991, -0.6832005766584657 
3.050000000002012, -0.6830166534622928 
3.060000000002033, -0.6827055427956441 
3.070000000002054, -0.6822493084611386 
3.0800000000020753, -0.6816158376640192 
3.0900000000020964, -0.6807607118404942 
3.1000000000021175, -0.6796340136890798 
3.1100000000021386, -0.6781949508377103 
3.1200000000021597, -0.6764333568054401 
3.130000000002181, -0.6743892893163334 
3.140000000002202, -0.672156667411446 
3.150000000002223, -0.6698638791599592 
3.160000000002244, -0.6676408788216102 
3.1700000000022652, -0.6655912670970323 
3.1800000000022863, -0.6637805201496388 
3.1900000000023074, -0.6622386450655148 
3.2000000000023285, -0.6609694495443283 
3.2100000000023496, -0.6599600637940363 
3.2200000000023707, -0.6591880779890941 
3.230000000002392, -0.6586262080246154 
3.240000000002413, -0.6582452954554627 
3.250000000002434, -0.6580163852584192 
3.260000000002455, -0.6579122773348696 
3.2700000000024763, -0.6579086655148986 
3.2800000000024974, -0.6579848605386609 
3.2900000000025185, -0.6581240965188102 
3.3000000000025396, -0.6583134401373909 
3.3100000000025607, -0.6585432668947022 
3.3200000000025818, -0.6588061333597781 
3.330000000002603, -0.6590948062758863 
3.340000000002624, -0.6593994837813458 
3.350000000002645, -0.6597050061240268 
3.360000000002666, -0.6599897037515312 
3.3700000000026873, -0.6602274790978244 
3.3800000000027084, -0.6603930682585668 
3.3900000000027295, -0.6604680714139703 
3.4000000000027506, -0.6604445075727856 
3.4100000000027717, -0.6603243994934213 
3.420000000002793, -0.6601165476689153 
3.430000000002814, -0.6598328724461683 
3.440000000002835, -0.6594861401263181 
3.450000000002856, -0.6590897863906535 
3.460000000002877, -0.6586599064658041 
3.4700000000028983, -0.6582193894224615 
3.4800000000029194, -0.6578042380211189 
3.4900000000029405, -0.6574718375091464 
3.5000000000029616, -0.6573097702574733 
3.5100000000029827, -0.6574411591896255 
3.520000000003004, -0.6580184413769418 
3.530000000003025, -0.6591941477412624 
3.540000000003046, -0.6610616511543224 
3.550000000003067, -0.6635806813546831 
3.5600000000030882, -0.6665370313395979 
3.5700000000031094, -0.6695916789728181 
3.5800000000031305, -0.6724091559394878 
3.5900000000031516, -0.674773831715875 
3.6000000000031727, -0.6766183276849022 
3.6100000000031938, -0.677978779377374 
3.620000000003215, -0.6789356544351743 
3.630000000003236, -0.6795743706087254 
3.640000000003257, -0.6799676792976136 
3.650000000003278, -0.6801707346090883 
3.6600000000032993, -0.6802213950531996 
3.6700000000033204, -0.6801418649610064 
3.6800000000033415, -0.6799400286748141 
3.6900000000033626, -0.679609960063058 
3.7000000000033837, -0.6791317907525619 
3.710000000003405, -0.67847189659585 
3.720000000003426, -0.6775854454057535 
3.730000000003447, -0.6764243577640429 
3.740000000003468, -0.6749530849018022 
3.750000000003489, -0.6731700225664964 
3.7600000000035103, -0.6711245564805444 
3.7700000000035314, -0.6689163559492308 
3.7800000000035525, -0.6666728772502235 
3.7900000000035736, -0.6645170677803999 
3.8000000000035947, -0.6625429196866675 
3.810000000003616, -0.660807227593457 
3.820000000003637, -0.6593340554417275 
3.830000000003658, -0.6581241634333336 
3.840000000003679, -0.6571638749862593 
3.8500000000037002, -0.6564314245899407 
3.8600000000037213, -0.6559009900451516 
3.8700000000037424, -0.6555452577439858 
3.8800000000037635, -0.6553372202694397 
3.8900000000037847, -0.655251553980378 
3.9000000000038058, -0.6552656594564719 
3.910000000003827, -0.6553603403918624 
3.920000000003848, -0.6555200954984828 
3.930000000003869, -0.6557330037674902 
3.94000000000389, -0.6559901163781908 
3.9500000000039113, -0.656284144821912 
3.9600000000039324, -0.6566072289560714 
3.9700000000039535, -0.6569479566539609 
3.9800000000039746, -0.6572886635198357 
3.9900000000039957, -0.6576048326754327 
4.000000000004016, -0.6578680737406108 
4.010000000003993, -0.6580521570562932 
4.02000000000397, -0.6581391897420474 
4.030000000003946, -0.6581226279428236 
4.040000000003923, -0.6580060635544972 
4.0500000000039, -0.6577994233994634 
4.0600000000038765, -0.6575151141047441 
4.070000000003853, -0.6571658037580568 
4.08000000000383, -0.6567643802166379 
4.090000000003807, -0.6563260642307732 
4.100000000003783, -0.6558726472724048 
4.11000000000376, -0.6554389229368701 
4.120000000003737, -0.6550810749541812 
4.130000000003713, -0.6548854985878628 
4.14000000000369, -0.654973678900948 
4.150000000003667, -0.6554944354223186 
4.1600000000036434, -0.656591894003209 
4.17000000000362, -0.6583439951877922 
4.180000000003597, -0.6606915151262267 
4.1900000000035735, -0.6634110727702496 
4.20000000000355, -0.6661794107523951 
4.210000000003527, -0.6687004752661727 
4.220000000003504, -0.6708005519045815 
4.23000000000348, -0.6724363481689604 
4.240000000003457, -0.6736469169402518 
4.250000000003434, -0.6745030945766795 
4.26000000000341, -0.6750772736218935 
4.270000000003387, -0.6754306957022486 
4.280000000003364, -0.6756099289293942 
4.2900000000033405, -0.6756469447826527 
4.300000000003317, -0.6755600991868407 
4.310000000003294, -0.6753548838994738 
4.320000000003271, -0.67502410787617 
4.330000000003247, -0.6745477709168248 
4.340000000003224, -0.6738936549755994 
4.350000000003201, -0.6730206572860754 
4.360000000003177, -0.6718875516005456 
4.370000000003154, -0.6704685635476875 
4.380000000003131, -0.6687722215070603 
4.390000000003107, -0.6668534001707751 
4.400000000003084, -0.664807960217826 
4.410000000003061, -0.6627498841464526 
4.4200000000030375, -0.6607836479927032 
4.430000000003014, -0.6589860569639103 
4.440000000002991, -0.657402142564626 
4.450000000002968, -0.6560505996858996 
4.460000000002944, -0.6549321318709038 
4.470000000002921, -0.6540365916410433 
4.480000000002898, -0.6533477507365117 
4.490000000002874, -0.6528461356941344 
4.500000000002851, -0.6525107570271971 
4.510000000002828, -0.6523203645148988 
4.520000000002804, -0.6522545276152714 
4.530000000002781, -0.6522945827740185 
4.540000000002758, -0.6524243642446023 
4.5500000000027345, -0.652630604747638 
4.560000000002711, -0.6529028765651479 
4.570000000002688, -0.6532328809806133 
4.580000000002665, -0.6536128231849012 
4.590000000002641, -0.6540327276562492 
4.600000000002618, -0.6544771185065976 
4.610000000002595, -0.6549224863800134 
4.620000000002571, -0.6553376650080609 
4.630000000002548, -0.6556884434355903 
4.640000000002525, -0.6559451316794491 
4.6500000000025015, -0.6560892718801316 
4.660000000002478, -0.6561159512339247 
4.670000000002455, -0.6560312549893325 
4.6800000000024315, -0.6558472844016137 
4.690000000002408, -0.6555776196864834 
4.700000000002385, -0.6552348085485236 
4.710000000002362, -0.6548301626822726 
4.720000000002338, -0.6543756553109755 
4.730000000002315, -0.653887827754337 
4.740000000002292, -0.6533938158499937 
4.750000000002268, -0.6529393757103104 
4.760000000002245, -0.6525975231066341 
4.770000000002222, -0.6524734747244616 
4.7800000000021985, -0.6526972107597773 
4.790000000002175, -0.65339260840906 
4.800000000002152, -0.6546206073881095 
4.810000000002129, -0.6563207334322481 
4.820000000002105, -0.6583024173521943 
4.830000000002082, -0.6603152734089235 
4.840000000002059, -0.6621515013816203 
4.850000000002035, -0.6637005112947414 
4.860000000002012, -0.6649365896418755 
4.870000000001989, -0.6658806806130315 
4.880000000001965, -0.6665710861187861 
4.890000000001942, -0.6670486655592393 
4.900000000001919, -0.6673503398256965 
4.9100000000018955, -0.6675060960837433 
4.920000000001872, -0.6675375069938427 
