t, s[1].omega / s[0].omega 
0, -0.6099977236394952 
0.009999999999999995, -0.609769818237496 
0.019999999999999934, -0.609536864401187 
0.029999999999999874, -0.6092875589025043 
0.04000000000000012, -0.6090090030180508 
0.050000000000000405, -0.6086919004225287 
0.06000000000000069, -0.6083334645832124 
0.07000000000000098, -0.6079378469704774 
0.08000000000000126, -0.6075155334874108 
0.09000000000000155, -0.607083418351592 
0.10000000000000184, -0.6066666786560367 
0.11000000000000212, -0.6063029665291612 
0.12000000000000241, -0.606049098708273 
0.130000000000002, -0.6059901471133624 
0.1400000000000009, -0.6062501894829893 
0.1499999999999998, -0.6070023823820374 
0.1599999999999987, -0.6084726661997721 
0.1699999999999976, -0.6109255934436877 
0.1799999999999965, -0.6146138325885697 
0.1899999999999954, -0.6196735837679881 
0.1999999999999943, -0.6259776641313441 
0.2099999999999932, -0.633030957579609 
0.2199999999999921, -0.6400487790182809 
0.229999999999991, -0.6462537325885105 
0.2399999999999899, -0.6511873657401137 
0.2499999999999888, -0.6547916763361633 
0.2599999999999877, -0.6572674595124166 
0.2699999999999866, -0.6588920999207202 
0.2799999999999855, -0.6599120973855583 
0.2899999999999844, -0.6605100766011379 
0.2999999999999833, -0.6608083124896555 
0.3099999999999822, -0.6608818102777583 
0.3199999999999811, -0.6607697681133823 
0.32999999999998, -0.6604825570191397 
0.3399999999999789, -0.660004340637284 
0.3499999999999778, -0.6592925468932651 
0.35999999999997667, -0.6582767018289718 
0.36999999999997557, -0.6568617354607602 
0.37999999999997447, -0.6549441674302934 
0.38999999999997337, -0.6524489060464064 
0.39999999999997227, -0.6493813990752829 
0.40999999999997117, -0.6458656716319384 
0.41999999999997006, -0.6421306880979454 
0.42999999999996896, -0.6384423194946466 
0.43999999999996786, -0.6350251802812883 
0.44999999999996676, -0.6320201912762178 
0.45999999999996566, -0.6294854899380555 
0.46999999999996456, -0.6274201386404232 
0.47999999999996346, -0.6257898473860568 
0.48999999999996235, -0.6245454725840027 
0.49999999999996125, -0.6236337159470748 
0.5099999999999602, -0.6230025478691557 
0.519999999999959, -0.6226038393216033 
0.529999999999958, -0.6223947364365101 
0.5399999999999568, -0.6223384714836008 
0.5499999999999557, -0.622404830216335 
0.5599999999999546, -0.6225703264708362 
0.5699999999999535, -0.6228181048748759 
0.5799999999999524, -0.6231375275809402 
0.5899999999999513, -0.6235231896889195 
0.5999999999999502, -0.6239728031496735 
0.6099999999999491, -0.6244833098424178 
0.619999999999948, -0.6250452374319435 
0.6299999999999469, -0.625636917961778 
0.6399999999999458, -0.6262219727792403 
0.6499999999999447, -0.6267534695813632 
0.6599999999999436, -0.6271847409495139 
0.6699999999999425, -0.6274816844640356 
0.6799999999999414, -0.6276295557291698 
0.6899999999999403, -0.6276313792266033 
0.6999999999999392, -0.6275009069916339 
0.7099999999999381, -0.6272551107923218 
0.719999999999937, -0.6269093699530156 
0.7299999999999359, -0.626476068149848 
0.7399999999999348, -0.6259662310531033 
0.7499999999999337, -0.6253940084165616 
0.7599999999999326, -0.6247843848563777 
0.7699999999999315, -0.6241846477530483 
0.7799999999999304, -0.6236787419388993 
0.7899999999999293, -0.6233989268962981 
0.7999999999999282, -0.6235197203694377 
0.8099999999999271, -0.6242096914238389 
0.819999999999926, -0.6255292119018715 
0.8299999999999249, -0.6273273868642847 
0.8399999999999238, -0.6292668021850696 
0.8499999999999227, -0.6310223824033541 
0.8599999999999216, -0.6324649479954123 
0.8699999999999205, -0.6336387702722084 
0.8799999999999194, -0.6346239309276815 
0.8899999999999183, -0.6354595369387213 
0.8999999999999172, -0.6361497027418326 
0.9099999999999161, -0.6366905975934198 
0.919999999999915, -0.6370843580602157 
0.9299999999999139, -0.637339690558421 
0.9399999999999128, -0.6374673016407775 
0.9499999999999117, -0.6374751221935779 
0.9599999999999106, -0.637364800994028 
0.9699999999999095, -0.6371295055586522 
0.9799999999999084, -0.6367530788915738 
0.9899999999999073, -0.6362113127980725 
0.9999999999999062, -0.6354768600694498 
1.0099999999999052, -0.6345290454600694 
1.019999999999904, -0.6333671620009037 
1.029999999999903, -0.6320211092894008 
1.039999999999902, -0.6305510284164313 
1.0499999999999008, -0.62903324189402 
1.0599999999998997, -0.6275400700043343 
1.0699999999998986, -0.6261251087552266 
1.0799999999998975, -0.6248196083946203 
1.0899999999998964, -0.6236374537777716 
1.0999999999998953, -0.6225830994168908 
1.1099999999998942, -0.6216583437245397 
1.119999999999893, -0.6208665093783574 
1.129999999999892, -0.6202143055674525 
1.1399999999998909, -0.6197121790094784 
1.1499999999998898, -0.6193738734229239 
1.1599999999998887, -0.6192156972595361 
1.1699999999998876, -0.6192558327358887 
1.1799999999998865, -0.6195138837279377 
1.1899999999998854, -0.6200106674900887 
1.1999999999998843, -0.620767930557812 
1.2099999999998832, -0.6218071795662459 
1.219999999999882, -0.6231462179605003 
1.229999999999881, -0.624791568241115 
1.2399999999998799, -0.6267255608072261 
1.2499999999998788, -0.6288898937430115 
1.2599999999998777, -0.6311736207964356 
1.2699999999998766, -0.6334191989084651 
1.2799999999998755, -0.635455622158391 
1.2899999999998744, -0.6371475607562987 
1.2999999999998733, -0.6384308683000908 
1.3099999999998722, -0.6393133391402901 
1.319999999999871, -0.6398479379969394 
1.32999999999987, -0.640101067474717 
1.3399999999998689, -0.6401309563796118 
1.3499999999998678, -0.6399778720609097 
1.3599999999998666, -0.6396613665499068 
1.3699999999998655, -0.6391796148251675 
1.3799999999998644, -0.6385076642776233 
1.3899999999998633, -0.6375927521983549 
1.3999999999998622, -0.6363455556914749 
1.4099999999998611, -0.6346273013720032 
1.41999999999986, -0.632236495647186 
1.429999999999859, -0.6289100754780697 
1.4399999999998578, -0.6243738315975922 
1.4499999999998567, -0.6184842237444662 
1.4599999999998556, -0.6114355997019986 
1.4699999999998545, -0.6038577235066764 
1.4799999999998534, -0.596619048265487 
1.4899999999998523, -0.5904437182774265 
1.4999999999998512, -0.5856655176150198 
1.5099999999998501, -0.5822514115925251 
1.519999999999849, -0.5799651851567124 
1.529999999999848, -0.5785174874571613 
1.5399999999998468, -0.5776486538233896 
1.5499999999998457, -0.5771569227570555 
1.5599999999998446, -0.5768979233561021 
1.5699999999998435, -0.5767735303510746 
1.5799999999998424, -0.5767191163097783 
1.5899999999998413, -0.5766927125592621 
1.5999999999998402, -0.5766670117737742 
1.6099999999998391, -0.5766241836380288 
1.619999999999838, -0.5765531969619058 
1.629999999999837, -0.5764491623875553 
1.6399999999998358, -0.5763137927308393 
1.6499999999998347, -0.5761554756759285 
1.6599999999998336, -0.5759872891782021 
1.6699999999998325, -0.5758223392494458 
1.6799999999998314, -0.5756678744529062 
1.6899999999998303, -0.5755211835938905 
1.6999999999998292, -0.5753697909915043 
1.709999999999828, -0.5751960294856774 
1.719999999999827, -0.5749834365797024 
1.729999999999826, -0.5747216355120968 
1.7399999999998248, -0.574407979946397 
1.7499999999998237, -0.5740466607165068 
1.7599999999998226, -0.5736472399077713 
1.7699999999998215, -0.5732243582089785 
1.7799999999998204, -0.5727996140902287 
1.7899999999998193, -0.572406149886472 
1.7999999999998182, -0.5720963974371658 
1.809999999999817, -0.5719533510599957 
1.819999999999816, -0.572104963680074 
1.8299999999998149, -0.572738652415157 
1.8399999999998138, -0.5741066828908391 
1.8499999999998127, -0.5765021999868521 
1.8599999999998116, -0.5801752315607822 
1.8699999999998105, -0.5851724317017208 
1.8799999999998094, -0.5911634138441026 
1.8899999999998083, -0.5974315117404146 
1.8999999999998072, -0.6031571827176717 
1.909999999999806, -0.607805534899837 
1.919999999999805, -0.6112689604747747 
1.9299999999998039, -0.6137199346891744 
1.9399999999998028, -0.6154072081028128 
1.9499999999998017, -0.6165462833216929 
1.9599999999998006, -0.6172943010701584 
1.9699999999997995, -0.6177583749956986 
1.9799999999997984, -0.6180088575847895 
1.9899999999997973, -0.6180893332094182 
1.9999999999997962, -0.6180227717264684 
2.0099999999998173, -0.6178148628240345 
2.0199999999998384, -0.6174556902521241 
2.0299999999998595, -0.6169211954988512 
2.0399999999998806, -0.6161766321191245 
2.0499999999999017, -0.6151849091063692 
2.059999999999923, -0.6139216925472347 
2.069999999999944, -0.6123943028998882 
2.079999999999965, -0.610654241676204 
2.089999999999986, -0.6087917929500656 
2.100000000000007, -0.6069122216972798 
2.1100000000000283, -0.6051076481118807 
2.1200000000000494, -0.6034403300122994 
2.1300000000000705, -0.6019417017927748 
2.1400000000000916, -0.6006211529997423 
2.1500000000001127, -0.599476712697868 
2.160000000000134, -0.5985031860698378 
2.170000000000155, -0.5976967886543282 
2.180000000000176, -0.5970570631276118 
2.190000000000197, -0.5965872093525214 
2.2000000000002182, -0.5962937203942018 
2.2100000000002393, -0.5961858954923146 
2.2200000000002604, -0.59627554944804 
2.2300000000002815, -0.5965770306474083 
2.2400000000003026, -0.5971074223050109 
2.2500000000003237, -0.5978864624146605 
2.260000000000345, -0.5989352311788066 
2.270000000000366, -0.6002720715673044 
2.280000000000387, -0.6019038828908596 
2.290000000000408, -0.6038118226466849 
2.3000000000004293, -0.605934079531515 
2.3100000000004504, -0.6081550735352728 
2.3200000000004715, -0.6103153285844068 
2.3300000000004926, -0.6122487507051739 
2.3400000000005137, -0.6138318126926436 
2.3500000000005348, -0.6150138184285211 
2.360000000000556, -0.6158116258077403 
2.370000000000577, -0.6162807007162947 
2.380000000000598, -0.6164849892937225 
2.390000000000619, -0.616477912169811 
2.4000000000006403, -0.6162942764161714 
2.4100000000006614, -0.6159479694322237 
2.4200000000006825, -0.6154307845089586 
2.4300000000007036, -0.6147094274150218 
2.4400000000007247, -0.6137189020250389 
2.450000000000746, -0.6123513028997949 
2.460000000000767, -0.6104411668427236 
2.470000000000788, -0.6077553783047542 
2.480000000000809, -0.6040112876340388 
2.49000000000083, -0.5989647069283399 
2.5000000000008513, -0.5925885891390855 
2.5100000000008724, -0.5852511122949459 
2.5200000000008935, -0.57769097308942 
2.5300000000009146, -0.5707229828912188 
2.5400000000009357, -0.5649059171067989 
2.550000000000957, -0.5604246712262968 
2.560000000000978, -0.557181584737416 
2.570000000000999, -0.5549471302790714 
2.58000000000102, -0.5534703748324972 
2.5900000000010412, -0.5525327747684144 
2.6000000000010624, -0.5519639879770459 
2.6100000000010835, -0.5516394681619137 
2.6200000000011046, -0.5514717837980927 
2.6300000000011257, -0.5514012493023134 
2.6400000000011468, -0.5513879905296286 
2.650000000001168, -0.5514060251235338 
2.660000000001189, -0.5514393473329886 
2.67000000000121, -0.5514797528991153 
2.680000000001231, -0.5515258655762288 
2.6900000000012523, -0.5515824048065149 
2.7000000000012734, -0.5516583807879828 
2.7100000000012945, -0.5517631715296192 
2.7200000000013156, -0.5519007276422746 
2.7300000000013367, -0.5520640108336585 
2.740000000001358, -0.552232866202518 
2.750000000001379, -0.5523775298538995 
2.7600000000014, -0.5524668061858458 
2.770000000001421, -0.5524767003825642 
2.780000000001442, -0.5523950178115924 
2.7900000000014633, -0.5522205916493835 
2.8000000000014844, -0.5519592383609481 
2.8100000000015055, -0.551619489462459 
2.8200000000015266, -0.5512100054684316 
2.8300000000015477, -0.5507392094858358 
2.840000000001569, -0.5502170640862829 
2.85000000000159, -0.5496588938971014 
2.860000000001611, -0.5490910912994609 
2.870000000001632, -0.5485575606127281 
2.8800000000016532, -0.5481225828470905 
2.8900000000016743, -0.5478593310687265 
2.9000000000016954, -0.5478068504760536 
2.9100000000017165, -0.5478899198704147 
2.9200000000017377, -0.5478565298296457 
2.9300000000017588, -0.5473641263714565 
2.94000000000178, -0.5462503845715289 
2.950000000001801, -0.5447217507093807 
2.960000000001822, -0.5431975454130175 
2.970000000001843, -0.5420021230562975 
2.9800000000018643, -0.541233963192192 
2.9900000000018854, -0.540829869581994 
3.0000000000019065, -0.5406717148556217 
3.0100000000019276, -0.5406508959041265 
3.0200000000019487, -0.5406889063891614 
3.03000000000197, -0.5407356384821284 
3.040000000001991, -0.540761035568653 
3.050000000002012, -0.5407469669146867 
3.060000000002033, -0.5406813337449965 
3.070000000002054, -0.5405546227648422 
3.0800000000020753, -0.5403587736319208 
3.0900000000020964, -0.5400882454246938 
3.1000000000021175, -0.539742872858118 
3.1100000000021386, -0.539331178055311 
3.1200000000021597, -0.5388717217265917 
3.130000000002181, -0.538390242995849 
3.140000000002202, -0.5379126911532155 
3.150000000002223, -0.5374573462311126 
3.160000000002244, -0.5370301803705397 
3.1700000000022652, -0.5366255400137343 
3.1800000000022863, -0.5362310646050831 
3.1900000000023074, -0.535833834829593 
3.2000000000023285, -0.5354249794007783 
3.2100000000023496, -0.5350017238726499 
3.2200000000023707, -0.5345676509740558 
3.230000000002392, -0.5341326931210882 
3.240000000002413, -0.5337141720364753 
3.250000000002434, -0.5333397235028421 
3.260000000002455, -0.5330526579910463 
3.2700000000024763, -0.5329202005736124 
3.2800000000024974, -0.5330447670830631 
3.2900000000025185, -0.5335772588845052 
3.3000000000025396, -0.5347280023789853 
3.3100000000025607, -0.5367635365737314 
3.3200000000025818, -0.5399655372643892 
3.330000000002603, -0.5445209750562563 
3.340000000002624, -0.5503423987991287 
3.350000000002645, -0.5569207020341402 
3.360000000002666, -0.563412808631841 
3.3700000000026873, -0.5690199815425057 
3.3800000000027084, -0.5733510698834711 
3.3900000000027295, -0.5764504232833687 
3.4000000000027506, -0.5785781384360458 
3.4100000000027717, -0.5800105694957784 
3.420000000002793, -0.5809604540020075 
3.430000000002814, -0.5815724199532892 
3.440000000002835, -0.5819402251434315 
3.450000000002856, -0.582122853536529 
3.460000000002877, -0.5821550450035826 
3.4700000000028983, -0.582053334598158 
3.4800000000029194, -0.5818193316466929 
3.4900000000029405, -0.5814418207744017 
3.5000000000029616, -0.5808994398158085 
3.5100000000029827, -0.5801660962858317 
3.520000000003004, -0.5792209829056706 
3.530000000003025, -0.5780624855336878 
3.540000000003046, -0.5767202245482148 
3.550000000003067, -0.5752561636228357 
3.5600000000030882, -0.5737505644498238 
3.5700000000031094, -0.5722798577070329 
3.5800000000031305, -0.5708994256520887 
3.5900000000031516, -0.5696386843231562 
3.6000000000031727, -0.5685064173597445 
3.6100000000031938, -0.567500043613862 
3.620000000003215, -0.5666138862959869 
3.630000000003236, -0.565844591745861 
3.640000000003257, -0.5651939660131011 
3.650000000003278, -0.564670225404776 
3.6600000000032993, -0.5642885498696851 
3.6700000000033204, -0.5640714792746016 
3.6800000000033415, -0.5640494064025646 
3.6900000000033626, -0.5642612390962611 
3.7000000000033837, -0.5647551283205499 
3.710000000003405, -0.5655888284813144 
3.720000000003426, -0.5668285821986507 
3.730000000003447, -0.5685442538957531 
3.740000000003468, -0.570796936977969 
3.750000000003489, -0.5736146343389296 
3.7600000000035103, -0.5769551800724116 
3.7700000000035314, -0.5806679403308246 
3.7800000000035525, -0.5844847007143568 
3.7900000000035736, -0.5880729315031348 
3.8000000000035947, -0.5911429167411675 
3.810000000003616, -0.5935410431404582 
3.820000000003637, -0.5952655709989683 
3.830000000003658, -0.5964131377207321 
3.840000000003679, -0.5971110799680741 
3.8500000000037002, -0.597473390695361 
3.8600000000037213, -0.5975836796385853 
3.8700000000037424, -0.5974934076761496 
3.8800000000037635, -0.5972247942469907 
3.8900000000037847, -0.5967727509142604 
3.9000000000038058, -0.5961036385327345 
3.910000000003827, -0.595150595096601 
3.920000000003848, -0.5938073589097865 
3.930000000003869, -0.5919269872794934 
3.94000000000389, -0.5893394017234372 
3.9500000000039113, -0.5859061785786093 
3.9600000000039324, -0.5816137956185208 
3.9700000000039535, -0.5766559535664157 
3.9800000000039746, -0.57142019306694 
3.9900000000039957, -0.5663565649063415 
4.000000000004016, -0.5618210143737803 
4.010000000003993, -0.5579992390505656 
4.02000000000397, -0.5549242752844765 
4.030000000003946, -0.5525353745614747 
4.040000000003923, -0.5507321331711161 
4.0500000000039, -0.5494082363509182 
4.0600000000038765, -0.5484675275943651 
4.070000000003853, -0.5478294812213164 
4.08000000000383, -0.547429609546896 
4.090000000003807, -0.5472179511486247 
4.100000000003783, -0.5471571257223259 
4.11000000000376, -0.5472205564028144 
4.120000000003737, -0.5473910527714432 
4.130000000003713, -0.5476597362653227 
4.14000000000369, -0.5480250739028 
4.150000000003667, -0.5484914608215581 
4.1600000000036434, -0.549066415282793 
4.17000000000362, -0.5497553441358942 
4.180000000003597, -0.5505535707604772 
4.1900000000035735, -0.5514373544847776 
4.20000000000355, -0.55235849215324 
4.210000000003527, -0.5532483524458494 
4.220000000003504, -0.5540333292673546 
4.23000000000348, -0.5546551478913425 
4.240000000003457, -0.5550842256771207 
4.250000000003434, -0.5553193831127745 
4.26000000000341, -0.5553773505639694 
4.270000000003387, -0.5552801389946379 
4.280000000003364, -0.5550456035204241 
4.2900000000033405, -0.5546819880975599 
4.300000000003317, -0.5541847790488055 
4.310000000003294, -0.5535337421504933 
4.320000000003271, -0.552688204128778 
4.330000000003247, -0.5515786368446601 
4.340000000003224, -0.5500925650705965 
4.350000000003201, -0.548054642186995 
4.360000000003177, -0.5452099855144164 
4.370000000003154, -0.5412445283734086 
4.380000000003131, -0.5359046576947989 
4.390000000003107, -0.5292349499564296 
4.400000000003084, -0.5217670960803843 
4.410000000003061, -0.5143863011261016 
4.4200000000030375, -0.507909227515542 
4.430000000003014, -0.5027602659153437 
4.440000000002991, -0.49896244354274205 
4.450000000002968, -0.4963092974113281 
4.460000000002944, -0.4945288419062737 
4.470000000002921, -0.49337284245413915 
4.480000000002898, -0.49264659426336904 
4.490000000002874, -0.49220897556380006 
4.500000000002851, -0.4919623109933178 
4.510000000002828, -0.4918410450787591 
4.520000000002804, -0.4918023562299001 
4.530000000002781, -0.49181934045108894 
4.540000000002758, -0.49187654260895697 
4.5500000000027345, -0.49196737315784783 
4.560000000002711, -0.4920927940690805 
4.570000000002688, -0.4922603731426931 
4.580000000002665, -0.4924824661935512 
4.590000000002641, -0.4927722812990126 
4.600000000002618, -0.4931373981562235 
4.610000000002595, -0.4935720731393044 
4.620000000002571, -0.4940517150729361 
4.630000000002548, -0.4945337515554466 
4.640000000002525, -0.494966813457615 
4.6500000000025015, -0.49530477351999097 
4.660000000002478, -0.4955180065077947 
4.670000000002455, -0.4955961646688559 
4.6800000000024315, -0.49554305046679287 
4.690000000002408, -0.495368324689343 
4.700000000002385, -0.49508014254029875 
4.710000000002362, -0.4946800017718037 
4.720000000002338, -0.4941589895402056 
4.730000000002315, -0.4934937640795793 
4.740000000002292, -0.4926402668625799 
4.750000000002268, -0.4915227353123817 
4.760000000002245, -0.4900154788188688 
4.770000000002222, -0.48791798297089367 
4.7800000000021985, -0.4849379612504997 
4.790000000002175, -0.48072978391663845 
4.800000000002152, -0.4750596977142895 
4.810000000002129, -0.4680791470844433 
4.820000000002105, -0.4604595345316886 
4.830000000002082, -0.45313586107018367 
4.840000000002059, -0.4468466783769699 
4.850000000002035, -0.4418952170407974 
4.860000000002012, -0.43822568787930294 
4.870000000001989, -0.43561205031198497 
4.880000000001965, -0.43379908969558245 
4.890000000001942, -0.43256730869577603 
4.900000000001919, -0.43174928586767825 
4.9100000000018955, -0.4312252154185316 
4.920000000001872, -0.4309127824787793 
