t, s[1].omega / s[0].omega 
0, -0.6799976990830683 
0.009999999999999995, -0.6797556941724857 
0.019999999999999934, -0.6794873856340269 
0.029999999999999874, -0.6791863223856008 
0.04000000000000012, -0.6788462193826718 
0.050000000000000405, -0.6784647354390692 
0.06000000000000069, -0.6780455106905012 
0.07000000000000098, -0.6775985907533248 
0.08000000000000126, -0.6771404804473338 
0.09000000000000155, -0.6766950212388484 
0.10000000000000184, -0.6762956050862341 
0.11000000000000212, -0.6759885396137749 
0.12000000000000241, -0.6758368585000784 
0.130000000000002, -0.6759234620693 
0.1400000000000009, -0.6763521019475521 
0.1499999999999998, -0.6772443333618045 
0.1599999999999987, -0.6787300270399684 
0.1699999999999976, -0.6809282994557374 
0.1799999999999965, -0.6839154873374109 
0.1899999999999954, -0.6876797527190761 
0.1999999999999943, -0.6920727362137039 
0.2099999999999932, -0.6967879448156806 
0.2199999999999921, -0.7014059276207517 
0.229999999999991, -0.7055144897618939 
0.2399999999999899, -0.7088423444007537 
0.2499999999999888, -0.7113169162989867 
0.2599999999999877, -0.7130225669514487 
0.2699999999999866, -0.7141144909918804 
0.2799999999999855, -0.7147492749146884 
0.2899999999999844, -0.7150515659543395 
0.2999999999999833, -0.7151066808965061 
0.3099999999999822, -0.7149641683902525 
0.3199999999999811, -0.7146428905274157 
0.32999999999998, -0.714133472367155 
0.3399999999999789, -0.7133966593746124 
0.3499999999999778, -0.7123572587738598 
0.35999999999997667, -0.7108945758869512 
0.36999999999997557, -0.7088336547005811 
0.37999999999997447, -0.7059496714091805 
0.38999999999997337, -0.7020099816512746 
0.39999999999997227, -0.6968800494152778 
0.40999999999997117, -0.6906764963492766 
0.41999999999997006, -0.6838593108249575 
0.42999999999996896, -0.677130702295077 
0.43999999999996786, -0.671165610998824 
0.44999999999996676, -0.6663745433407162 
0.45999999999996566, -0.6628468959762581 
0.46999999999996456, -0.6604416116104355 
0.47999999999996346, -0.65891457944596 
0.48999999999996235, -0.6580127731476566 
0.49999999999996125, -0.657521841041671 
0.5099999999999602, -0.6572799993903202 
0.519999999999959, -0.6571740759591913 
0.529999999999958, -0.6571287516559278 
0.5399999999999568, -0.6570950104292919 
0.5499999999999557, -0.6570404547076278 
0.5599999999999546, -0.656942372845616 
0.5699999999999535, -0.6567837202109621 
0.5799999999999524, -0.6565519234189778 
0.5899999999999513, -0.656240077715578 
0.5999999999999502, -0.6558493113317428 
0.6099999999999491, -0.6553901337667873 
0.619999999999948, -0.6548806281697447 
0.6299999999999469, -0.6543412797575869 
0.6399999999999458, -0.6537889197780136 
0.6499999999999447, -0.6532331656179836 
0.6599999999999436, -0.6526769378808795 
0.6699999999999425, -0.6521199555864811 
0.6799999999999414, -0.6515628368752789 
0.6899999999999403, -0.6510100935477847 
0.6999999999999392, -0.6504717665868733 
0.7099999999999381, -0.6499644010775978 
0.719999999999937, -0.6495121139029998 
0.7299999999999359, -0.6491480569086422 
0.7399999999999348, -0.6489160998240713 
0.7499999999999337, -0.6488722595224138 
0.7599999999999326, -0.6490852751707913 
0.7699999999999315, -0.6496356581299031 
0.7799999999999304, -0.6506123400883773 
0.7899999999999293, -0.6521054738685514 
0.7999999999999282, -0.6541929692271445 
0.8099999999999271, -0.6569176939542027 
0.819999999999926, -0.6602542554595127 
0.8299999999999249, -0.6640726605051481 
0.8399999999999238, -0.6681214453570209 
0.8499999999999227, -0.6720617818934616 
0.8599999999999216, -0.6755605638967711 
0.8699999999999205, -0.6783962017495959 
0.8799999999999194, -0.6805068373715434 
0.8899999999999183, -0.681959433802777 
0.8999999999999172, -0.6828811836259322 
0.9099999999999161, -0.6834021947155817 
0.919999999999915, -0.6836267034993491 
0.9299999999999139, -0.6836256713448711 
0.9399999999999128, -0.6834387478413284 
0.9499999999999117, -0.6830776228295277 
0.9599999999999106, -0.6825270241476772 
0.9699999999999095, -0.681741889032146 
0.9799999999999084, -0.6806403485647905 
0.9899999999999073, -0.6790937193556192 
0.9999999999999062, -0.67691893234534 
1.0099999999999052, -0.6738881420254341 
1.019999999999904, -0.669782111357509 
1.029999999999903, -0.6645084771635752 
1.039999999999902, -0.6582488049091658 
1.0499999999999008, -0.6515107386292616 
1.0599999999998997, -0.6449809860188116 
1.0699999999998986, -0.6392586358985024 
1.0799999999998975, -0.6346696405953934 
1.0899999999998964, -0.631255898156074 
1.0999999999998953, -0.6288738256544484 
1.1099999999998942, -0.6273043109420107 
1.119999999999893, -0.6263265799523687 
1.129999999999892, -0.6257534209941042 
1.1399999999998909, -0.6254409259125858 
1.1499999999998898, -0.625285318765422 
1.1599999999998887, -0.6252148865398153 
1.1699999999998876, -0.6251812374802767 
1.1799999999998865, -0.6251518164113158 
1.1899999999998854, -0.6251044235649057 
1.1999999999998843, -0.6250239381406706 
1.2099999999998832, -0.6249011238234184 
1.219999999999882, -0.6247329450717337 
1.229999999999881, -0.6245231532446776 
1.2399999999998799, -0.6242814560531428 
1.2499999999998788, -0.6240201934699419 
1.2599999999998777, -0.6237492862637547 
1.2699999999998766, -0.6234719963942309 
1.2799999999998755, -0.6231840034723992 
1.2899999999998744, -0.6228762703865403 
1.2999999999998733, -0.622539822914613 
1.3099999999998722, -0.6221698093108727 
1.319999999999871, -0.6217674161244668 
1.32999999999987, -0.621340064879801 
1.3399999999998689, -0.6209013115217392 
1.3499999999998678, -0.6204717433619666 
1.3599999999998666, -0.6200815663465477 
1.3699999999998655, -0.6197750607265571 
1.3799999999998644, -0.6196167296857196 
1.3899999999998633, -0.6196985441432287 
1.3999999999998622, -0.6201468742409032 
1.4099999999998611, -0.6211261076730921 
1.41999999999986, -0.6228331691228243 
1.429999999999859, -0.6254732516959941 
1.4399999999998578, -0.6292045532014571 
1.4499999999998567, -0.6340471195208758 
1.4599999999998556, -0.639781598882782 
1.4699999999998545, -0.6459140933095966 
1.4799999999998534, -0.6517921203730379 
1.4899999999998523, -0.6568468388746388 
1.4999999999998512, -0.660791219046204 
1.5099999999998501, -0.6636356866801361 
1.519999999999849, -0.6655652265447605 
1.529999999999848, -0.6668073170061161 
1.5399999999998468, -0.6675582278484947 
1.5499999999998457, -0.6679614958787716 
1.5599999999998446, -0.6681114453888204 
1.5699999999998435, -0.6680630056439416 
1.5799999999998424, -0.6678398233637342 
1.5899999999998413, -0.6674384375624931 
1.5999999999998402, -0.6668285252003996 
1.6099999999998391, -0.6659503650571287 
1.619999999999838, -0.6647124947024758 
1.629999999999837, -0.6629961346769192 
1.6399999999998358, -0.6606772180402721 
1.6499999999998347, -0.6576750633430746 
1.6599999999998336, -0.65401790040613 
1.6699999999998325, -0.6498839804047821 
1.6799999999998314, -0.6455723591021734 
1.6899999999998303, -0.641409194813678 
1.6999999999998292, -0.6376520647350123 
1.709999999999828, -0.6344460318681368 
1.719999999999827, -0.6318330185515525 
1.729999999999826, -0.6297853446151274 
1.7399999999998248, -0.6282386746117525 
1.7499999999998237, -0.627114950594575 
1.7599999999998226, -0.626335650333049 
1.7699999999998215, -0.6258285782413048 
1.7799999999998204, -0.625530963209111 
1.7899999999998193, -0.6253905272294056 
1.7999999999998182, -0.6253653909853613 
1.809999999999817, -0.6254233099173014 
1.819999999999816, -0.6255406094637684 
1.8299999999998149, -0.6257011058818805 
1.8399999999998138, -0.6258951082975477 
1.8499999999998127, -0.6261182458771141 
1.8599999999998116, -0.6263694882115706 
1.8699999999998105, -0.6266477202219943 
1.8799999999998094, -0.626947031464348 
1.8899999999998083, -0.6272523806905753 
1.8999999999998072, -0.6275384205599287 
1.909999999999806, -0.6277734736540765 
1.919999999999805, -0.6279275773257678 
1.9299999999998039, -0.627980365754436 
1.9399999999998028, -0.6279245563503945 
1.9499999999998017, -0.6277641826670435 
1.9599999999998006, -0.6275100741489209 
1.9699999999997995, -0.6271757699272007 
1.9799999999997984, -0.6267757532711935 
1.9899999999997973, -0.6263265702008171 
1.9999999999997962, -0.6258509547287543 
2.0099999999998173, -0.6253852753203234 
2.0199999999998384, -0.6249907838879808 
2.0299999999998595, -0.6247684621218403 
2.0399999999998806, -0.6248744873344382 
2.0499999999999017, -0.6255268470780904 
2.059999999999923, -0.6269832052202686 
2.069999999999944, -0.6294633480386332 
2.079999999999965, -0.6330107118017502 
2.089999999999986, -0.6373621611708065 
2.100000000000007, -0.6419705778334892 
2.1100000000000283, -0.6462393718430752 
2.1200000000000494, -0.6497885514706488 
2.1300000000000705, -0.6525266654933228 
2.1400000000000916, -0.6545439135854536 
2.1500000000001127, -0.65598587320647 
2.160000000000134, -0.6569878420160766 
2.170000000000155, -0.6576567922383777 
2.180000000000176, -0.65807182950337 
2.190000000000197, -0.6582884513816061 
2.2000000000002182, -0.6583423132163366 
2.2100000000002393, -0.6582517259512923 
2.2200000000002604, -0.6580188941818929 
2.2300000000002815, -0.6576302310768672 
2.2400000000003026, -0.6570566980627899 
2.2500000000003237, -0.6562562037061568 
2.260000000000345, -0.6551812720694452 
2.270000000000366, -0.6537948077294462 
2.280000000000387, -0.6520921947232802 
2.290000000000408, -0.6501194253989612 
2.3000000000004293, -0.6479727321769081 
2.3100000000004504, -0.6457751695627458 
2.3200000000004715, -0.6436434376264057 
2.3300000000004926, -0.6416642143292035 
2.3400000000005137, -0.6398882636070808 
2.3500000000005348, -0.6383374176826833 
2.360000000000556, -0.6370155181311706 
2.370000000000577, -0.6359174788206231 
2.380000000000598, -0.6350347429582874 
2.390000000000619, -0.6343577329097514 
2.4000000000006403, -0.6338765440234203 
2.4100000000006614, -0.6335809690486272 
2.4200000000006825, -0.6334605454195439 
2.4300000000007036, -0.6335049353046611 
2.4400000000007247, -0.6337046447025758 
2.450000000000746, -0.6340518670881946 
2.460000000000767, -0.6345410677716032 
2.470000000000788, -0.6351687536856555 
2.480000000000809, -0.6359316925928341 
2.49000000000083, -0.6368228307576868 
2.5000000000008513, -0.6378247615257988 
2.5100000000008724, -0.6389023274295136 
2.5200000000008935, -0.6399985176445429 
2.5300000000009146, -0.6410390721832692 
2.5400000000009357, -0.6419477491058462 
2.550000000000957, -0.6426661751309756 
2.560000000000978, -0.6431668991861035 
2.570000000000999, -0.6434527991528144 
2.58000000000102, -0.6435460355285205 
2.5900000000010412, -0.6434748343921775 
2.6000000000010624, -0.643263923293383 
2.6100000000010835, -0.6429298041675393 
2.6200000000011046, -0.6424795204876526 
2.6300000000011257, -0.6419113680472748 
2.6400000000011468, -0.6412167405444339 
2.650000000001168, -0.6403829840980299 
2.660000000001189, -0.6393972044856395 
2.67000000000121, -0.6382498745722112 
2.680000000001231, -0.6369345024388176 
2.6900000000012523, -0.6354377298510998 
2.7000000000012734, -0.6337218369512385 
2.7100000000012945, -0.6317280602375556 
2.7200000000013156, -0.6294457806653095 
2.7300000000013367, -0.6270210429320955 
2.740000000001358, -0.6247614966090851 
2.750000000001379, -0.6229735472697501 
2.7600000000014, -0.6217927795030194 
2.770000000001421, -0.6211636160055867 
2.780000000001442, -0.6209300059003104 
2.7900000000014633, -0.620927585425737 
2.8000000000014844, -0.6210291381962835 
2.8100000000015055, -0.6211518840730261 
2.8200000000015266, -0.6212477831209359 
2.8300000000015477, -0.6212906204874432 
2.840000000001569, -0.6212653488281319 
2.85000000000159, -0.621160773033927 
2.860000000001611, -0.6209652332971034 
2.870000000001632, -0.6206649586907624 
2.8800000000016532, -0.6202452109092365 
2.8900000000016743, -0.619694445153465 
2.9000000000016954, -0.619010762491343 
2.9100000000017165, -0.6182078612129015 
2.9200000000017377, -0.61731621978581 
2.9300000000017588, -0.6163770532436417 
2.94000000000178, -0.6154315306183511 
2.950000000001801, -0.6145112789791145 
2.960000000001822, -0.6136347254750365 
2.970000000001843, -0.6128093796476632 
2.9800000000018643, -0.6120370890582197 
2.9900000000018854, -0.6113192077837539 
3.0000000000019065, -0.6106601944350667 
3.0100000000019276, -0.6100696508450085 
3.0200000000019487, -0.6095634466040836 
3.03000000000197, -0.6091645011933835 
3.040000000001991, -0.6089034762677901 
3.050000000002012, -0.6088193759642151 
3.060000000002033, -0.6089599282180242 
3.070000000002054, -0.6093815331803925 
3.0800000000020753, -0.6101483498702909 
3.0900000000020964, -0.6113295603947692 
3.1000000000021175, -0.6129928894498794 
3.1100000000021386, -0.6151913105814966 
3.1200000000021597, -0.6179397592992836 
3.130000000002181, -0.6211824684018786 
3.140000000002202, -0.6247625148914641 
3.150000000002223, -0.628419937318877 
3.160000000002244, -0.6318441069274321 
3.1700000000022652, -0.634769394347082 
3.1800000000022863, -0.6370557506589656 
3.1900000000023074, -0.6387014903310797 
3.2000000000023285, -0.6397956877453396 
3.2100000000023496, -0.6404572011583485 
3.2200000000023707, -0.6407938140563816 
3.230000000002392, -0.6408855669884163 
3.240000000002413, -0.6407823979269734 
3.250000000002434, -0.6405065086395646 
3.260000000002455, -0.6400540538407103 
3.2700000000024763, -0.6393937998941122 
3.2800000000024974, -0.6384619930847777 
3.2900000000025185, -0.6371541556843593 
3.3000000000025396, -0.6353178937295471 
3.3100000000025607, -0.6327581893809247 
3.3200000000025818, -0.6292765897057213 
3.330000000002603, -0.6247635814241496 
3.340000000002624, -0.6193217935277968 
3.350000000002645, -0.6133265599789759 
3.360000000002666, -0.6073316405188733 
3.3700000000026873, -0.6018628115163942 
3.3800000000027084, -0.5972529867675764 
3.3900000000027295, -0.593608781801761 
3.4000000000027506, -0.5908724708845513 
3.4100000000027717, -0.5889043000235505 
3.420000000002793, -0.5875431901553578 
3.430000000002814, -0.5866395632112468 
3.440000000002835, -0.5860684320859738 
3.450000000002856, -0.5857317027867234 
3.460000000002877, -0.5855555963437078 
3.4700000000028983, -0.5854863857250787 
3.4800000000029194, -0.5854860207999429 
3.4900000000029405, -0.5855283894607164 
3.5000000000029616, -0.5855965467808857 
3.5100000000029827, -0.5856809511785828 
3.520000000003004, -0.5857783925166906 
3.530000000003025, -0.5858908518523631 
3.540000000003046, -0.586023248901858 
3.550000000003067, -0.586179407464207 
3.5600000000030882, -0.5863568642259179 
3.5700000000031094, -0.5865427749076823 
3.5800000000031305, -0.586713748978274 
3.5900000000031516, -0.5868408263627496 
3.6000000000031727, -0.5868975389123462 
3.6100000000031938, -0.5868667035155343 
3.620000000003215, -0.5867426477379291 
3.630000000003236, -0.5865289870276774 
3.640000000003257, -0.5862345663719623 
3.650000000003278, -0.5858701976427655 
3.6600000000032993, -0.5854475359599314 
3.6700000000033204, -0.5849804320052467 
3.6800000000033415, -0.584488854922692 
3.6900000000033626, -0.5840056435425209 
3.7000000000033837, -0.5835862655397122 
3.710000000003405, -0.5833205333675817 
3.720000000003426, -0.5833414328808291 
3.730000000003447, -0.5838185531207152 
3.740000000003468, -0.5849148135581153 
3.750000000003489, -0.5866914460635206 
3.7600000000035103, -0.5889972985855784 
3.7700000000035314, -0.5914602608920594 
3.7800000000035525, -0.5936690125201058 
3.7900000000035736, -0.5954081979604403 
3.8000000000035947, -0.5967044264100744 
3.810000000003616, -0.5976875932967878 
3.820000000003637, -0.5984636059207256 
3.830000000003658, -0.5990844717956948 
3.840000000003679, -0.599569726355747 
3.8500000000037002, -0.5999286253848661 
3.8600000000037213, -0.6001695766662242 
3.8700000000037424, -0.6003010776714356 
3.8800000000037635, -0.6003296564565866 
3.8900000000037847, -0.600257569279885 
3.9000000000038058, -0.600081166654311 
3.910000000003827, -0.5997903123534759 
3.920000000003848, -0.5993694662134107 
3.930000000003869, -0.5988014013407392 
3.94000000000389, -0.5980742096995386 
3.9500000000039113, -0.5971903919188157 
3.9600000000039324, -0.5961737821913602 
3.9700000000039535, -0.5950687901434659 
3.9800000000039746, -0.5939302514707292 
3.9900000000039957, -0.5928090250087336 
4.000000000004016, -0.5917414027688677 
4.010000000003993, -0.5907466110011771 
4.02000000000397, -0.5898309161934283 
4.030000000003946, -0.5889942116716388 
4.040000000003923, -0.5882358141222629 
4.0500000000039, -0.5875582532811364 
4.0600000000038765, -0.5869693213447926 
4.070000000003853, -0.5864831387441842 
4.08000000000383, -0.5861208512487593 
4.090000000003807, -0.5859112649414715 
4.100000000003783, -0.585891494163335 
4.11000000000376, -0.5861075600392296 
4.120000000003737, -0.5866147229707449 
4.130000000003713, -0.5874769925347028 
4.14000000000369, -0.5887645489618474 
4.150000000003667, -0.5905466463154284 
4.1600000000036434, -0.592876318292941 
4.17000000000362, -0.5957634748516231 
4.180000000003597, -0.5991383036872693 
4.1900000000035735, -0.6028205600666254 
4.20000000000355, -0.6065258956801756 
4.210000000003527, -0.6099331092498438 
4.220000000003504, -0.612788781531368 
4.23000000000348, -0.6149804651665279 
4.240000000003457, -0.6165329551162978 
4.250000000003434, -0.6175502853613757 
4.26000000000341, -0.6181548854081422 
4.270000000003387, -0.6184516453431462 
4.280000000003364, -0.6185155106390711 
4.2900000000033405, -0.618391218814131 
4.300000000003317, -0.6180961788095474 
4.310000000003294, -0.6176219305784307 
4.320000000003271, -0.6169324436142454 
4.330000000003247, -0.6159591209064478 
4.340000000003224, -0.6145943834310567 
4.350000000003201, -0.6126900444206025 
4.360000000003177, -0.6100741081090097 
4.370000000003154, -0.6066044323683927 
4.380000000003131, -0.6022617921658717 
4.390000000003107, -0.5972354465060195 
4.400000000003084, -0.591916062283373 
4.410000000003061, -0.586767458881224 
4.4200000000030375, -0.5821647833600834 
4.430000000003014, -0.578309112688912 
4.440000000002991, -0.575239399033747 
4.450000000002968, -0.572891485238747 
4.460000000002944, -0.5711555095876137 
4.470000000002921, -0.5699132015184277 
4.480000000002898, -0.5690565164458022 
4.490000000002874, -0.5684945468707557 
4.500000000002851, -0.5681544847468202 
4.510000000002828, -0.5679800606213787 
4.520000000002804, -0.5679291776707853 
4.530000000002781, -0.5679715321583739 
4.540000000002758, -0.5680865747096908 
4.5500000000027345, -0.5682619326778895 
4.560000000002711, -0.5684921813793417 
4.570000000002688, -0.5687775218146596 
4.580000000002665, -0.5691215683340719 
4.590000000002641, -0.5695273985429978 
4.600000000002618, -0.5699917363081822 
4.610000000002595, -0.5704987775093017 
4.620000000002571, -0.5710169729333661 
4.630000000002548, -0.5715022596725987 
4.640000000002525, -0.5719081677237414 
4.6500000000025015, -0.5721981866031588 
4.660000000002478, -0.5723534992087232 
4.670000000002455, -0.5723726275975483 
4.6800000000024315, -0.5722651865052529 
4.690000000002408, -0.5720443856544166 
4.700000000002385, -0.5717214576493612 
4.710000000002362, -0.5713027380346376 
4.720000000002338, -0.5707887635125167 
4.730000000002315, -0.5701745277233686 
4.740000000002292, -0.5694501770906378 
4.750000000002268, -0.5686012340074027 
4.760000000002245, -0.5676063408277873 
4.770000000002222, -0.5664284114947872 
4.7800000000021985, -0.5649943159976684 
4.790000000002175, -0.5631679607849287 
4.800000000002152, -0.5607544389969579 
4.810000000002129, -0.5576041949294813 
4.820000000002105, -0.5538104332032895 
4.830000000002082, -0.5498004619670359 
4.840000000002059, -0.5461419315230549 
4.850000000002035, -0.5432339239037217 
4.860000000002012, -0.5411784591244562 
4.870000000001989, -0.5398611364633544 
4.880000000001965, -0.5390869828348421 
4.890000000001942, -0.5386700643822274 
4.900000000001919, -0.5384673244866006 
4.9100000000018955, -0.5383804620965216 
4.920000000001872, -0.5383461771065146 
