t, s[1].omega / s[0].omega 
0, -0.7599976680330608 
0.009999999999999995, -0.7597404947178573 
0.019999999999999934, -0.7594352533086296 
0.029999999999999874, -0.7590811129332167 
0.04000000000000012, -0.7586792239247603 
0.050000000000000405, -0.758234802803822 
0.06000000000000069, -0.7577582471708352 
0.07000000000000098, -0.7572655254585848 
0.08000000000000126, -0.7567785583626006 
0.09000000000000155, -0.7563259817491158 
0.10000000000000184, -0.7559440186554249 
0.11000000000000212, -0.7556766776247971 
0.12000000000000241, -0.7555743922646827 
0.130000000000002, -0.7556905878042359 
0.1400000000000009, -0.7560763551074681 
0.1499999999999998, -0.7567740261509345 
0.1599999999999987, -0.7578105159766937 
0.1699999999999976, -0.7591907373626767 
0.1799999999999965, -0.7608907945150969 
0.1899999999999954, -0.7628511206346733 
0.1999999999999943, -0.7649720887709747 
0.2099999999999932, -0.767118028239806 
0.2199999999999921, -0.7691360465518414 
0.229999999999991, -0.7708887114175709 
0.2399999999999899, -0.7722869231912645 
0.2499999999999888, -0.7733045525046414 
0.2599999999999877, -0.7739683298055586 
0.2699999999999866, -0.7743333983311016 
0.2799999999999855, -0.774459859492671 
0.2899999999999844, -0.7743984326276803 
0.2999999999999833, -0.7741850704376967 
0.3099999999999822, -0.7738411045635252 
0.3199999999999811, -0.7733761257056968 
0.32999999999998, -0.7727926417097013 
0.3399999999999789, -0.7720932390114702 
0.3499999999999778, -0.7712920713602335 
0.35999999999997667, -0.7704323807654098 
0.36999999999997557, -0.769608792330107 
0.37999999999997447, -0.7689851554058272 
0.38999999999997337, -0.7687868048207062 
0.39999999999997227, -0.7692422859497519 
0.40999999999997117, -0.7704766899895455 
0.41999999999997006, -0.7724174076640191 
0.42999999999996896, -0.7747981646190167 
0.43999999999996786, -0.7772724041665355 
0.44999999999996676, -0.7795467965724415 
0.45999999999996566, -0.7814494030391657 
0.46999999999996456, -0.7829251976878467 
0.47999999999996346, -0.7839967739926436 
0.48999999999996235, -0.7847230368627486 
0.49999999999996125, -0.785169917054896 
0.5099999999999602, -0.785394302683404 
0.519999999999959, -0.785437184297068 
0.529999999999958, -0.7853214469282632 
0.5399999999999568, -0.7850509547650939 
0.5499999999999557, -0.7846089837757952 
0.5599999999999546, -0.783955295646589 
0.5699999999999535, -0.7830226094326211 
0.5799999999999524, -0.7817156414827814 
0.5899999999999513, -0.7799194732228595 
0.5999999999999502, -0.7775264752060703 
0.6099999999999491, -0.7744855894470954 
0.619999999999948, -0.770858343009895 
0.6299999999999469, -0.7668439035536335 
0.6399999999999458, -0.7627424283842585 
0.6499999999999447, -0.758870231319046 
0.6599999999999436, -0.7554765941492549 
0.6699999999999425, -0.7527012727964391 
0.6799999999999414, -0.7505758205720785 
0.6899999999999403, -0.7490502487749442 
0.6999999999999392, -0.7480265104829756 
0.7099999999999381, -0.747388211426588 
0.719999999999937, -0.7470222435537226 
0.7299999999999359, -0.7468314550971706 
0.7399999999999348, -0.746739419867462 
0.7499999999999337, -0.7466895339817781 
0.7599999999999326, -0.7466410415009375 
0.7699999999999315, -0.7465642664182492 
0.7799999999999304, -0.7464366754937972 
0.7899999999999293, -0.746240737251417 
0.7999999999999282, -0.7459638935248589 
0.8099999999999271, -0.7456001252925589 
0.819999999999926, -0.7451516254724121 
0.8299999999999249, -0.7446286933266044 
0.8399999999999238, -0.7440469850423379 
0.8499999999999227, -0.7434232952545041 
0.8599999999999216, -0.7427722680288883 
0.8699999999999205, -0.742105634100831 
0.8799999999999194, -0.7414336997458089 
0.8899999999999183, -0.7407676783549844 
0.8999999999999172, -0.7401216568266324 
0.9099999999999161, -0.739513761526302 
0.919999999999915, -0.7389665599408178 
0.9299999999999139, -0.7385067319112841 
0.9399999999999128, -0.7381639027045629 
0.9499999999999117, -0.7379685738146888 
0.9599999999999106, -0.7379493697530972 
0.9699999999999095, -0.7381301436447465 
0.9799999999999084, -0.7385275710391439 
0.9899999999999073, -0.7391495555282475 
0.9999999999999062, -0.7399941731518047 
1.0099999999999052, -0.7410483226822595 
1.019999999999904, -0.7422851595295556 
1.029999999999903, -0.7436602072448775 
1.039999999999902, -0.7451079633512816 
1.0499999999999008, -0.7465431128033488 
1.0599999999998997, -0.7478707110141143 
1.0699999999998986, -0.7490051435018178 
1.0799999999998975, -0.7498899159142014 
1.0899999999998964, -0.7505071709668533 
1.0999999999998953, -0.7508724264299567 
1.1099999999998942, -0.7510200530537258 
1.119999999999893, -0.7509885874572667 
1.129999999999892, -0.7508113129488649 
1.1399999999998909, -0.7505126802185655 
1.1499999999998898, -0.7501089742563868 
1.1599999999998887, -0.7496119171060018 
1.1699999999998876, -0.749035096971382 
1.1799999999998865, -0.7484041796776226 
1.1899999999998854, -0.7477720563738264 
1.1999999999998843, -0.7472382949657314 
1.2099999999998832, -0.7469668170700179 
1.219999999999882, -0.7471860043145351 
1.229999999999881, -0.7481468318131523 
1.2399999999998799, -0.7500241550131411 
1.2499999999998788, -0.7527928132657382 
1.2599999999998777, -0.7561709112927597 
1.2699999999998766, -0.7597087953393864 
1.2799999999998755, -0.7629763784175506 
1.2899999999998744, -0.765706391095037 
1.2999999999998733, -0.7678161499843228 
1.3099999999998722, -0.7693480992667506 
1.319999999999871, -0.7703993638449438 
1.32999999999987, -0.7710743680724313 
1.3399999999998689, -0.7714619866147492 
1.3499999999998678, -0.7716280693521328 
1.3599999999998666, -0.7716149992967156 
1.3699999999998655, -0.7714431473491425 
1.3799999999998644, -0.7711115876506567 
1.3899999999998633, -0.7705969536028434 
1.3999999999998622, -0.7698504145085774 
1.4099999999998611, -0.7687942640598895 
1.41999999999986, -0.7673223765603983 
1.429999999999859, -0.7653127079227112 
1.4399999999998578, -0.7626616164007485 
1.4499999999998567, -0.759340740598666 
1.4599999999998556, -0.7554530448012373 
1.4699999999998545, -0.7512444194794449 
1.4799999999998534, -0.7470462836223775 
1.4899999999998523, -0.7431780289794119 
1.4999999999998512, -0.7398670074759923 
1.5099999999998501, -0.73721912026034 
1.519999999999849, -0.7352331052217141 
1.529999999999848, -0.7338348777790977 
1.5399999999998468, -0.7329132472030611 
1.5499999999998457, -0.7323482009438248 
1.5599999999998446, -0.732029388962416 
1.5699999999998435, -0.7318654624849091 
1.5799999999998424, -0.7317862930196142 
1.5899999999998413, -0.7317406394480586 
1.5999999999998402, -0.7316917320515209 
1.6099999999998391, -0.7316127145054968 
1.619999999999838, -0.7314832380962443 
1.629999999999837, -0.7312879072913729 
1.6399999999998358, -0.7310166390600348 
1.6499999999998347, -0.7306661557858953 
1.6599999999998336, -0.730241006072236 
1.6699999999998325, -0.7297525009435654 
1.6799999999998314, -0.7292153353959111 
1.6899999999998303, -0.7286435697074936 
1.6999999999998292, -0.7280482523814439 
1.709999999999828, -0.7274376803352102 
1.719999999999827, -0.7268194962361916 
1.729999999999826, -0.726203117474388 
1.7399999999998248, -0.7256015324019789 
1.7499999999998237, -0.7250323328077182 
1.7599999999998226, -0.7245182016525256 
1.7699999999998215, -0.7240869237033809 
1.7799999999998204, -0.723770728497919 
1.7899999999998193, -0.7236047292673139 
1.7999999999998182, -0.7236244490817898 
1.809999999999817, -0.723862763596074 
1.819999999999816, -0.724346767136376 
1.8299999999998149, -0.7250948771629061 
1.8399999999998138, -0.7261139546579974 
1.8499999999998127, -0.7273956593453658 
1.8599999999998116, -0.7289112604718639 
1.8699999999998105, -0.730605367296538 
1.8799999999998094, -0.7323917832304189 
1.8899999999998083, -0.7341575271026226 
1.8999999999998072, -0.7357801190056883 
1.909999999999806, -0.7371552425009 
1.919999999999805, -0.7382214902078164 
1.9299999999998039, -0.73896800221595 
1.9399999999998028, -0.7394228959345281 
1.9499999999998017, -0.739632817685335 
1.9599999999998006, -0.7396452192197124 
1.9699999999997995, -0.7394982828430052 
1.9799999999997984, -0.739217537935132 
1.9899999999997973, -0.7388164353418326 
1.9999999999997962, -0.738298977830068 
2.0099999999998173, -0.737663984161137 
2.0199999999998384, -0.73691180061585 
2.0299999999998595, -0.7360548819790533 
2.0399999999998806, -0.7351329011070793 
2.0499999999999017, -0.7342294567207618 
2.059999999999923, -0.7334800824320288 
2.069999999999944, -0.7330540652271643 
2.079999999999965, -0.7330991205389188 
2.089999999999986, -0.7336702369852508 
2.100000000000007, -0.7346966490571553 
2.1100000000000283, -0.7360168909198281 
2.1200000000000494, -0.7374459136195778 
2.1300000000000705, -0.7388242155124656 
2.1400000000000916, -0.740039605272832 
2.1500000000001127, -0.7410319033381445 
2.160000000000134, -0.74178554097922 
2.170000000000155, -0.7423144126420624 
2.180000000000176, -0.7426457499924785 
2.190000000000197, -0.7428077960602637 
2.2000000000002182, -0.7428222148140555 
2.2100000000002393, -0.742699886915964 
2.2200000000002604, -0.742438325044361 
2.2300000000002815, -0.7420195127211628 
2.2400000000003026, -0.7414080026184359 
2.2500000000003237, -0.740550601168504 
2.260000000000345, -0.7393809010226361 
2.270000000000366, -0.7378332214589493 
2.280000000000387, -0.7358681268121892 
2.290000000000408, -0.7335027394759444 
2.3000000000004293, -0.7308280955595106 
2.3100000000004504, -0.7279970277137994 
2.3200000000004715, -0.7251856296856347 
2.3300000000004926, -0.7225507377178279 
2.3400000000005137, -0.7202041652192308 
2.3500000000005348, -0.7182077448710966 
2.360000000000556, -0.7165810652199721 
2.370000000000577, -0.7153128037264874 
2.380000000000598, -0.7143709410397354 
2.390000000000619, -0.7137108970110887 
2.4000000000006403, -0.7132820724867303 
2.4100000000006614, -0.7130332030947865 
2.4200000000006825, -0.7129164739719887 
2.4300000000007036, -0.7128901642527776 
2.4400000000007247, -0.7129197899267522 
2.450000000000746, -0.7129780700095141 
2.460000000000767, -0.7130442794597794 
2.470000000000788, -0.713103508444258 
2.480000000000809, -0.7131460037285724 
2.49000000000083, -0.7131662865349253 
2.5000000000008513, -0.7131615096117154 
2.5100000000008724, -0.7131289547182983 
2.5200000000008935, -0.7130635783203736 
2.5300000000009146, -0.7129571685830336 
2.5400000000009357, -0.7128000174050986 
2.550000000000957, -0.7125843088807604 
2.560000000000978, -0.7123072352701653 
2.570000000000999, -0.7119723491065177 
2.58000000000102, -0.7115892573540499 
2.5900000000010412, -0.7111729239898481 
2.6000000000010624, -0.7107438635108673 
2.6100000000010835, -0.7103298302477137 
2.6200000000011046, -0.7099688816126867 
2.6300000000011257, -0.7097131309234646 
2.6400000000011468, -0.7096320294958564 
2.650000000001168, -0.7098135799234112 
2.660000000001189, -0.7103615601693563 
2.67000000000121, -0.7113867218532068 
2.680000000001231, -0.7129900507034936 
2.6900000000012523, -0.7152368380705502 
2.7000000000012734, -0.718122805350928 
2.7100000000012945, -0.7215402091864187 
2.7200000000013156, -0.725262884705619 
2.7300000000013367, -0.7289752073516833 
2.740000000001358, -0.7323524389024036 
2.750000000001379, -0.7351578458855731 
2.7600000000014, -0.7372975237645197 
2.770000000001421, -0.7388057134121663 
2.780000000001442, -0.7397877253766434 
2.7900000000014633, -0.7403642485401112 
2.8000000000014844, -0.7406388161513139 
2.8100000000015055, -0.7406864962943531 
2.8200000000015266, -0.7405538320453204 
2.8300000000015477, -0.740262079497835 
2.840000000001569, -0.7398096470342284 
2.85000000000159, -0.7391721770877469 
2.860000000001611, -0.7382999934715045 
2.870000000001632, -0.7371136074033844 
2.8800000000016532, -0.735499758335987 
2.8900000000016743, -0.7333143209541401 
2.9000000000016954, -0.7304047242231917 
2.9100000000017165, -0.7266684823052176 
2.9200000000017377, -0.7221497170028011 
2.9300000000017588, -0.7171261149644775 
2.94000000000178, -0.7120912698854226 
2.950000000001801, -0.7075891467099727 
2.960000000001822, -0.7040020156827524 
2.970000000001843, -0.7014455655220851 
2.9800000000018643, -0.6998112789257498 
2.9900000000018854, -0.6988790071621594 
3.0000000000019065, -0.6984158225842253 
3.0100000000019276, -0.6982291933621687 
3.0200000000019487, -0.6981814425607715 
3.03000000000197, -0.6981832493605837 
3.040000000001991, -0.6981800916608664 
3.050000000002012, -0.6981389652171633 
3.060000000002033, -0.6980380528457487 
3.070000000002054, -0.6978597454068834 
3.0800000000020753, -0.6975867794205163 
3.0900000000020964, -0.6972014152893625 
3.1000000000021175, -0.6966877763801406 
3.1100000000021386, -0.696036962614879 
3.1200000000021597, -0.6952529989957618 
3.130000000002181, -0.6943560488467481 
3.140000000002202, -0.6933798538739405 
3.150000000002223, -0.6923639326268771 
3.160000000002244, -0.6913448179361018 
3.1700000000022652, -0.6903508150973715 
3.1800000000022863, -0.6894016406149849 
3.1900000000023074, -0.68851126436212 
3.2000000000023285, -0.6876914745448259 
3.2100000000023496, -0.686954567077988 
3.2200000000023707, -0.6863146893964986 
3.230000000002392, -0.6857879928878585 
3.240000000002413, -0.6853919174552029 
3.250000000002434, -0.6851439451961367 
3.260000000002455, -0.6850601796307267 
3.2700000000024763, -0.685154108273901 
3.2800000000024974, -0.6854357979850494 
3.2900000000025185, -0.6859115102888979 
3.3000000000025396, -0.6865833525568639 
3.3100000000025607, -0.687448219502391 
3.3200000000025818, -0.6884951223808626 
3.330000000002603, -0.6897003789946822 
3.340000000002624, -0.6910214858193453 
3.350000000002645, -0.6923928879240948 
3.360000000002666, -0.693728915323578 
3.3700000000026873, -0.6949376241145018 
3.3800000000027084, -0.6959422495766943 
3.3900000000027295, -0.6966992781957154 
3.4000000000027506, -0.6972028670097506 
3.4100000000027717, -0.6974752214449343 
3.420000000002793, -0.6975511648496636 
3.430000000002814, -0.6974651855437626 
3.440000000002835, -0.6972441661188616 
3.450000000002856, -0.6969049574806354 
3.460000000002877, -0.6964548724626219 
3.4700000000028983, -0.6958938399758902 
3.4800000000029194, -0.6952180147218571 
3.4900000000029405, -0.6944254176383426 
3.5000000000029616, -0.6935242726742841 
3.5100000000029827, -0.6925434077310865 
3.520000000003004, -0.6915406004670209 
3.530000000003025, -0.690600117322177 
3.540000000003046, -0.6898114440993897 
3.550000000003067, -0.6892369192045991 
3.5600000000030882, -0.688897443935966 
3.5700000000031094, -0.6887919411186123 
3.5800000000031305, -0.6889165203448543 
3.5900000000031516, -0.6892498955695053 
3.6000000000031727, -0.6897328415480728 
3.6100000000031938, -0.6902787808689099 
3.620000000003215, -0.6908044773149624 
3.630000000003236, -0.6912518314026102 
3.640000000003257, -0.6915913322522934 
3.650000000003278, -0.6918142866320794 
3.6600000000032993, -0.6919225827720441 
3.6700000000033204, -0.6919203386913925 
3.6800000000033415, -0.6918082228666375 
3.6900000000033626, -0.6915798372590722 
3.7000000000033837, -0.6912195788298343 
3.710000000003405, -0.6907021305140506 
3.720000000003426, -0.6899947479651719 
3.730000000003447, -0.6890641705441847 
3.740000000003468, -0.6878889978001533 
3.750000000003489, -0.6864745541871462 
3.7600000000035103, -0.6848623414063105 
3.7700000000035314, -0.6831260298865256 
3.7800000000035525, -0.6813541054637887 
3.7900000000035736, -0.6796289915623881 
3.8000000000035947, -0.6780134658005664 
3.810000000003616, -0.6765478010635768 
3.820000000003637, -0.675254072456753 
3.830000000003658, -0.674142426348081 
3.840000000003679, -0.6732160653067089 
3.8500000000037002, -0.6724740608595797 
3.8600000000037213, -0.6719124517348243 
3.8700000000037424, -0.6715244810038318 
3.8800000000037635, -0.6713007130356898 
3.8900000000037847, -0.6712294675166958 
3.9000000000038058, -0.6712976774946435 
3.910000000003827, -0.6714920120917109 
3.920000000003848, -0.671799943671178 
3.930000000003869, -0.6722103652099269 
3.94000000000389, -0.6727133214007632 
3.9500000000039113, -0.673298409068629 
3.9600000000039324, -0.6739516038853803 
3.9700000000039535, -0.6746510008998086 
3.9800000000039746, -0.6753633024534638 
3.9900000000039957, -0.6760440580467961 
4.000000000004016, -0.6766439243825928 
4.010000000003993, -0.6771196122758141 
4.02000000000397, -0.6774440600325329 
4.030000000003946, -0.6776101815152601 
4.040000000003923, -0.6776271100189389 
4.0500000000039, -0.6775125730104129 
4.0600000000038765, -0.6772858828785032 
4.070000000003853, -0.6769639221392388 
4.08000000000383, -0.6765603912009317 
4.090000000003807, -0.6760878440566972 
4.100000000003783, -0.6755623228819669 
4.11000000000376, -0.6750109330697212 
4.120000000003737, -0.6744827729797099 
4.130000000003713, -0.6740624202956684 
4.14000000000369, -0.6738815390798154 
4.150000000003667, -0.6741174609299004 
4.1600000000036434, -0.674960890653069 
4.17000000000362, -0.6765402310990687 
4.180000000003597, -0.6788246321015483 
4.1900000000035735, -0.6815799374647977 
4.20000000000355, -0.6844459907793661 
4.210000000003527, -0.6870933628529954 
4.220000000003504, -0.6893309905797169 
4.23000000000348, -0.6911061874914183 
4.240000000003457, -0.6924489515969594 
4.250000000003434, -0.693421973072934 
4.26000000000341, -0.694092999578343 
4.270000000003387, -0.6945224764066742 
4.280000000003364, -0.6947586056637169 
4.2900000000033405, -0.6948357449696506 
4.300000000003317, -0.6947741439345915 
4.310000000003294, -0.6945798829715244 
4.320000000003271, -0.6942444464287095 
4.330000000003247, -0.6937440214274144 
4.340000000003224, -0.6930395963385868 
4.350000000003201, -0.6920803068927672 
4.360000000003177, -0.6908135720926012 
4.370000000003154, -0.6892042370856756 
4.380000000003131, -0.6872586931947103 
4.390000000003107, -0.6850410099885718 
4.400000000003084, -0.6826668631094148 
4.410000000003061, -0.6802748072916438 
4.4200000000030375, -0.6779915649172329 
4.430000000003014, -0.6759096906364077 
4.440000000002991, -0.674083007597787 
4.450000000002968, -0.6725335777537021 
4.460000000002944, -0.6712617925739225 
4.470000000002921, -0.6702547087167348 
4.480000000002898, -0.6694914866634054 
4.490000000002874, -0.6689466590180866 
4.500000000002851, -0.6685922969689961 
4.510000000002828, -0.6683997910667124 
4.520000000002804, -0.6683414936277144 
4.530000000002781, -0.6683921573905108 
4.540000000002758, -0.6685300097646311 
4.5500000000027345, -0.6687373494292499 
4.560000000002711, -0.6690006037277696 
4.570000000002688, -0.6693097298171048 
4.580000000002665, -0.6696567032460286 
4.590000000002641, -0.6700328504366622 
4.600000000002618, -0.6704252963598102 
4.610000000002595, -0.6708138671165893 
4.620000000002571, -0.6711706750101181 
4.630000000002548, -0.6714640048869878 
4.640000000002525, -0.6716655405085683 
4.6500000000025015, -0.6717572322292868 
4.660000000002478, -0.6717340794883409 
4.670000000002455, -0.6716020956387072 
4.6800000000024315, -0.6713737737278703 
4.690000000002408, -0.6710640320109587 
4.700000000002385, -0.6706884160108547 
4.710000000002362, -0.670264055829973 
4.720000000002338, -0.6698133922820297 
4.730000000002315, -0.6693707747024307 
4.740000000002292, -0.6689920876301979 
4.750000000002268, -0.6687669076154081 
4.760000000002245, -0.6688305373455813 
4.770000000002222, -0.6693688401068718 
4.7800000000021985, -0.6706024461651271 
4.790000000002175, -0.672733116904941 
4.800000000002152, -0.6758462300632335 
4.810000000002129, -0.6798036881233888 
4.820000000002105, -0.6842135590814324 
4.830000000002082, -0.688548197493748 
4.840000000002059, -0.6923554416296244 
4.850000000002035, -0.695403716565042 
4.860000000002012, -0.6976776913994558 
4.870000000001989, -0.6992857041058317 
4.880000000001965, -0.7003714157515437 
4.890000000001942, -0.7010655084626048 
4.900000000001919, -0.701469353805179 
4.9100000000018955, -0.7016541585850614 
4.920000000001872, -0.7016649396052825 
