t, s[1].omega / s[0].omega 
0, -0.649997710029183 
0.009999999999999995, -0.6497628657969767 
0.019999999999999934, -0.6495124439505738 
0.029999999999999874, -0.6492366285792555 
0.04000000000000012, -0.6489248222416996 
0.050000000000000405, -0.6485705955128047 
0.06000000000000069, -0.6481743938649271 
0.07000000000000098, -0.6477440034356391 
0.08000000000000126, -0.6472943065341322 
0.09000000000000155, -0.6468479586852558 
0.10000000000000184, -0.6464379012963513 
0.11000000000000212, -0.6461118855791865 
0.12000000000000241, -0.6459386597333954 
0.130000000000002, -0.6460149846794179 
0.1400000000000009, -0.6464719354469787 
0.1499999999999998, -0.6474777704173227 
0.1599999999999987, -0.6492327130318243 
0.1699999999999976, -0.651948114436769 
0.1799999999999965, -0.6557997580917976 
0.1899999999999954, -0.6608477960806075 
0.1999999999999943, -0.6669355538682321 
0.2099999999999932, -0.6736233028212141 
0.2199999999999921, -0.6802474767088882 
0.229999999999991, -0.6861368884745286 
0.2399999999999899, -0.6908618480615958 
0.2499999999999888, -0.6943313276106107 
0.2599999999999877, -0.6967032491785172 
0.2699999999999866, -0.6982301391611039 
0.2799999999999855, -0.6991503136119404 
0.2899999999999844, -0.6996451499025693 
0.2999999999999833, -0.6998359555118581 
0.3099999999999822, -0.699794203736714 
0.3199999999999811, -0.6995517147631557 
0.32999999999998, -0.6991061020371945 
0.3399999999999789, -0.6984204117132802 
0.3499999999999778, -0.697417121916261 
0.35999999999997667, -0.6959681593986523 
0.36999999999997557, -0.6938869508039125 
0.37999999999997447, -0.6909380274896351 
0.38999999999997337, -0.6868909016178567 
0.39999999999997227, -0.6816372140022129 
0.40999999999997117, -0.6753328658356953 
0.41999999999997006, -0.6684479617610973 
0.42999999999996896, -0.6616338299844948 
0.43999999999996786, -0.6554826793390841 
0.44999999999996676, -0.6503550985630219 
0.45999999999996566, -0.6463560720182245 
0.46999999999996456, -0.6434082963628527 
0.47999999999996346, -0.6413428609521047 
0.48999999999996235, -0.6399661145718943 
0.49999999999996125, -0.6390972233995724 
0.5099999999999602, -0.6385844710357582 
0.519999999999959, -0.6383090642777925 
0.529999999999958, -0.6381825124521601 
0.5399999999999568, -0.6381412589481057 
0.5499999999999557, -0.6381407386890048 
0.5599999999999546, -0.6381501467209452 
0.5699999999999535, -0.6381486439183823 
0.5799999999999524, -0.6381232732200478 
0.5899999999999513, -0.6380683052327288 
0.5999999999999502, -0.6379850065041394 
0.6099999999999491, -0.6378802897317161 
0.619999999999948, -0.6377631295701784 
0.6299999999999469, -0.6376393256471186 
0.6399999999999458, -0.637507096329573 
0.6499999999999447, -0.637356271224541 
0.6599999999999436, -0.6371718622290998 
0.6699999999999425, -0.6369399736897643 
0.6799999999999414, -0.6366527466258152 
0.6899999999999403, -0.6363103510932417 
0.6999999999999392, -0.6359205179713486 
0.7099999999999381, -0.6354975726581328 
0.719999999999937, -0.6350628052138557 
0.7299999999999359, -0.6346471814063257 
0.7399999999999348, -0.6342967320244155 
0.7499999999999337, -0.6340805817088391 
0.7599999999999326, -0.6341011515681764 
0.7699999999999315, -0.6345051273929794 
0.7799999999999304, -0.6354918014242183 
0.7899999999999293, -0.6373117468241023 
0.7999999999999282, -0.6402431953112294 
0.8099999999999271, -0.6445282492183001 
0.819999999999926, -0.6502562366768989 
0.8299999999999249, -0.6572175741118648 
0.8399999999999238, -0.6648245104905204 
0.8499999999999227, -0.672231593629314 
0.8599999999999216, -0.6786574740532635 
0.8699999999999205, -0.6836819529806288 
0.8799999999999194, -0.6872947372480094 
0.8899999999999183, -0.689733780771905 
0.8999999999999172, -0.6912998044575059 
0.9099999999999161, -0.6922520274335769 
0.919999999999915, -0.6927786046710531 
0.9299999999999139, -0.6930024653418079 
0.9399999999999128, -0.6929956222575189 
0.9499999999999117, -0.6927908463411262 
0.9599999999999106, -0.6923877828889833 
0.9699999999999095, -0.6917534467845973 
0.9799999999999084, -0.6908180893899527 
0.9899999999999073, -0.6894691768883153 
0.9999999999999062, -0.6875506171967849 
1.0099999999999052, -0.6848816936657732 
1.019999999999904, -0.6813137264982231 
1.029999999999903, -0.6768243988771888 
1.039999999999902, -0.671601166149524 
1.0499999999999008, -0.6660332413852867 
1.0599999999998997, -0.6605893083120885 
1.0699999999998986, -0.6556631120486986 
1.0799999999998975, -0.6514865229032171 
1.0899999999998964, -0.6481312081255945 
1.0999999999998953, -0.6455571536226545 
1.1099999999998942, -0.6436650331546138 
1.119999999999893, -0.6423339721199978 
1.129999999999892, -0.6414437662835962 
1.1399999999998909, -0.6408862322797331 
1.1499999999998898, -0.6405700308756734 
1.1599999999998887, -0.6404217032298032 
1.1699999999998876, -0.6403845158968012 
1.1799999999998865, -0.6404161712838292 
1.1899999999998854, -0.6404862149216786 
1.1999999999998843, -0.640573790991827 
1.2099999999998832, -0.6406660952638313 
1.219999999999882, -0.6407573658870688 
1.229999999999881, -0.640847628750857 
1.2399999999998799, -0.6409401055303467 
1.2499999999998788, -0.6410368147069323 
1.2599999999998777, -0.6411335164280206 
1.2699999999998766, -0.6412166755292821 
1.2799999999998755, -0.6412649012360989 
1.2899999999998744, -0.6412548294032943 
1.2999999999998733, -0.6411683330398501 
1.3099999999998722, -0.6409971175915515 
1.319999999999871, -0.640743067801262 
1.32999999999987, -0.6404158252639401 
1.3399999999998689, -0.6400303507996841 
1.3499999999998678, -0.6396065557575016 
1.3599999999998666, -0.6391719738955018 
1.3699999999998655, -0.6387678709104322 
1.3799999999998644, -0.6384590813129263 
1.3899999999998633, -0.638347634427747 
1.3999999999998622, -0.6385891271719738 
1.4099999999998611, -0.6394078468206851 
1.41999999999986, -0.6411006357287342 
1.429999999999859, -0.6440100098916128 
1.4399999999998578, -0.6484387375319739 
1.4499999999998567, -0.6544894275280255 
1.4599999999998556, -0.6618756126731385 
1.4699999999998545, -0.6698567806887923 
1.4799999999998534, -0.6774560877390502 
1.4899999999998523, -0.6838768776344738 
1.4999999999998512, -0.6887839897818907 
1.5099999999998501, -0.6922625073254871 
1.519999999999849, -0.6946007744394439 
1.529999999999848, -0.6961086109115887 
1.5399999999998468, -0.6970361052140663 
1.5499999999998457, -0.6975596441358507 
1.5599999999998446, -0.6977933816083717 
1.5699999999998435, -0.6978041732597262 
1.5799999999998424, -0.6976224925675114 
1.5899999999998413, -0.6972479349357463 
1.5999999999998402, -0.6966498020005407 
1.6099999999998391, -0.6957641494166803 
1.619999999999838, -0.6944905422286942 
1.629999999999837, -0.6926958191638315 
1.6399999999998358, -0.6902373206135938 
1.6499999999998347, -0.6870167030180185 
1.6599999999998336, -0.6830545804015926 
1.6699999999998325, -0.6785397182220957 
1.6799999999998314, -0.6737995898303655 
1.6899999999998303, -0.6691972346890799 
1.6999999999998292, -0.6650242142120913 
1.709999999999828, -0.6614501403747509 
1.719999999999827, -0.6585309072619856 
1.729999999999826, -0.6562437589305741 
1.7399999999998248, -0.6545223097763123 
1.7499999999998237, -0.6532813966235371 
1.7599999999998226, -0.6524321092050247 
1.7699999999998215, -0.6518902697454436 
1.7799999999998204, -0.6515810419957044 
1.7899999999998193, -0.651441145295862 
1.7999999999998182, -0.6514194016495229 
1.809999999999817, -0.6514761177433511 
1.819999999999816, -0.6515818288155022 
1.8299999999998149, -0.6517159325531333 
1.8399999999998138, -0.6518655405243654 
1.8499999999998127, -0.6520244162020006 
1.8599999999998116, -0.6521913122980556 
1.8699999999998105, -0.6523668453421575 
1.8799999999998094, -0.6525488140802598 
1.8899999999998083, -0.6527274964197647 
1.8999999999998072, -0.6528837302657976 
1.909999999999806, -0.6529918844978979 
1.919999999999805, -0.6530268945776385 
1.9299999999998039, -0.6529715423670956 
1.9399999999998028, -0.6528200695526343 
1.9499999999998017, -0.6525772402063562 
1.9599999999998006, -0.6522550742462241 
1.9699999999997995, -0.6518702313855836 
1.9799999999997984, -0.6514439674943947 
1.9899999999997973, -0.6510054344134583 
1.9999999999997962, -0.6505986417444594 
2.0099999999998173, -0.6502933607518289 
2.0199999999998384, -0.6501999270308862 
2.0299999999998595, -0.6504864618539211 
2.0399999999998806, -0.6513934484789721 
2.0499999999999017, -0.6532337531891625 
2.059999999999923, -0.6563563514381178 
2.069999999999944, -0.6610459513460948 
2.079999999999965, -0.6673500504194949 
2.089999999999986, -0.6748992126270889 
2.100000000000007, -0.6828864955191329 
2.1100000000000283, -0.6903358644568127 
2.1200000000000494, -0.6965177978147801 
2.1300000000000705, -0.7011765608409201 
2.1400000000000916, -0.704444485419549 
2.1500000000001127, -0.7066218343634787 
2.160000000000134, -0.708011830406883 
2.170000000000155, -0.7088530954813533 
2.180000000000176, -0.7093114613301988 
2.190000000000197, -0.7094926113113346 
2.2000000000002182, -0.7094564886397353 
2.2100000000002393, -0.7092272303586123 
2.2200000000002604, -0.7087975521682541 
2.2300000000002815, -0.7081280843696895 
2.2400000000003026, -0.7071430896998372 
2.2500000000003237, -0.7057262410623443 
2.260000000000345, -0.7037250368323165 
2.270000000000366, -0.7009785333860783 
2.280000000000387, -0.6973810002821168 
2.290000000000408, -0.6929682735825163 
2.3000000000004293, -0.6879705253137582 
2.3100000000004504, -0.6827708677890661 
2.3200000000004715, -0.6777815660742028 
2.3300000000004926, -0.6733225113014514 
2.3400000000005137, -0.6695688173754748 
2.3500000000005348, -0.6665650924507034 
2.360000000000556, -0.664268056138181 
2.370000000000577, -0.6625875670939517 
2.380000000000598, -0.6614155714796631 
2.390000000000619, -0.6606437049174037 
2.4000000000006403, -0.6601730981029525 
2.4100000000006614, -0.659919219264345 
2.4200000000006825, -0.6598134447319554 
2.4300000000007036, -0.6598024369167301 
2.4400000000007247, -0.6598462411567451 
2.450000000000746, -0.6599159720376939 
2.460000000000767, -0.6599918171264989 
2.470000000000788, -0.6600617231996471 
2.480000000000809, -0.6601205222746591 
2.49000000000083, -0.6601685978780754 
2.5000000000008513, -0.6602090382937993 
2.5100000000008724, -0.6602431487688116 
2.5200000000008935, -0.6602659307640643 
2.5300000000009146, -0.6602642430656236 
2.5400000000009357, -0.6602193878630305 
2.550000000000957, -0.6601130743163004 
2.560000000000978, -0.6599333769056205 
2.570000000000999, -0.6596776638795793 
2.58000000000102, -0.6593521165951698 
2.5900000000010412, -0.6589698027222686 
2.6000000000010624, -0.6585496808053011 
2.6100000000010835, -0.6581180217678342 
2.6200000000011046, -0.6577128031153979 
2.6300000000011257, -0.6573911327222455 
2.6400000000011468, -0.6572393952779609 
2.650000000001168, -0.6573850597661397 
2.660000000001189, -0.6580074370480419 
2.67000000000121, -0.6593416558638396 
2.680000000001231, -0.6616654383885656 
2.6900000000012523, -0.6652529456461074 
2.7000000000012734, -0.6702799358792813 
2.7100000000012945, -0.6766850651301117 
2.7200000000013156, -0.6840492344320076 
2.7300000000013367, -0.6916175976923441 
2.740000000001358, -0.6985421207680556 
2.750000000001379, -0.7042171704371636 
2.7600000000014, -0.7084515042645263 
2.770000000001421, -0.7113875609190585 
2.780000000001442, -0.7133111069998292 
2.7900000000014633, -0.7145063480593462 
2.8000000000014844, -0.7151951075650037 
2.8100000000015055, -0.7155293495764036 
2.8200000000015266, -0.7156029853679778 
2.8300000000015477, -0.7154651293066554 
2.840000000001569, -0.7151286184809258 
2.85000000000159, -0.7145725089464533 
2.860000000001611, -0.7137387667049412 
2.870000000001632, -0.7125243954950513 
2.8800000000016532, -0.710773177492141 
2.8900000000016743, -0.7082782626396386 
2.9000000000016954, -0.7048170321952003 
2.9100000000017165, -0.7002399677075342 
2.9200000000017377, -0.6945990041667336 
2.9300000000017588, -0.6882304164407477 
2.94000000000178, -0.6816916588766295 
2.950000000001801, -0.6755666430620993 
2.960000000001822, -0.6702785384685915 
2.970000000001843, -0.666019288783812 
2.9800000000018643, -0.6627863364555568 
2.9900000000018854, -0.6604594575093636 
3.0000000000019065, -0.6588689261771458 
3.0100000000019276, -0.6578399543928662 
3.0200000000019487, -0.6572162424539588 
3.03000000000197, -0.6568695192522864 
3.040000000001991, -0.6567007573971695 
3.050000000002012, -0.6566369261390693 
3.060000000002033, -0.6566258508481819 
3.070000000002054, -0.6566309060941968 
3.0800000000020753, -0.6566266700410422 
3.0900000000020964, -0.6565961697920156 
3.1000000000021175, -0.6565297948863426 
3.1100000000021386, -0.6564252135891947 
3.1200000000021597, -0.6562868654148863 
3.130000000002181, -0.6561235191480032 
3.140000000002202, -0.6559436480880187 
3.150000000002223, -0.6557504497812728 
3.160000000002244, -0.6555394046267962 
3.1700000000022652, -0.6553000322041578 
3.1800000000022863, -0.6550207962015964 
3.1900000000023074, -0.6546942349018325 
3.2000000000023285, -0.6543199062479136 
3.2100000000023496, -0.6539048922643312 
3.2200000000023707, -0.6534633550054979 
3.230000000002392, -0.6530169023711344 
3.240000000002413, -0.6525968179172954 
3.250000000002434, -0.6522484146160551 
3.260000000002455, -0.6520372079565772 
3.2700000000024763, -0.6520561063131749 
3.2800000000024974, -0.6524321179531685 
3.2900000000025185, -0.6533299456213403 
3.3000000000025396, -0.6549480325754506 
3.3100000000025607, -0.6574999563283186 
3.3200000000025818, -0.661171357711724 
3.330000000002603, -0.6660442485264003 
3.340000000002624, -0.6719971389096526 
3.350000000002645, -0.6786298962613191 
3.360000000002666, -0.6853013189199287 
3.3700000000026873, -0.6913259866615946 
3.3800000000027084, -0.6962292762898217 
3.3900000000027295, -0.699872837970294 
3.4000000000027506, -0.7023871165093981 
3.4100000000027717, -0.7040185617619105 
3.420000000002793, -0.7050112702587448 
3.430000000002814, -0.7055556884474732 
3.440000000002835, -0.7057814034163012 
3.450000000002856, -0.7057664218257867 
3.460000000002877, -0.7055477277283677 
3.4700000000028983, -0.7051274788620345 
3.4800000000029194, -0.7044733987879024 
3.4900000000029405, -0.7035133113299433 
3.5000000000029616, -0.7021249960710708 
3.5100000000029827, -0.7001262314825516 
3.520000000003004, -0.6972787369746707 
3.530000000003025, -0.6933323718009109 
3.540000000003046, -0.688135250153137 
3.550000000003067, -0.681786978733743 
3.5600000000030882, -0.6747235764625606 
3.5700000000031094, -0.6676153324711491 
3.5800000000031305, -0.6611179285267421 
3.5900000000031516, -0.6556612433727693 
3.6000000000031727, -0.6513947119878887 
3.6100000000031938, -0.648254889595669 
3.620000000003215, -0.6460657521920463 
3.630000000003236, -0.6446173751576006 
3.640000000003257, -0.6437115789877067 
3.650000000003278, -0.643182156452475 
3.6600000000032993, -0.642899798687826 
3.6700000000033204, -0.642769131834028 
3.6800000000033415, -0.6427224400439913 
3.6900000000033626, -0.6427127404305211 
3.7000000000033837, -0.6427077157435732 
3.710000000003405, -0.6426853096415529 
3.720000000003426, -0.6426313006724991 
3.730000000003447, -0.6425386382795927 
3.740000000003468, -0.642407587253686 
3.750000000003489, -0.6422450499041557 
3.7600000000035103, -0.6420616142460199 
3.7700000000035314, -0.6418664579846503 
3.7800000000035525, -0.6416623541468309 
3.7900000000035736, -0.6414437370353545 
3.8000000000035947, -0.6411991331005001 
3.810000000003616, -0.6409164674257408 
3.820000000003637, -0.6405881662326124 
3.830000000003658, -0.6402138309988288 
3.840000000003679, -0.6398005107026632 
3.8500000000037002, -0.6393622020103682 
3.8600000000037213, -0.6389203208316976 
3.8700000000037424, -0.6385061624614641 
3.8800000000037635, -0.6381656482546374 
3.8900000000037847, -0.6379661813788028 
3.9000000000038058, -0.6380049773148341 
3.910000000003827, -0.6384174549225071 
3.920000000003848, -0.6393828156476314 
3.930000000003869, -0.6411213819515938 
3.94000000000389, -0.6438743532483879 
3.9500000000039113, -0.6478526960725677 
3.9600000000039324, -0.6531444828637144 
3.9700000000039535, -0.6595939334652726 
3.9800000000039746, -0.6667200701127651 
3.9900000000039957, -0.6737852855456763 
4.000000000004016, -0.6800486980202245 
4.010000000003993, -0.6850494725088464 
4.02000000000397, -0.688705040096217 
4.030000000003946, -0.6911990032768728 
4.040000000003923, -0.6928079390078878 
4.0500000000039, -0.6937865378618376 
4.0600000000038765, -0.6943260778715292 
4.070000000003853, -0.6945538978205987 
4.08000000000383, -0.6945455691475688 
4.090000000003807, -0.6943362778780434 
4.100000000003783, -0.6939271209200966 
4.11000000000376, -0.6932856145285551 
4.120000000003737, -0.6923409405940293 
4.130000000003713, -0.6909759932721147 
4.14000000000369, -0.6890224925296852 
4.150000000003667, -0.6862737637627632 
4.1600000000036434, -0.682537645146667 
4.17000000000362, -0.6777404016340046 
4.180000000003597, -0.6720405247656523 
4.1900000000035735, -0.6658542309798208 
4.20000000000355, -0.6597333233183359 
4.210000000003527, -0.6541707499984524 
4.220000000003504, -0.6494698241312424 
4.23000000000348, -0.6457294339762794 
4.240000000003457, -0.6429012931499762 
4.250000000003434, -0.6408592569700255 
4.26000000000341, -0.6394509557128277 
4.270000000003387, -0.6385279764883797 
4.280000000003364, -0.6379604238859771 
4.2900000000033405, -0.6376420581012009 
4.300000000003317, -0.6374902120205733 
4.310000000003294, -0.6374430317860311 
4.320000000003271, -0.6374556435090335 
4.330000000003247, -0.6374963405207869 
4.340000000003224, -0.6375435346509468 
4.350000000003201, -0.637583840160634 
4.360000000003177, -0.6376111300974324 
4.370000000003154, -0.6376257319093273 
4.380000000003131, -0.6376324811090116 
4.390000000003107, -0.6376367992115373 
4.400000000003084, -0.6376395421772691 
4.410000000003061, -0.6376330993952427 
4.4200000000030375, -0.6376014169205598 
4.430000000003014, -0.6375245421899207 
4.440000000002991, -0.6373852963431074 
4.450000000002968, -0.6371743757100977 
4.460000000002944, -0.6368918031672266 
4.470000000002921, -0.6365455207074169 
4.480000000002898, -0.6361494983254469 
4.490000000002874, -0.635723448448975 
4.500000000002851, -0.6352952472938973 
4.510000000002828, -0.6349064995018419 
4.520000000002804, -0.6346214390344785 
4.530000000002781, -0.6345390770744797 
4.540000000002758, -0.6348075537055126 
4.5500000000027345, -0.6356372474929304 
4.560000000002711, -0.6373043780876604 
4.570000000002688, -0.6401290741980274 
4.580000000002665, -0.6444041210325219 
4.590000000002641, -0.6502564231619986 
4.600000000002618, -0.6574700872701221 
4.610000000002595, -0.6653938073204608 
4.620000000002571, -0.6730934338988878 
4.630000000002548, -0.6797315176988025 
4.640000000002525, -0.6848875516680502 
4.6500000000025015, -0.6885806206920053 
4.660000000002478, -0.6910755920320216 
4.670000000002455, -0.6926872868077958 
4.6800000000024315, -0.6936801290084402 
4.690000000002408, -0.6942440248753838 
4.700000000002385, -0.6945030746254102 
4.710000000002362, -0.694530872271437 
4.720000000002338, -0.6943625010534028 
4.730000000002315, -0.6940009790993382 
4.740000000002292, -0.6934184145765557 
4.750000000002268, -0.6925530766671095 
4.760000000002245, -0.6913052401413283 
4.770000000002222, -0.6895385595198145 
4.7800000000021985, -0.6870995385551042 
4.790000000002175, -0.6838688470800814 
4.800000000002152, -0.6798404397704945 
4.810000000002129, -0.6751849772933372 
4.820000000002105, -0.6702351008808747 
4.830000000002082, -0.6653824932199429 
4.840000000002059, -0.6609556839536472 
4.850000000002035, -0.6571534227706157 
4.860000000002012, -0.6540463740109141 
4.870000000001989, -0.6516142411003509 
4.880000000001965, -0.6497858581530549 
4.890000000001942, -0.6484684352065315 
4.900000000001919, -0.6475652811724564 
4.9100000000018955, -0.6469855483494894 
4.920000000001872, -0.6466492197601973 
