t, s[1].omega / s[0].omega 
0, -0.709997687837732 
0.009999999999999995, -0.7097501088731305 
0.019999999999999934, -0.7094679283706463 
0.029999999999999874, -0.7091461172883639 
0.04000000000000012, -0.7087804558961018 
0.050000000000000405, -0.7083710141927875 
0.06000000000000069, -0.7079240165564242 
0.07000000000000098, -0.7074523055057484 
0.08000000000000126, -0.7069755902314777 
0.09000000000000155, -0.7065214810348179 
0.10000000000000184, -0.7061275341684259 
0.11000000000000212, -0.7058437769732891 
0.12000000000000241, -0.705734687582724 
0.130000000000002, -0.7058794045837862 
0.1400000000000009, -0.7063690444609395 
0.1499999999999998, -0.707300302115719 
0.1599999999999987, -0.7087646893233759 
0.1699999999999976, -0.7108325372868148 
0.1799999999999965, -0.7135306620849052 
0.1899999999999954, -0.7168142331445614 
0.1999999999999943, -0.72053981711674 
0.2099999999999932, -0.7244577997490347 
0.2199999999999921, -0.7282478956110443 
0.229999999999991, -0.7316019525072956 
0.2399999999999899, -0.7343155638849507 
0.2499999999999888, -0.7363305160907672 
0.2599999999999877, -0.7377084339313704 
0.2699999999999866, -0.7385691711854561 
0.2799999999999855, -0.7390371426320285 
0.2899999999999844, -0.7392129918895975 
0.2999999999999833, -0.7391655395036205 
0.3099999999999822, -0.738933264171051 
0.3199999999999811, -0.7385277433377017 
0.32999999999998, -0.7379354902424066 
0.3399999999999789, -0.7371170268151278 
0.3499999999999778, -0.7360032550275093 
0.35999999999997667, -0.7344902897743684 
0.36999999999997557, -0.732436093589069 
0.37999999999997447, -0.7296670487883559 
0.38999999999997337, -0.7260109869058404 
0.39999999999997227, -0.7213792099124513 
0.40999999999997117, -0.7158979455324171 
0.41999999999997006, -0.7100106048589756 
0.42999999999996896, -0.7044044822231378 
0.43999999999996786, -0.6997318818809781 
0.44999999999996676, -0.6963334283558245 
0.45999999999996566, -0.6941788963967209 
0.46999999999996456, -0.6930037869506555 
0.47999999999996346, -0.6924825152996287 
0.48999999999996235, -0.692336304982135 
0.49999999999996125, -0.6923679975078978 
0.5099999999999602, -0.6924547329601278 
0.519999999999959, -0.6925264602853302 
0.529999999999958, -0.6925448594796315 
0.5399999999999568, -0.692487444539013 
0.5499999999999557, -0.6923370346787566 
0.5599999999999546, -0.6920755626565857 
0.5699999999999535, -0.6916815648504925 
0.5799999999999524, -0.6911315224837916 
0.5899999999999513, -0.6904055106774637 
0.5999999999999502, -0.689496316126382 
0.6099999999999491, -0.6884181934103976 
0.619999999999948, -0.6872092700197713 
0.6299999999999469, -0.6859241832247557 
0.6399999999999458, -0.6846203612443711 
0.6499999999999447, -0.6833458494839697 
0.6599999999999436, -0.6821342335369297 
0.6699999999999425, -0.6810064714090669 
0.6799999999999414, -0.6799759956290908 
0.6899999999999403, -0.6790536458265297 
0.6999999999999392, -0.6782507968647463 
0.7099999999999381, -0.6775805281025586 
0.719999999999937, -0.6770573192924048 
0.7299999999999359, -0.6766958752628989 
0.7399999999999348, -0.6765096463295422 
0.7499999999999337, -0.6765095504366081 
0.7599999999999326, -0.6767032705320059 
0.7699999999999315, -0.677095240742798 
0.7799999999999304, -0.6776870647321547 
0.7899999999999293, -0.6784777049063055 
0.7999999999999282, -0.6794624441015935 
0.8099999999999271, -0.6806295325815097 
0.819999999999926, -0.6819539864398643 
0.8299999999999249, -0.683389772344804 
0.8399999999999238, -0.684864642682851 
0.8499999999999227, -0.6862842051974716 
0.8599999999999216, -0.6875491869995727 
0.8699999999999205, -0.6885805326434667 
0.8799999999999194, -0.6893383555758612 
0.8899999999999183, -0.6898238294964596 
0.8999999999999172, -0.6900659751896093 
0.9099999999999161, -0.690104013758758 
0.919999999999915, -0.6899740338138856 
0.9299999999999139, -0.6897023464372732 
0.9399999999999128, -0.6893039205943635 
0.9499999999999117, -0.6887837605856089 
0.9599999999999106, -0.6881401922274076 
0.9699999999999095, -0.687370310744343 
0.9799999999999084, -0.6864786352167462 
0.9899999999999073, -0.6854896031308033 
0.9999999999999062, -0.6844615430170607 
1.0099999999999052, -0.683492937965461 
1.019999999999904, -0.6827046385828199 
1.029999999999903, -0.6821896577732809 
1.039999999999902, -0.6819615792926776 
1.0499999999999008, -0.6819659600023226 
1.0599999999998997, -0.6821559983088866 
1.0699999999998986, -0.6825293797786902 
1.0799999999998975, -0.6830795185339458 
1.0899999999998964, -0.6837485380579211 
1.0999999999998953, -0.6844430946030723 
1.1099999999998942, -0.6850771623443224 
1.119999999999893, -0.6855965852387551 
1.129999999999892, -0.6859791084856368 
1.1399999999998909, -0.6862229539741888 
1.1499999999998898, -0.6863346823575529 
1.1599999999998887, -0.6863202741965386 
1.1699999999998876, -0.6861794315726288 
1.1799999999998865, -0.6859020675610612 
1.1899999999998854, -0.6854664292668786 
1.1999999999998843, -0.6848394572482228 
1.2099999999998832, -0.6839812904431192 
1.219999999999882, -0.6828561948998482 
1.229999999999881, -0.6814496676275213 
1.2399999999998799, -0.6797853290919755 
1.2499999999998788, -0.677930183101809 
1.2599999999998777, -0.6759812753466083 
1.2699999999998766, -0.6740402231896319 
1.2799999999998755, -0.6721907268579201 
1.2899999999998744, -0.670489072177934 
1.2999999999998733, -0.6689666824649007 
1.3099999999998722, -0.6676380491945035 
1.319999999999871, -0.6665083393928821 
1.32999999999987, -0.6655782634997606 
1.3399999999998689, -0.6648462050668802 
1.3499999999998678, -0.6643085925748136 
1.3599999999998666, -0.6639595807593686 
1.3699999999998655, -0.6637908355570812 
1.3799999999998644, -0.6637918446481403 
1.3899999999998633, -0.6639508122477488 
1.3999999999998622, -0.6642559045991531 
1.4099999999998611, -0.6646964189717443 
1.41999999999986, -0.665263324601777 
1.429999999999859, -0.6659485211565281 
1.4399999999998578, -0.6667421444953806 
1.4499999999998567, -0.6676276369430696 
1.4599999999998556, -0.6685755522248277 
1.4699999999998545, -0.6695391629962626 
1.4799999999998534, -0.6704564162163706 
1.4899999999998523, -0.6712608803575351 
1.4999999999998512, -0.6718981980428097 
1.5099999999998501, -0.672339019302916 
1.519999999999849, -0.6725811670539986 
1.529999999999848, -0.6726417799648804 
1.5399999999998468, -0.6725459835517105 
1.5499999999998457, -0.672317967817563 
1.5599999999998446, -0.6719765702351262 
1.5699999999998435, -0.6715348668368978 
1.5799999999998424, -0.6710028513307156 
1.5899999999998413, -0.6703930426275817 
1.5999999999998402, -0.6697297489591059 
1.6099999999998391, -0.6690628995723837 
1.619999999999838, -0.6684856270814581 
1.629999999999837, -0.6681492050480253 
1.6399999999998358, -0.6682584343095167 
1.6499999999998347, -0.6690214544029313 
1.6599999999998336, -0.670543378130385 
1.6699999999998325, -0.6727175422867252 
1.6799999999998314, -0.6752312353445293 
1.6899999999998303, -0.6777250591326827 
1.6999999999998292, -0.6799600810507663 
1.709999999999828, -0.681846879531904 
1.719999999999827, -0.6833796301216399 
1.729999999999826, -0.6845812763929879 
1.7399999999998248, -0.6854849946126607 
1.7499999999998237, -0.6861295431410032 
1.7599999999998226, -0.6865546001108789 
1.7699999999998215, -0.6867953464670031 
1.7799999999998204, -0.6868781868491638 
1.7899999999998193, -0.6868180360998032 
1.7999999999998182, -0.6866165594767196 
1.809999999999817, -0.6862607826580834 
1.819999999999816, -0.6857222419985366 
1.8299999999998149, -0.6849581388012645 
1.8399999999998138, -0.683917464509557 
1.8499999999998127, -0.6825553799705125 
1.8599999999998116, -0.6808555242920868 
1.8699999999998105, -0.6788514670597027 
1.8799999999998094, -0.6766320242962179 
1.8899999999998083, -0.6743220847543095 
1.8999999999998072, -0.672048934496057 
1.909999999999806, -0.6699142172614084 
1.919999999999805, -0.6679833109811415 
1.9299999999998039, -0.6662895361935259 
1.9399999999998028, -0.664844305578463 
1.9499999999998017, -0.663646406494794 
1.9599999999998006, -0.6626879094819558 
1.9699999999997995, -0.661957009320468 
1.9799999999997984, -0.6614390741847387 
1.9899999999997973, -0.6611171019038559 
1.9999999999997962, -0.660972331028503 
2.0099999999998173, -0.6609852701345892 
2.0199999999998384, -0.6611370422020549 
2.0299999999998595, -0.6614107434516268 
2.0399999999998806, -0.6617924528903305 
2.0499999999999017, -0.6622714971303293 
2.059999999999923, -0.6628394917504211 
2.069999999999944, -0.6634876331481853 
2.079999999999965, -0.6642020589808597 
2.089999999999986, -0.6649582594866701 
2.100000000000007, -0.6657173521852123 
2.1100000000000283, -0.6664280608864466 
2.1200000000000494, -0.6670362055632209 
2.1300000000000705, -0.6674982544970833 
2.1400000000000916, -0.6677914138076066 
2.1500000000001127, -0.6679148185951599 
2.160000000000134, -0.6678829281056544 
2.170000000000155, -0.6677165157359851 
2.180000000000176, -0.6674358736747231 
2.190000000000197, -0.6670579081716156 
2.2000000000002182, -0.666596905001843 
2.2100000000002393, -0.6660685429276441 
2.2200000000002604, -0.6654974052280742 
2.2300000000002815, -0.6649288555026982 
2.2400000000003026, -0.6644457729389909 
2.2500000000003237, -0.6641878384666693 
2.260000000000345, -0.6643637928970278 
2.270000000000366, -0.6652350203578192 
2.280000000000387, -0.6670409607334827 
2.290000000000408, -0.669860648718624 
2.3000000000004293, -0.673483955012797 
2.3100000000004504, -0.677434765788671 
2.3200000000004715, -0.6811874222674092 
2.3300000000004926, -0.6843961585914438 
2.3400000000005137, -0.6869504110178488 
2.3500000000005348, -0.6888898625485783 
2.360000000000556, -0.690310094283568 
2.370000000000577, -0.6913125743552615 
2.380000000000598, -0.6919864550745938 
2.390000000000619, -0.6924032330230558 
2.4000000000006403, -0.6926157302495983 
2.4100000000006614, -0.6926585537144554 
2.4200000000006825, -0.6925487721324959 
2.4300000000007036, -0.6922860520710936 
2.4400000000007247, -0.6918520396306478 
2.450000000000746, -0.6912096865987785 
2.460000000000767, -0.6903047179834221 
2.470000000000788, -0.6890732741742133 
2.480000000000809, -0.6874601100931733 
2.49000000000083, -0.6854468842551621 
2.5000000000008513, -0.6830788287957603 
2.5100000000008724, -0.6804699210067129 
2.5200000000008935, -0.6777767283071107 
2.5300000000009146, -0.6751552481394409 
2.5400000000009357, -0.6727266783719458 
2.550000000000957, -0.6705656845391048 
2.560000000000978, -0.6687065577535928 
2.570000000000999, -0.6671558989511706 
2.58000000000102, -0.6659038748541832 
2.5900000000010412, -0.6649314880450876 
2.6000000000010624, -0.6642144877234476 
2.6100000000010835, -0.6637254441894024 
2.6200000000011046, -0.6634352252399907 
2.6300000000011257, -0.6633144921388701 
2.6400000000011468, -0.6633353007080973 
2.650000000001168, -0.6634726066195693 
2.660000000001189, -0.6637054234573948 
2.67000000000121, -0.6640174430478897 
2.680000000001231, -0.6643969348647522 
2.6900000000012523, -0.6648356116433579 
2.7000000000012734, -0.665326023068998 
2.7100000000012945, -0.6658573248539519 
2.7200000000013156, -0.6664103504777162 
2.7300000000013367, -0.6669544893549897 
2.740000000001358, -0.6674495082465493 
2.750000000001379, -0.6678534080743834 
2.7600000000014, -0.6681331046220922 
2.770000000001421, -0.6682719548993006 
2.780000000001442, -0.6682703032482468 
2.7900000000014633, -0.6681403055166746 
2.8000000000014844, -0.6678992895156537 
2.8100000000015055, -0.6675651781047878 
2.8200000000015266, -0.6671553513602391 
2.8300000000015477, -0.6666890349412502 
2.840000000001569, -0.6661932424232422 
2.85000000000159, -0.6657127721741237 
2.860000000001611, -0.6653248948074504 
2.870000000001632, -0.6651581404621811 
2.8800000000016532, -0.6654105109813139 
2.8900000000016743, -0.6663538821924362 
2.9000000000016954, -0.6682994361490969 
2.9100000000017165, -0.6714951662010035 
2.9200000000017377, -0.6759594701336222 
2.9300000000017588, -0.6813434320411209 
2.94000000000178, -0.6869810897385615 
2.950000000001801, -0.6921667356060683 
2.960000000001822, -0.6964486867402022 
2.970000000001843, -0.6997101409831157 
2.9800000000018643, -0.7020577371970904 
2.9900000000018854, -0.7036785846149072 
3.0000000000019065, -0.7047545558733286 
3.0100000000019276, -0.7054310989262621 
3.0200000000019487, -0.7058134158922502 
3.03000000000197, -0.7059716556881832 
3.040000000001991, -0.7059470621064419 
3.050000000002012, -0.7057562707140714 
3.060000000002033, -0.7053930414230437 
3.070000000002054, -0.7048276782503871 
3.0800000000020753, -0.7040054515423794 
3.0900000000020964, -0.7028473075932138 
3.1000000000021175, -0.7012590345531288 
3.1100000000021386, -0.699156355207547 
3.1200000000021597, -0.6965069717454032 
3.130000000002181, -0.6933728259550327 
3.140000000002202, -0.6899206144852413 
3.150000000002223, -0.6863825418471716 
3.160000000002244, -0.6829887991706787 
3.1700000000022652, -0.6799136233379934 
3.1800000000022863, -0.6772569596892916 
3.1900000000023074, -0.6750542144673481 
3.2000000000023285, -0.6732961966447497 
3.2100000000023496, -0.6719472267260208 
3.2200000000023707, -0.6709577742398045 
3.230000000002392, -0.6702724780806221 
3.240000000002413, -0.6698353630728207 
3.250000000002434, -0.6695934854465528 
3.260000000002455, -0.6694994823549686 
3.2700000000024763, -0.6695131041164141 
3.2800000000024974, -0.6696017947998547 
3.2900000000025185, -0.6697405492076567 
3.3000000000025396, -0.6699113702440653 
3.3100000000025607, -0.6701025165175409 
3.3200000000025818, -0.6703073589154684 
3.330000000002603, -0.6705223020286176 
3.340000000002624, -0.670743362383828 
3.350000000002645, -0.6709619826754533 
3.360000000002666, -0.6711620500547013 
3.3700000000026873, -0.6713205136679266 
3.3800000000027084, -0.6714123248667814 
3.3900000000027295, -0.6714174182603251 
3.4000000000027506, -0.6713258164505884 
3.4100000000027717, -0.6711384980551822 
3.420000000002793, -0.67086487587055 
3.430000000002814, -0.6705195993246085 
3.440000000002835, -0.6701210497129942 
3.450000000002856, -0.6696926774630114 
3.460000000002877, -0.6692675181493033 
3.4700000000028983, -0.6688959817452089 
3.4800000000029194, -0.6686568182143497 
3.4900000000029405, -0.668670355396688 
3.5000000000029616, -0.6691110119598626 
3.5100000000029827, -0.6702120925030158 
3.520000000003004, -0.6722499449855782 
3.530000000003025, -0.6754892396857063 
3.540000000003046, -0.6800757306590486 
3.550000000003067, -0.6858951320553318 
3.5600000000030882, -0.6924820149723933 
3.5700000000031094, -0.6991003290637043 
3.5800000000031305, -0.7050146532631615 
3.5900000000031516, -0.7097716042102553 
3.6000000000031727, -0.7132830308781697 
3.6100000000031938, -0.7157108409587499 
3.620000000003215, -0.7173045472911019 
3.630000000003236, -0.7182967710167694 
3.640000000003257, -0.7188651707318487 
3.650000000003278, -0.7191308136884526 
3.6600000000032993, -0.7191682307112803 
3.6700000000033204, -0.7190153945471508 
3.6800000000033415, -0.7186797438224259 
3.6900000000033626, -0.7181395409118094 
3.7000000000033837, -0.717340992642789 
3.710000000003405, -0.7161927779435453 
3.720000000003426, -0.7145626234409443 
3.730000000003447, -0.7122863367903123 
3.740000000003468, -0.7092053219775617 
3.750000000003489, -0.705241973706314 
3.7600000000035103, -0.7004887681933691 
3.7700000000035314, -0.6952442364360102 
3.7800000000035525, -0.6899424149360653 
3.7900000000035736, -0.6850100262370179 
3.8000000000035947, -0.6807472919685112 
3.810000000003616, -0.6772899708945246 
3.820000000003637, -0.6746374579626138 
3.830000000003658, -0.6727041790900801 
3.840000000003679, -0.671365412250326 
3.8500000000037002, -0.6704885897526447 
3.8600000000037213, -0.6699513978210848 
3.8700000000037424, -0.6696504161730565 
3.8800000000037635, -0.6695035494913724 
3.8900000000037847, -0.6694486694197723 
3.9000000000038058, -0.6694403111761814 
3.910000000003827, -0.6694458583722023 
3.920000000003848, -0.6694422703264011 
3.930000000003869, -0.6694139874193084 
3.94000000000389, -0.6693521073050949 
3.9500000000039113, -0.669254212938397 
3.9600000000039324, -0.669123602758378 
3.9700000000039535, -0.6689667738516312 
3.9800000000039746, -0.6687892838954117 
3.9900000000039957, -0.6685918506346674 
4.000000000004016, -0.6683690944586803 
4.010000000003993, -0.6681118549227287 
4.02000000000397, -0.6678116471358864 
4.030000000003946, -0.6674646626728269 
4.040000000003923, -0.6670736742981695 
4.0500000000039, -0.6666481340099963 
4.0600000000038765, -0.6662039308216028 
4.070000000003853, -0.6657641797058182 
4.08000000000383, -0.665361686443782 
4.090000000003807, -0.6650430372541279 
4.100000000003783, -0.6648737453323477 
4.11000000000376, -0.6649433958064704 
4.120000000003737, -0.665369106712385 
4.130000000003713, -0.6662947626247544 
4.14000000000369, -0.6678822723997886 
4.150000000003667, -0.6702896124833968 
4.1600000000036434, -0.6736297872116329 
4.17000000000362, -0.6779090797980939 
4.180000000003597, -0.6829590682225721 
4.1900000000035735, -0.6884053954175794 
4.20000000000355, -0.6937300091492923 
4.210000000003527, -0.6984335317872687 
4.220000000003504, -0.7022052705780241 
4.23000000000348, -0.7049828854807709 
4.240000000003457, -0.7068859652507664 
4.250000000003434, -0.7081059636190897 
4.26000000000341, -0.7088263943922651 
4.270000000003387, -0.7091890807076822 
4.280000000003364, -0.7092895951929657 
4.2900000000033405, -0.7091834811130505 
4.300000000003317, -0.7088930189357907 
4.310000000003294, -0.7084105195355049 
4.320000000003271, -0.7076969484134451 
4.330000000003247, -0.7066758193752996 
4.340000000003224, -0.7052237283028285 
4.350000000003201, -0.7031628681708997 
4.360000000003177, -0.7002695284498891 
4.370000000003154, -0.6963234238822428 
4.380000000003131, -0.6912178375114364 
4.390000000003107, -0.685099722792854 
4.400000000003084, -0.6784294643405119 
4.410000000003061, -0.6718601781658713 
4.4200000000030375, -0.6659943862757183 
4.430000000003014, -0.6611957017791081 
4.440000000002991, -0.6575550320171882 
4.450000000002968, -0.6549679615509075 
4.460000000002944, -0.6532362763803852 
4.470000000002921, -0.652143781848449 
4.480000000002898, -0.651497605781864 
4.490000000002874, -0.6511438209042864 
4.500000000002851, -0.6509682543961084 
4.510000000002828, -0.6508904026616807 
4.520000000002804, -0.6508552241496994 
4.530000000002781, -0.6508253711082729 
4.540000000002758, -0.6507750922915546 
4.5500000000027345, -0.6506863225361783 
4.560000000002711, -0.6505470493965602 
4.570000000002688, -0.6503515568996658 
4.580000000002665, -0.6501013969768503 
4.590000000002641, -0.6498052767349274 
4.600000000002618, -0.6494763838623233 
4.610000000002595, -0.6491274624931209 
4.620000000002571, -0.6487660336303945 
4.630000000002548, -0.6483925272748682 
4.640000000002525, -0.6480022374485497 
4.6500000000025015, -0.6475895747858856 
4.660000000002478, -0.6471521167220743 
4.670000000002455, -0.6466929344858336 
4.6800000000024315, -0.6462213820524482 
4.690000000002408, -0.6457535206043776 
4.700000000002385, -0.6453132731310999 
4.710000000002362, -0.6449348014132588 
4.720000000002338, -0.6446660089720134 
4.730000000002315, -0.6445726407963318 
4.740000000002292, -0.6447420756531714 
4.750000000002268, -0.6452854430296512 
4.760000000002245, -0.6463359698591391 
4.770000000002222, -0.6480402527317377 
4.7800000000021985, -0.650537472559902 
4.790000000002175, -0.6539206890837634 
4.800000000002152, -0.65817855360978 
4.810000000002129, -0.6631321178562852 
4.820000000002105, -0.6684095717135446 
4.830000000002082, -0.6735128587256849 
4.840000000002059, -0.6779768872072409 
4.850000000002035, -0.6815266879359543 
4.860000000002012, -0.6841230877572649 
4.870000000001989, -0.6858918170067918 
4.880000000001965, -0.6870185739160769 
4.890000000001942, -0.687676641260428 
4.900000000001919, -0.6879979143272814 
4.9100000000018955, -0.68807006119112 
4.920000000001872, -0.6879427352532523 
