t, s[1].omega / s[0].omega 
0, -0.6999976915992301 
0.009999999999999995, -0.6997516062164404 
0.019999999999999934, -0.6994732427485943 
0.029999999999999874, -0.6991577946904162 
0.04000000000000012, -0.6988011285519511 
0.050000000000000405, -0.6984030357628155 
0.06000000000000069, -0.6979689764581257 
0.07000000000000098, -0.6975104942169839 
0.08000000000000126, -0.6970454054660697 
0.09000000000000155, -0.6965987379144052 
0.10000000000000184, -0.6962047112215538 
0.11000000000000212, -0.6959093742754294 
0.12000000000000241, -0.6957730350416383 
0.130000000000002, -0.6958713431754782 
0.1400000000000009, -0.6962938013384748 
0.1499999999999998, -0.697138532869668 
0.1599999999999987, -0.6985021343396561 
0.1699999999999976, -0.7004632346529872 
0.1799999999999965, -0.7030584395618215 
0.1899999999999954, -0.7062515272750077 
0.1999999999999943, -0.7099039318008902 
0.2099999999999932, -0.7137663012290345 
0.2199999999999921, -0.7175157330890125 
0.229999999999991, -0.720841535513317 
0.2399999999999899, -0.7235382446626245 
0.2499999999999888, -0.7255471358521909 
0.2599999999999877, -0.7269285920174964 
0.2699999999999866, -0.7278004677731582 
0.2799999999999855, -0.7282852228273821 
0.2899999999999844, -0.7284822613171587 
0.2999999999999833, -0.7284601099431823 
0.3099999999999822, -0.7282578460521127 
0.3199999999999811, -0.7278883833942162 
0.32999999999998, -0.7273400857298523 
0.3399999999999789, -0.7265754294595054 
0.3499999999999778, -0.7255265451145196 
0.35999999999997667, -0.7240885675786448 
0.36999999999997557, -0.722114261810057 
0.37999999999997447, -0.7194192040448675 
0.38999999999997337, -0.7158162413461624 
0.39999999999997227, -0.7112019970638731 
0.40999999999997117, -0.7056891863085413 
0.41999999999997006, -0.6996996975578218 
0.42999999999996896, -0.6938873909066215 
0.43999999999996786, -0.6888830833183874 
0.44999999999996676, -0.6850489881544937 
0.45999999999996566, -0.6824167906183655 
0.46999999999996456, -0.6807910950128854 
0.47999999999996346, -0.679893620273118 
0.48999999999996235, -0.6794634369702808 
0.49999999999996125, -0.6792993235263813 
0.5099999999999602, -0.6792637576293938 
0.519999999999959, -0.6792700703142949 
0.529999999999958, -0.6792660638006527 
0.5399999999999568, -0.6792199209257301 
0.5499999999999557, -0.6791099821023263 
0.5599999999999546, -0.678918277506652 
0.5699999999999535, -0.6786274566424285 
0.5799999999999524, -0.678221029006034 
0.5899999999999513, -0.6776868078900055 
0.5999999999999502, -0.6770224666504043 
0.6099999999999491, -0.6762403271410555 
0.619999999999948, -0.6753676448959453 
0.6299999999999469, -0.6744408188023324 
0.6399999999999458, -0.6734962578910408 
0.6499999999999447, -0.6725630100296839 
0.6599999999999436, -0.671660410352585 
0.6699999999999425, -0.670800288021417 
0.6799999999999414, -0.669991134534953 
0.6899999999999403, -0.6692419114305129 
0.6999999999999392, -0.6685645096223826 
0.7099999999999381, -0.6679748949913792 
0.719999999999937, -0.6674932952522266 
0.7299999999999359, -0.667143699444104 
0.7399999999999348, -0.6669528287487776 
0.7499999999999337, -0.6669487439060799 
0.7599999999999326, -0.6671593156191784 
0.7699999999999315, -0.6676107501612465 
0.7799999999999304, -0.6683261143845319 
0.7899999999999293, -0.6693233296654724 
0.7999999999999282, -0.6706115462218534 
0.8099999999999271, -0.672184551324697 
0.819999999999926, -0.6740106552256846 
0.8299999999999249, -0.6760212980284082 
0.8399999999999238, -0.678105362962722 
0.8499999999999227, -0.6801192683002905 
0.8599999999999216, -0.6819172690580256 
0.8699999999999205, -0.68339060470177 
0.8799999999999194, -0.6844925828114696 
0.8899999999999183, -0.6852357749989443 
0.8999999999999172, -0.6856687928682275 
0.9099999999999161, -0.6858502659670267 
0.919999999999915, -0.6858313259509943 
0.9299999999999139, -0.6856477637188912 
0.9399999999999128, -0.6853181505085582 
0.9499999999999117, -0.6848441755219133 
0.9599999999999106, -0.6842109993220646 
0.9699999999999095, -0.6833867629388605 
0.9799999999999084, -0.6823212167094475 
0.9899999999999073, -0.680943989087486 
0.9999999999999062, -0.6791638156880022 
1.0099999999999052, -0.6768723715153544 
1.019999999999904, -0.6739625761473029 
1.029999999999903, -0.670379915037557 
1.039999999999902, -0.6662155148542154 
1.0499999999999008, -0.661787941761447 
1.0599999999998997, -0.6575961229242869 
1.0699999999998986, -0.6541126141123969 
1.0799999999998975, -0.6515784107775802 
1.0899999999998964, -0.6499635814385306 
1.0999999999998953, -0.6490710782912096 
1.1099999999998942, -0.648662617408119 
1.119999999999893, -0.648534697518253 
1.129999999999892, -0.6485422547053253 
1.1399999999998909, -0.6485931483532063 
1.1499999999998898, -0.6486330785676423 
1.1599999999998887, -0.6486308302873456 
1.1699999999998876, -0.6485670663635127 
1.1799999999998865, -0.6484269005075007 
1.1899999999998854, -0.6481957256920884 
1.1999999999998843, -0.6478580089448768 
1.2099999999998832, -0.6473991358116921 
1.219999999999882, -0.6468101518720668 
1.229999999999881, -0.6460938858053368 
1.2399999999998799, -0.6452690347684592 
1.2499999999998788, -0.6443685610882472 
1.2599999999998777, -0.6434319277918258 
1.2699999999998766, -0.6424952064915208 
1.2799999999998755, -0.6415844417246854 
1.2899999999998744, -0.6407147237455165 
1.2999999999998733, -0.6398935854307473 
1.3099999999998722, -0.6391257685900694 
1.319999999999871, -0.638417182483072 
1.32999999999987, -0.6377773715732287 
1.3399999999998689, -0.6372207709509843 
1.3499999999998678, -0.6367672328245317 
1.3599999999998666, -0.6364421192264743 
1.3699999999998655, -0.6362760488581117 
1.3799999999998644, -0.6363043053682482 
1.3899999999998633, -0.6365659123415092 
1.3999999999998622, -0.6371023189265101 
1.4099999999998611, -0.6379553742592404 
1.41999999999986, -0.6391637226901816 
1.429999999999859, -0.6407560415139588 
1.4399999999998578, -0.6427392148481591 
1.4499999999998567, -0.6450808725177382 
1.4599999999998556, -0.6476904745878762 
1.4699999999998545, -0.6504110864729123 
1.4799999999998534, -0.653038239528023 
1.4899999999998523, -0.6553703276363293 
1.4999999999998512, -0.6572675909883612 
1.5099999999998501, -0.6586826772850842 
1.519999999999849, -0.6596477960438349 
1.529999999999848, -0.6602370572360992 
1.5399999999998468, -0.6605310761190278 
1.5499999999998457, -0.6605964422827381 
1.5599999999998446, -0.6604782437653923 
1.5699999999998435, -0.6601991851107437 
1.5799999999998424, -0.6597601358343876 
1.5899999999998413, -0.6591392401881835 
1.5999999999998402, -0.6582882049532739 
1.6099999999998391, -0.6571252911187813 
1.619999999999838, -0.6555260128730078 
1.629999999999837, -0.6533166175895984 
1.6399999999998358, -0.6502845509563109 
1.6499999999998347, -0.64623206795942 
1.6599999999998336, -0.6410936341868234 
1.6699999999998325, -0.6350784787484625 
1.6799999999998314, -0.6287100161976893 
1.6899999999998303, -0.6226615819856965 
1.6999999999998292, -0.6174851204906205 
1.709999999999828, -0.6134426938219503 
1.719999999999827, -0.6105203436556172 
1.729999999999826, -0.6085414133464875 
1.7399999999998248, -0.6072773860050324 
1.7499999999998237, -0.6065148384427909 
1.7599999999998226, -0.6060823896175516 
1.7699999999998215, -0.6058540658449758 
1.7799999999998204, -0.6057423762115473 
1.7899999999998193, -0.6056886507612066 
1.7999999999998182, -0.6056541024626161 
1.809999999999817, -0.6056128775375771 
1.819999999999816, -0.6055473910445437 
1.8299999999998149, -0.6054458820524399 
1.8399999999998138, -0.6053018897835761 
1.8499999999998127, -0.6051149223281421 
1.8599999999998116, -0.6048909670724456 
1.8699999999998105, -0.6046412339491237 
1.8799999999998094, -0.6043784001081633 
1.8899999999998083, -0.6041115351138374 
1.8999999999998072, -0.6038423586391476 
1.909999999999806, -0.6035650294280341 
1.919999999999805, -0.6032694918378932 
1.9299999999998039, -0.6029462819349922 
1.9399999999998028, -0.6025902765326779 
1.9499999999998017, -0.6022022365583238 
1.9599999999998006, -0.6017887493366294 
1.9699999999997995, -0.6013619984394268 
1.9799999999997984, -0.6009405885531317 
1.9899999999997973, -0.6005520965150647 
1.9999999999997962, -0.6002376023240459 
2.0099999999998173, -0.600058191835459 
2.0199999999998384, -0.6001030397913015 
2.0299999999998595, -0.6004977657465713 
2.0399999999998806, -0.6014097571799915 
2.0499999999999017, -0.6030434762251027 
2.059999999999923, -0.6056136186247211 
2.069999999999944, -0.6092812070493768 
2.079999999999965, -0.6140491622762418 
2.089999999999986, -0.6196555674872976 
2.100000000000007, -0.6255599137954803 
2.1100000000000283, -0.6311028174295437 
2.1200000000000494, -0.6357682937885454 
2.1300000000000705, -0.6393477986664092 
2.1400000000000916, -0.6419059736113117 
2.1500000000001127, -0.6436409595355762 
2.160000000000134, -0.6447665517205226 
2.170000000000155, -0.6454575039906768 
2.180000000000176, -0.6458386618449092 
2.190000000000197, -0.6459916081203837 
2.2000000000002182, -0.6459642216516515 
2.2100000000002393, -0.6457778985572475 
2.2200000000002604, -0.6454314327242241 
2.2300000000002815, -0.644902111976481 
2.2400000000003026, -0.6441455394252495 
2.2500000000003237, -0.6430971867948894 
2.260000000000345, -0.6416808515552398 
2.270000000000366, -0.6398300033039541 
2.280000000000387, -0.6375225481342677 
2.290000000000408, -0.6348150436863393 
2.3000000000004293, -0.6318500864576271 
2.3100000000004504, -0.6288222151387053 
2.3200000000004715, -0.6259206763709921 
2.3300000000004926, -0.6232847043572366 
2.3400000000005137, -0.6209900418837387 
2.3500000000005348, -0.6190597553463274 
2.360000000000556, -0.6174832559139289 
2.370000000000577, -0.6162327069526391 
2.380000000000598, -0.6152735788854158 
2.390000000000619, -0.614570273457726 
2.4000000000006403, -0.6140887688729956 
2.4100000000006614, -0.6137978511580959 
2.4200000000006825, -0.6136698211312225 
2.4300000000007036, -0.6136810405465962 
2.4400000000007247, -0.6138123848928585 
2.450000000000746, -0.6140495399552333 
2.460000000000767, -0.6143830013974456 
2.470000000000788, -0.6148075037615778 
2.480000000000809, -0.6153203924446385 
2.49000000000083, -0.6159183251916225 
2.5000000000008513, -0.6165920503023721 
2.5100000000008724, -0.6173202674194931 
2.5200000000008935, -0.6180655140027357 
2.5300000000009146, -0.6187760948003942 
2.5400000000009357, -0.6193959511089155 
2.550000000000957, -0.6198788931496727 
2.560000000000978, -0.6201993643988588 
2.570000000000999, -0.6203540385181665 
2.58000000000102, -0.62035526638845 
2.5900000000010412, -0.6202217820529171 
2.6000000000010624, -0.6199712738314492 
2.6100000000010835, -0.6196163691544453 
2.6200000000011046, -0.6191635151845221 
2.6300000000011257, -0.6186138059940609 
2.6400000000011468, -0.6179652077367374 
2.650000000001168, -0.6172160389355231 
2.660000000001189, -0.6163693631883224 
2.67000000000121, -0.6154365000298399 
2.680000000001231, -0.6144348120213082 
2.6900000000012523, -0.6133725861622932 
2.7000000000012734, -0.6122213788746783 
2.7100000000012945, -0.6109043728790787 
2.7200000000013156, -0.6093528051867225 
2.7300000000013367, -0.6076211402150757 
2.740000000001358, -0.6059281720075593 
2.750000000001379, -0.6045356145814255 
2.7600000000014, -0.6035884602576856 
2.770000000001421, -0.603072406523599 
2.780000000001442, -0.6028773915419767 
2.7900000000014633, -0.6028749655384883 
2.8000000000014844, -0.6029608572295695 
2.8100000000015055, -0.6030649520856987 
2.8200000000015266, -0.6031453575980226 
2.8300000000015477, -0.603178516083066 
2.840000000001569, -0.6031505478150564 
2.85000000000159, -0.6030511413562845 
2.860000000001611, -0.6028699328910061 
2.870000000001632, -0.6025952130187245 
2.8800000000016532, -0.6022150788584699 
2.8900000000016743, -0.6017211234768685 
2.9000000000016954, -0.6011138442351217 
2.9100000000017165, -0.6004072351611317 
2.9200000000017377, -0.5996290333411478 
2.9300000000017588, -0.5988149063975741 
2.94000000000178, -0.5979990433876687 
2.950000000001801, -0.5972063137429013 
2.960000000001822, -0.5964496770729724 
2.970000000001843, -0.5957327203185544 
2.9800000000018643, -0.5950546344373142 
2.9900000000018854, -0.5944149242903323 
3.0000000000019065, -0.5938165990643111 
3.0100000000019276, -0.5932679856602125 
3.0200000000019487, -0.592783900899145 
3.03000000000197, -0.5923868235935669 
3.040000000001991, -0.5921083576164953 
3.050000000002012, -0.5919909696233623 
3.060000000002033, -0.5920897793989874 
3.070000000002054, -0.592473983230738 
3.0800000000020753, -0.5932271248539921 
3.0900000000020964, -0.5944446637131584 
3.1000000000021175, -0.5962259461494767 
3.1100000000021386, -0.5986560468610256 
3.1200000000021597, -0.6017727722153771 
3.130000000002181, -0.6055198065982436 
3.140000000002202, -0.609703554435236 
3.150000000002223, -0.613992679407022 
3.160000000002244, -0.6179949431164796 
3.1700000000022652, -0.6213881776649974 
3.1800000000022863, -0.6240189541206411 
3.1900000000023074, -0.6259051478047574 
3.2000000000023285, -0.627166493875621 
3.2100000000023496, -0.627948841686004 
3.2200000000023707, -0.6283791291280321 
3.230000000002392, -0.6285501194276831 
3.240000000002413, -0.6285206703432304 
3.250000000002434, -0.6283203674090447 
3.260000000002455, -0.627953083968804 
3.2700000000024763, -0.6273976015310422 
3.2800000000024974, -0.6266052013613626 
3.2900000000025185, -0.6254957023247172 
3.3000000000025396, -0.6239563403247553 
3.3100000000025607, -0.6218528329545034 
3.3200000000025818, -0.6190656541368775 
3.330000000002603, -0.6155558557001024 
3.340000000002624, -0.6114335777922567 
3.350000000002645, -0.6069711638638263 
3.360000000002666, -0.6025273456144261 
3.3700000000026873, -0.598427118239389 
3.3800000000027084, -0.5948785343372209 
3.3900000000027295, -0.5919604632898992 
3.4000000000027506, -0.5896567717071919 
3.4100000000027717, -0.5878997172263667 
3.420000000002793, -0.5866026760067418 
3.430000000002814, -0.5856790718311092 
3.440000000002835, -0.585051254454106 
3.450000000002856, -0.5846536421795541 
3.460000000002877, -0.5844330548367418 
3.4700000000028983, -0.5843478330310539 
3.4800000000029194, -0.5843665288240115 
3.4900000000029405, -0.5844665549062882 
3.5000000000029616, -0.5846329812965543 
3.5100000000029827, -0.5848574908973221 
3.520000000003004, -0.585137238766652 
3.530000000003025, -0.585473026268369 
3.540000000003046, -0.5858660419740687 
3.550000000003067, -0.5863128673357163 
3.5600000000030882, -0.5867997693371703 
3.5700000000031094, -0.5872990294689041 
3.5800000000031305, -0.5877706680664118 
3.5900000000031516, -0.5881707189148495 
3.6000000000031727, -0.5884626857561961 
3.6100000000031938, -0.5886258912348766 
3.620000000003215, -0.5886565953852088 
3.630000000003236, -0.5885629636026156 
3.640000000003257, -0.5883580484824669 
3.650000000003278, -0.5880542101675756 
3.6600000000032993, -0.5876601443782838 
3.6700000000033204, -0.5871801972571329 
3.6800000000033415, -0.5866153177226414 
3.6900000000033626, -0.5859652091053217 
3.7000000000033837, -0.5852312979220167 
3.710000000003405, -0.5844194095274973 
3.720000000003426, -0.5835389253491766 
3.730000000003447, -0.5825920978843022 
3.740000000003468, -0.5815480048517555 
3.750000000003489, -0.580312957855837 
3.7600000000035103, -0.5787468129573008 
3.7700000000035314, -0.5767760435200013 
3.7800000000035525, -0.574534453143414 
3.7900000000035736, -0.5723484359863853 
3.8000000000035947, -0.5705414033998645 
3.810000000003616, -0.5692644292108663 
3.820000000003637, -0.5684874634620184 
3.830000000003658, -0.568086571442004 
3.840000000003679, -0.5679250403332139 
3.8500000000037002, -0.5678927417518536 
3.8600000000037213, -0.5679139410064 
3.8700000000037424, -0.5679411304972266 
3.8800000000037635, -0.5679457389835469 
3.8900000000037847, -0.5679101360575423 
3.9000000000038058, -0.567822045053584 
3.910000000003827, -0.5676713480451194 
3.920000000003848, -0.5674491296452674 
3.930000000003869, -0.5671488590636639 
3.94000000000389, -0.5667692920003768 
3.9500000000039113, -0.5663177430623934 
3.9600000000039324, -0.5658113734888557 
3.9700000000039535, -0.5652744348231686 
3.9800000000039746, -0.5647317712670133 
3.9900000000039957, -0.564201731451202 
4.000000000004016, -0.5636922549157733 
4.010000000003993, -0.5632017098612172 
4.02000000000397, -0.5627231703463265 
4.030000000003946, -0.5622494320787133 
4.040000000003923, -0.5617766646784992 
4.0500000000039, -0.5613061944763961 
4.0600000000038765, -0.560845194572448 
4.070000000003853, -0.5604074338304355 
4.08000000000383, -0.5600149682537265 
4.090000000003807, -0.5597012568009494 
4.100000000003783, -0.5595158946844088 
4.11000000000376, -0.5595309059196227 
4.120000000003737, -0.5598480460470203 
4.130000000003713, -0.5606053805789245 
4.14000000000369, -0.5619788547321796 
4.150000000003667, -0.564170054764717 
4.1600000000036434, -0.5673659564179407 
4.17000000000362, -0.571657140671361 
4.180000000003597, -0.5769243672855153 
4.1900000000035735, -0.5827603112122465 
4.20000000000355, -0.5885354165340119 
4.210000000003527, -0.5936330373263585 
4.220000000003504, -0.5976930180452287 
4.23000000000348, -0.6006731624643993 
4.240000000003457, -0.6027357162886855 
4.250000000003434, -0.6041028537983313 
4.26000000000341, -0.6049718017732697 
4.270000000003387, -0.605489041025284 
4.280000000003364, -0.605753305129733 
4.2900000000033405, -0.6058260291308215 
4.300000000003317, -0.6057405639860016 
4.310000000003294, -0.6055081163443442 
4.320000000003271, -0.6051207969552409 
4.330000000003247, -0.6045530916361549 
4.340000000003224, -0.6037639847958904 
4.350000000003201, -0.6027032071944256 
4.360000000003177, -0.6013255237561193 
4.370000000003154, -0.5996137264238708 
4.380000000003131, -0.5976021465641896 
4.390000000003107, -0.5953840690092326 
4.400000000003084, -0.5930918548347821 
4.410000000003061, -0.5908590913654475 
4.4200000000030375, -0.588788074930305 
4.430000000003014, -0.5869377874673372 
4.440000000002991, -0.5853300486490364 
4.450000000002968, -0.5839630858973905 
4.460000000002944, -0.5828240338670575 
4.470000000002921, -0.5818971701618433 
4.480000000002898, -0.5811681396480093 
4.490000000002874, -0.5806255586803504 
4.500000000002851, -0.5802613058429407 
4.510000000002828, -0.5800703740959874 
4.520000000002804, -0.5800507586937461 
4.530000000002781, -0.5802035609829089 
4.540000000002758, -0.5805332605413639 
4.5500000000027345, -0.5810478793858064 
4.560000000002711, -0.5817584665093165 
4.570000000002688, -0.5826769497219982 
4.580000000002665, -0.5838110810433592 
4.590000000002641, -0.5851554450411666 
4.600000000002618, -0.5866792297225001 
4.610000000002595, -0.5883153458860606 
4.620000000002571, -0.5899598518327913 
4.630000000002548, -0.5914896994902155 
4.640000000002525, -0.5927954582001987 
4.6500000000025015, -0.5938111767904963 
4.660000000002478, -0.5945233772790123 
4.670000000002455, -0.594957919430651 
4.6800000000024315, -0.5951579847737093 
4.690000000002408, -0.595165894040737 
4.700000000002385, -0.5950128995375409 
4.710000000002362, -0.5947149196978857 
4.720000000002338, -0.5942706887024994 
4.730000000002315, -0.5936595525740519 
4.740000000002292, -0.5928371172752543 
4.750000000002268, -0.5917276839259186 
4.760000000002245, -0.5902136599700702 
4.770000000002222, -0.5881259794814679 
4.7800000000021985, -0.5852491435468378 
4.790000000002175, -0.5813688475623287 
4.800000000002152, -0.5763886107554443 
4.810000000002129, -0.5704817952271155 
4.820000000002105, -0.564144820158445 
4.830000000002082, -0.5580385966472392 
4.840000000002059, -0.5527151520308945 
4.850000000002035, -0.5484482486230025 
4.860000000002012, -0.545247037206429 
4.870000000001989, -0.5429650639384834 
4.880000000001965, -0.5414039094151422 
4.890000000001942, -0.5403742888259184 
4.900000000001919, -0.5397205735358369 
4.9100000000018955, -0.5393247079782446 
4.920000000001872, -0.539101442992109 
