t, s[1].omega / s[0].omega 
0, -0.529997748050209 
0.009999999999999995, -0.529780241475408 
0.019999999999999934, -0.5295731887176511 
0.029999999999999874, -0.5293643339232815 
0.04000000000000012, -0.5291387432851656 
0.050000000000000405, -0.5288837986178238 
0.06000000000000069, -0.528592163433027 
0.07000000000000098, -0.5282622184213579 
0.08000000000000126, -0.5278969998233658 
0.09000000000000155, -0.5275030973045886 
0.10000000000000184, -0.5270905538445982 
0.11000000000000212, -0.5266742809818952 
0.12000000000000241, -0.5262772242078675 
0.130000000000002, -0.5259353846148604 
0.1400000000000009, -0.5257044315799638 
0.1499999999999998, -0.5256663771188325 
0.1599999999999987, -0.5259317018858671 
0.1699999999999976, -0.5266269220728754 
0.1799999999999965, -0.527852913395497 
0.1899999999999954, -0.5296081111378624 
0.1999999999999943, -0.531712350656758 
0.2099999999999932, -0.53382292399508 
0.2199999999999921, -0.5355972795964252 
0.229999999999991, -0.5368817810352062 
0.2399999999999899, -0.5377379944143328 
0.2499999999999888, -0.5383167094115511 
0.2599999999999877, -0.538740995063112 
0.2699999999999866, -0.5390742424784243 
0.2799999999999855, -0.5393385265038708 
0.2899999999999844, -0.5395382210298809 
0.2999999999999833, -0.5396732203520292 
0.3099999999999822, -0.539743326389509 
0.3199999999999811, -0.539748396319665 
0.32999999999998, -0.5396872330806067 
0.3399999999999789, -0.5395565990398372 
0.3499999999999778, -0.5393509939312533 
0.35999999999997667, -0.5390636558444635 
0.36999999999997557, -0.5386891321990958 
0.37999999999997447, -0.5382272407456591 
0.38999999999997337, -0.5376870820959936 
0.39999999999997227, -0.5370886126143477 
0.40999999999997117, -0.5364596599289532 
0.41999999999997006, -0.535828886166765 
0.42999999999996896, -0.535218188954179 
0.43999999999996786, -0.5346384697722717 
0.44999999999996676, -0.5340902622381243 
0.45999999999996566, -0.5335678130277293 
0.46999999999996456, -0.5330639768680165 
0.47999999999996346, -0.5325739300786094 
0.48999999999996235, -0.532097166290167 
0.49999999999996125, -0.53163838349937 
0.5099999999999602, -0.5312082431973189 
0.519999999999959, -0.5308248012250478 
0.529999999999958, -0.5305160912488248 
0.5399999999999568, -0.5303240970828567 
0.5499999999999557, -0.530310124480965 
0.5599999999999546, -0.5305611264179907 
0.5699999999999535, -0.5311954121554243 
0.5799999999999524, -0.5323637408264892 
0.5899999999999513, -0.5342375652298567 
0.5999999999999502, -0.5369714658578473 
0.6099999999999491, -0.5406287684234943 
0.619999999999948, -0.5450834198159995 
0.6299999999999469, -0.5499632195066899 
0.6399999999999458, -0.5547270217757055 
0.6499999999999447, -0.5588770687773957 
0.6599999999999436, -0.5621508321881961 
0.6699999999999425, -0.5645454208414953 
0.6799999999999414, -0.5662086514929323 
0.6899999999999403, -0.5673224399536594 
0.6999999999999392, -0.5680416833066833 
0.7099999999999381, -0.5684792967469683 
0.719999999999937, -0.568711156889233 
0.7299999999999359, -0.5687850288484371 
0.7399999999999348, -0.5687278327864379 
0.7499999999999337, -0.5685503577937852 
0.7599999999999326, -0.5682500719058716 
0.7699999999999315, -0.5678132001686207 
0.7799999999999304, -0.5672176846090325 
0.7899999999999293, -0.5664389933670695 
0.7999999999999282, -0.5654601496792835 
0.8099999999999271, -0.5642845587292272 
0.819999999999926, -0.5629456693776309 
0.8299999999999249, -0.5615056176469173 
0.8399999999999238, -0.5600406536431568 
0.8499999999999227, -0.5586210119756297 
0.8599999999999216, -0.5572965353437156 
0.8699999999999205, -0.5560934073456639 
0.8799999999999194, -0.5550194090725508 
0.8899999999999183, -0.554072115069258 
0.8999999999999172, -0.5532460005134514 
0.9099999999999161, -0.5525370761609838 
0.919999999999915, -0.551945355437852 
0.9299999999999139, -0.5514759906368816 
0.9399999999999128, -0.551139808213511 
0.9499999999999117, -0.5509536934517064 
0.9599999999999106, -0.5509410351935836 
0.9699999999999095, -0.5511322584162329 
0.9799999999999084, -0.5515652645199566 
0.9899999999999073, -0.5522852452467892 
0.9999999999999062, -0.5533427148064903 
1.0099999999999052, -0.5547876957216498 
1.019999999999904, -0.5566571771256331 
1.029999999999903, -0.5589535982570956 
1.039999999999902, -0.5616168449752709 
1.0499999999999008, -0.5645028216406802 
1.0599999999998997, -0.567391796660849 
1.0699999999998986, -0.5700412688756593 
1.0799999999998975, -0.572262651690029 
1.0899999999998964, -0.5739722245875509 
1.0999999999998953, -0.5751868768848215 
1.1099999999998942, -0.5759821687119872 
1.119999999999893, -0.5764484413421653 
1.129999999999892, -0.5766641920954887 
1.1399999999998909, -0.5766861107159691 
1.1499999999998898, -0.5765480641713057 
1.1599999999998887, -0.576262689000457 
1.1699999999998876, -0.5758222950960656 
1.1799999999998865, -0.5751979570308192 
1.1899999999998854, -0.5743371999254021 
1.1999999999998843, -0.5731626285060638 
1.2099999999998832, -0.5715770220178977 
1.219999999999882, -0.569483723687333 
1.229999999999881, -0.5668287290826821 
1.2399999999998799, -0.5636539884834489 
1.2499999999998788, -0.5601256977438566 
1.2599999999998777, -0.556501338450313 
1.2699999999998766, -0.5530463312248174 
1.2799999999998755, -0.54995656048806 
1.2899999999998744, -0.5473294684891928 
1.2999999999998733, -0.5451797223820989 
1.3099999999998722, -0.543471806672289 
1.319999999999871, -0.5421486539158559 
1.32999999999987, -0.5411496584633164 
1.3399999999998689, -0.5404195817185621 
1.3499999999998678, -0.5399118579244687 
1.3599999999998666, -0.5395891269903437 
1.3699999999998655, -0.5394226777680877 
1.3799999999998644, -0.5393916340436076 
1.3899999999998633, -0.5394822205253869 
1.3999999999998622, -0.5396871754664136 
1.4099999999998611, -0.5400051831198164 
1.41999999999986, -0.5404399712117235 
1.429999999999859, -0.5409984214581651 
1.4399999999998578, -0.5416868009293235 
1.4499999999998567, -0.5425044161485496 
1.4599999999998556, -0.54343518787633 
1.4699999999998545, -0.5444400962081197 
1.4799999999998534, -0.5454559759154439 
1.4899999999998523, -0.5464054708468311 
1.4999999999998512, -0.5472164738873057 
1.5099999999998501, -0.5478410489176107 
1.519999999999849, -0.5482629906928038 
1.529999999999848, -0.5484919242843411 
1.5399999999998468, -0.5485506003899627 
1.5499999999998457, -0.5484630233059076 
1.5599999999998446, -0.5482467365269243 
1.5699999999998435, -0.5479087019690155 
1.5799999999998424, -0.5474427782871355 
1.5899999999998413, -0.5468269044205046 
1.5999999999998402, -0.5460185782523144 
1.6099999999998391, -0.5449478123849663 
1.619999999999838, -0.5435081887071488 
1.629999999999837, -0.5415508340635055 
1.6399999999998358, -0.5388952859892558 
1.6499999999998347, -0.5353814381480315 
1.6599999999998336, -0.5309755743358651 
1.6699999999998325, -0.52588215638423 
1.6799999999998314, -0.5205465397275808 
1.6899999999998303, -0.5154949655182823 
1.6999999999998292, -0.5111272410338443 
1.709999999999828, -0.5076182648758819 
1.719999999999827, -0.5049517233795139 
1.729999999999826, -0.5030072229084885 
1.7399999999998248, -0.5016337548130274 
1.7499999999998237, -0.5006904513925553 
1.7599999999998226, -0.5000620374264397 
1.7699999999998215, -0.49966071940380036 
1.7799999999998204, -0.4994226080803599 
1.7899999999998193, -0.49930283144925414 
1.7999999999998182, -0.49927107842400636 
1.809999999999817, -0.4993081354507048 
1.819999999999816, -0.49940346899181476 
1.8299999999998149, -0.4995536557497287 
1.8399999999998138, -0.499761232642747 
1.8499999999998127, -0.5000332510346823 
1.8599999999998116, -0.5003785964498892 
1.8699999999998105, -0.5008033138289438 
1.8799999999998094, -0.5013041438658631 
1.8899999999998083, -0.501862251483842 
1.8999999999998072, -0.5024408509282385 
1.909999999999806, -0.5029901803510634 
1.919999999999805, -0.5034594915582492 
1.9299999999998039, -0.5038103303803583 
1.9399999999998028, -0.5040237954635347 
1.9499999999998017, -0.5040989765830673 
1.9599999999998006, -0.5040456419430905 
1.9699999999997995, -0.5038760577421801 
1.9799999999997984, -0.5035987760307796 
1.9899999999997973, -0.5032146018465516 
1.9999999999997962, -0.5027135743952847 
2.0099999999998173, -0.5020714909000273 
2.0199999999998384, -0.5012445921385823 
2.0299999999998595, -0.5001613541888652 
2.0399999999998806, -0.4987117333930337 
2.0499999999999017, -0.4967390486878969 
2.059999999999923, -0.494050849572933 
2.069999999999944, -0.49047770329838986 
2.079999999999965, -0.48599379980978175 
2.089999999999986, -0.4808366715314893 
2.100000000000007, -0.47549155452840514 
2.1100000000000283, -0.47049889868760764 
2.1200000000000494, -0.4662376257812412 
2.1300000000000705, -0.4628465237492221 
2.1400000000000916, -0.46028043089388715 
2.1500000000001127, -0.4584056334034437 
2.160000000000134, -0.45707057160330217 
2.170000000000155, -0.45614084956210144 
2.180000000000176, -0.45551018010538147 
2.190000000000197, -0.45509978949773666 
2.2000000000002182, -0.45485387004491146 
2.2100000000002393, -0.45473460203070565 
2.2200000000002604, -0.4547180378248842 
2.2300000000002815, -0.4547911405283364 
2.2400000000003026, -0.4549498578312082 
2.2500000000003237, -0.4551978870582965 
2.260000000000345, -0.4555455369616458 
2.270000000000366, -0.4560077611880368 
2.280000000000387, -0.4566001723707016 
2.290000000000408, -0.45733204370643926 
2.3000000000004293, -0.4581965661815236 
2.3100000000004504, -0.45916133585554963 
2.3200000000004715, -0.46016518423806996 
2.3300000000004926, -0.46112743920014265 
2.3400000000005137, -0.46196887253031715 
2.3500000000005348, -0.4626336057658267 
2.360000000000556, -0.4630991782764566 
2.370000000000577, -0.46337146367977633 
2.380000000000598, -0.4634714310308623 
2.390000000000619, -0.4634223161024523 
2.4000000000006403, -0.46324107495206956 
2.4100000000006614, -0.46293362926813775 
2.4200000000006825, -0.4624918176917017 
2.4300000000007036, -0.46189019340561116 
2.4400000000007247, -0.4610817379666446 
2.450000000000746, -0.45999316108974203 
2.460000000000767, -0.45852360667912545 
2.470000000000788, -0.4565558112513039 
2.480000000000809, -0.4539924329137247 
2.49000000000083, -0.4508201235589578 
2.5000000000008513, -0.447169924055525 
2.5100000000008724, -0.4433137448666972 
2.5200000000008935, -0.43957404430568514 
2.5300000000009146, -0.43620827801428774 
2.5400000000009357, -0.4333491717607786 
2.550000000000957, -0.43101655419587387 
2.560000000000978, -0.42916252015939726 
2.570000000000999, -0.427713364856245 
2.58000000000102, -0.4265953030013513 
2.5900000000010412, -0.4257460800162119 
2.6000000000010624, -0.42511830433961684 
2.6100000000010835, -0.42467908479969074 
2.6200000000011046, -0.4244085886873162 
2.6300000000011257, -0.424298756141564 
2.6400000000011468, -0.42435265085858537 
2.650000000001168, -0.42458453636851495 
2.660000000001189, -0.4250204864689855 
2.67000000000121, -0.42569894624604804 
2.680000000001231, -0.4266699467251125 
2.6900000000012523, -0.4279905051715013 
2.7000000000012734, -0.4297123824502136 
2.7100000000012945, -0.431858329152787 
2.7200000000013156, -0.43438788950216417 
2.7300000000013367, -0.4371673167942126 
2.740000000001358, -0.4399733359196739 
2.750000000001379, -0.4425519040460884 
2.7600000000014, -0.44470688303768646 
2.770000000001421, -0.44635651339670757 
2.780000000001442, -0.4475245426449709 
2.7900000000014633, -0.4482916224651602 
2.8000000000014844, -0.4487490966810471 
2.8100000000015055, -0.4489737320747273 
2.8200000000015266, -0.4490199746263901 
2.8300000000015477, -0.44892068853165135 
2.840000000001569, -0.4486901784929273 
2.85000000000159, -0.4483269554145384 
2.860000000001611, -0.4478160886820418 
2.870000000001632, -0.44713248601484246 
2.8800000000016532, -0.44624743630444524 
2.8900000000016743, -0.44514053444267 
2.9000000000016954, -0.4438159490447714 
2.9100000000017165, -0.44231570608193554 
2.9200000000017377, -0.4407187842907817 
2.9300000000017588, -0.4391216123079375 
2.94000000000178, -0.437610153457193 
2.950000000001801, -0.4362401884371736 
2.960000000001822, -0.4350337336577497 
2.970000000001843, -0.43398744173514425 
2.9800000000018643, -0.433084624527901 
2.9900000000018854, -0.4323052493999242 
3.0000000000019065, -0.43163221266700286 
3.0100000000019276, -0.43105453640372027 
3.0200000000019487, -0.4305688521215161 
3.03000000000197, -0.4301804046321841 
3.040000000001991, -0.42990443998995376 
3.050000000002012, -0.4297685247651459 
3.060000000002033, -0.4298161240864216 
3.070000000002054, -0.43011150972185597 
3.0800000000020753, -0.43074546498536603 
3.0900000000020964, -0.4318397215334831 
3.1000000000021175, -0.4335447290164788 
3.1100000000021386, -0.43601972726899146 
3.1200000000021597, -0.43937908641730383 
3.130000000002181, -0.44359724462767086 
3.140000000002202, -0.44840790400962555 
3.150000000002223, -0.4532998707555894 
3.160000000002244, -0.4576943985807181 
3.1700000000022652, -0.4612063650157577 
3.1800000000022863, -0.46376226877709736 
3.1900000000023074, -0.4655098707469339 
3.2000000000023285, -0.4666631142190716 
3.2100000000023496, -0.46740711746220776 
3.2200000000023707, -0.46787292818229187 
3.230000000002392, -0.46814513168062755 
3.240000000002413, -0.4682758549831595 
3.250000000002434, -0.468295828906 
3.260000000002455, -0.4682214676189906 
3.2700000000024763, -0.46805922148776624 
3.2800000000024974, -0.4678086760063057 
3.2900000000025185, -0.4674656830509492 
3.3000000000025396, -0.46702648209337194 
3.3100000000025607, -0.4664929686881871 
3.3200000000025818, -0.4658777552519545 
3.330000000002603, -0.46520616896638806 
3.340000000002624, -0.46451268212859675 
3.350000000002645, -0.4638323933776272 
3.360000000002666, -0.46319176394092787 
3.3700000000026873, -0.4626033023175948 
3.3800000000027084, -0.4620659914902194 
3.3900000000027295, -0.4615699225662553 
3.4000000000027506, -0.4611021626412783 
3.4100000000027717, -0.4606514272719283 
3.420000000002793, -0.4602106145968118 
3.430000000002814, -0.4597776166917945 
3.440000000002835, -0.4593554543057028 
3.450000000002856, -0.45895273293424993 
3.460000000002877, -0.458585101049109 
3.4700000000028983, -0.45827812136521756 
3.4800000000029194, -0.4580717635203671 
3.4900000000029405, -0.45802632342085703 
3.5000000000029616, -0.4582283879914363 
3.5100000000029827, -0.4587925191580763 
3.520000000003004, -0.459848716171612 
3.530000000003025, -0.4614994126616959 
3.540000000003046, -0.4637349933099899 
3.550000000003067, -0.4663387750579819 
3.5600000000030882, -0.4688867906564626 
3.5700000000031094, -0.4709353141367707 
3.5800000000031305, -0.4722784506305048 
3.5900000000031516, -0.47301273712325687 
3.6000000000031727, -0.4733745983228467 
3.6100000000031938, -0.4735654841757794 
3.620000000003215, -0.47369436674188725 
3.630000000003236, -0.47380030733203904 
3.640000000003257, -0.4738885981129086 
3.650000000003278, -0.47395369105532675 
3.6600000000032993, -0.47398891672574417 
3.6700000000033204, -0.4739890455527599 
3.6800000000033415, -0.4739501164145268 
3.6900000000033626, -0.4738687484401787 
3.7000000000033837, -0.4737419066819354 
3.710000000003405, -0.47356755342617 
3.720000000003426, -0.4733462814573327 
3.730000000003447, -0.4730835144626435 
3.740000000003468, -0.47279112312393223 
3.750000000003489, -0.47248685464902207 
3.7600000000035103, -0.4721906304489404 
3.7700000000035314, -0.4719186209063245 
3.7800000000035525, -0.4716777644530751 
3.7900000000035736, -0.47146352090158394 
3.8000000000035947, -0.47126196955692806 
3.810000000003616, -0.4710550465954261 
3.820000000003637, -0.47082621415812725 
3.830000000003658, -0.47056408487727086 
3.840000000003679, -0.47026318253663824 
3.8500000000037002, -0.4699227012917433 
3.8600000000037213, -0.4695447257701046 
3.8700000000037424, -0.4691329915708411 
3.8800000000037635, -0.46869262170448966 
3.8900000000037847, -0.46823081573292286 
3.9000000000038058, -0.46775813866916127 
3.910000000003827, -0.4672894751411971 
3.920000000003848, -0.4668423262216465 
3.930000000003869, -0.46642752962128275 
3.94000000000389, -0.4660250100328972 
3.9500000000039113, -0.4655420559144715 
3.9600000000039324, -0.46477884462328484 
3.9700000000039535, -0.4634720739121702 
3.9800000000039746, -0.46146941158484844 
3.9900000000039957, -0.45891598497312075 
4.000000000004016, -0.4562194795719458 
4.010000000003993, -0.45379968303019025 
4.02000000000397, -0.4518875638698878 
4.030000000003946, -0.45051132623302675 
4.040000000003923, -0.4495848482393261 
4.0500000000039, -0.4489907270332978 
4.0600000000038765, -0.44862365033937907 
4.070000000003853, -0.44840365043304187 
4.08000000000383, -0.4482750891199835 
4.090000000003807, -0.4482012454869871 
4.100000000003783, -0.4481588368937632 
4.11000000000376, -0.4481338736646544 
4.120000000003737, -0.4481190615978295 
4.130000000003713, -0.4481125543217469 
4.14000000000369, -0.4481176385562339 
4.150000000003667, -0.448142649381677 
4.1600000000036434, -0.4482000956372116 
4.17000000000362, -0.4483039536549052 
4.180000000003597, -0.44846475489419124 
4.1900000000035735, -0.44868347251436785 
4.20000000000355, -0.4489467139728781 
4.210000000003527, -0.44922630523090323 
4.220000000003504, -0.44948491116632716 
4.23000000000348, -0.4496858521485988 
4.240000000003457, -0.44980215501250875 
4.250000000003434, -0.4498203424684453 
4.26000000000341, -0.44973828218220835 
4.270000000003387, -0.4495597599660367 
4.280000000003364, -0.4492888041924016 
4.2900000000033405, -0.4489251660595455 
4.300000000003317, -0.44846073496770095 
4.310000000003294, -0.44787581972999674 
4.320000000003271, -0.4471339292889465 
4.330000000003247, -0.4461737022612297 
4.340000000003224, -0.44489749475386847 
4.350000000003201, -0.4431599086285806 
4.360000000003177, -0.440769727593454 
4.370000000003154, -0.4375340062584649 
4.380000000003131, -0.43336946516088626 
4.390000000003107, -0.42843997847244103 
4.400000000003084, -0.42318450595140006 
4.410000000003061, -0.41815088833190117 
4.4200000000030375, -0.41376094181951845 
4.430000000003014, -0.41019808010492476 
4.440000000002991, -0.40744693064488874 
4.450000000002968, -0.40538964779025627 
4.460000000002944, -0.4038826103833255 
4.470000000002921, -0.4027959096739628 
4.480000000002898, -0.40202653040404446 
4.490000000002874, -0.40149871044698643 
4.500000000002851, -0.4011598613096334 
4.510000000002828, -0.4009759599396256 
4.520000000002804, -0.4009278498904287 
4.530000000002781, -0.401008784298621 
4.540000000002758, -0.4012230933151579 
4.5500000000027345, -0.4015856118579936 
4.560000000002711, -0.4021211939859414 
4.570000000002688, -0.4028631164511947 
4.580000000002665, -0.4038484374418637 
4.590000000002641, -0.40510780515735495 
4.600000000002618, -0.4066480025871506 
4.610000000002595, -0.4084298203550535 
4.620000000002571, -0.41035252982338777 
4.630000000002548, -0.4122628154637165 
4.640000000002525, -0.41399605668309725 
4.6500000000025015, -0.4154299189356697 
4.660000000002478, -0.41651462088950264 
4.670000000002455, -0.4172650077308283 
4.6800000000024315, -0.417730870419921 
4.690000000002408, -0.41796884815855473 
4.700000000002385, -0.418026154826243 
4.710000000002362, -0.41793450234706986 
4.720000000002338, -0.41770923776392543 
4.730000000002315, -0.4173500879682857 
4.740000000002292, -0.41684212384776487 
4.750000000002268, -0.41615744341487615 
4.760000000002245, -0.4152597042253383 
4.770000000002222, -0.4141146202096266 
4.7800000000021985, -0.412707957871675 
4.790000000002175, -0.41106610117068365 
4.800000000002152, -0.4092656834591102 
4.810000000002129, -0.40741953772149564 
4.820000000002105, -0.405642975046116 
4.830000000002082, -0.40402138154060524 
4.840000000002059, -0.40259683333514423 
4.850000000002035, -0.40137407498208744 
4.860000000002012, -0.4003352617612032 
4.870000000001989, -0.3994539847211665 
4.880000000001965, -0.39870471035960453 
4.890000000001942, -0.39806777111320135 
