t, s[1].omega / s[0].omega 
0, -0.5399977450789104 
0.009999999999999995, -0.5397779542549443 
0.019999999999999934, -0.5395650518337284 
0.029999999999999874, -0.5393477673327436 
0.04000000000000012, -0.5391124740636988 
0.050000000000000405, -0.5388478469852225 
0.06000000000000069, -0.5385476029171311 
0.07000000000000098, -0.5382108972265821 
0.08000000000000126, -0.5378413807056908 
0.09000000000000155, -0.5374462933464886 
0.10000000000000184, -0.5370365757215929 
0.11000000000000212, -0.536628488237867 
0.12000000000000241, -0.5362469715893269 
0.130000000000002, -0.5359308534228512 
0.1400000000000009, -0.5357396352439284 
0.1499999999999998, -0.5357603780498017 
0.1599999999999987, -0.5361103054476928 
0.1699999999999976, -0.5369256934963277 
0.1799999999999965, -0.5383230219942324 
0.1899999999999954, -0.5403252285761704 
0.1999999999999943, -0.5427818075625136 
0.2099999999999932, -0.5453644573359633 
0.2199999999999921, -0.5477009911637339 
0.229999999999991, -0.5495626517204053 
0.2399999999999899, -0.5509302287028942 
0.2499999999999888, -0.5519087356892155 
0.2599999999999877, -0.5526167353726461 
0.2699999999999866, -0.5531368943096767 
0.2799999999999855, -0.5535165662044931 
0.2899999999999844, -0.5537821934982396 
0.2999999999999833, -0.5539499464780185 
0.3099999999999822, -0.5540305158009678 
0.3199999999999811, -0.5540304601869402 
0.32999999999998, -0.5539522066209218 
0.3399999999999789, -0.5537938549396608 
0.3499999999999778, -0.5535494657165909 
0.35999999999997667, -0.5532104458048499 
0.36999999999997557, -0.5527686089126159 
0.37999999999997447, -0.5522209688661095 
0.38999999999997337, -0.5515749836523379 
0.39999999999997227, -0.550851403495673 
0.40999999999997117, -0.5500819065294574 
0.41999999999997006, -0.5493015525443959 
0.42999999999996896, -0.5485398167999354 
0.43999999999996786, -0.5478149063064953 
0.44999999999996676, -0.5471334209419094 
0.45999999999996566, -0.5464940459534686 
0.46999999999996456, -0.5458925032707079 
0.47999999999996346, -0.5453256284513892 
0.48999999999996235, -0.544793893970872 
0.49999999999996125, -0.5443028058820334 
0.5099999999999602, -0.5438639717335265 
0.519999999999959, -0.5434964947089693 
0.529999999999958, -0.5432290544457399 
0.5399999999999568, -0.543102779372439 
0.5499999999999557, -0.5431747789306746 
0.5599999999999546, -0.5435218255863855 
0.5699999999999535, -0.5442428867102681 
0.5799999999999524, -0.5454576501043823 
0.5899999999999513, -0.547295661614585 
0.5999999999999502, -0.5498681051139166 
0.6099999999999491, -0.5532157407410839 
0.619999999999948, -0.5572407019969552 
0.6299999999999469, -0.5616610918773604 
0.6399999999999458, -0.5660498256374674 
0.6499999999999447, -0.5699757627710073 
0.6599999999999436, -0.573162089218987 
0.6699999999999425, -0.5755450276875236 
0.6799999999999414, -0.5772165538708894 
0.6899999999999403, -0.5783293894210821 
0.6999999999999392, -0.5790305293838469 
0.7099999999999381, -0.5794346196519354 
0.719999999999937, -0.5796211761064707 
0.7299999999999359, -0.5796402244745864 
0.7399999999999348, -0.5795185913184203 
0.7499999999999337, -0.5792643351215362 
0.7599999999999326, -0.5788691987358284 
0.7699999999999315, -0.578310062661351 
0.7799999999999304, -0.5775513070432325 
0.7899999999999293, -0.5765509931992353 
0.7999999999999282, -0.5752738397705581 
0.8099999999999271, -0.5737107932007343 
0.819999999999926, -0.5718976019177623 
0.8299999999999249, -0.5699187990418343 
0.8399999999999238, -0.5678892284029036 
0.8499999999999227, -0.5659220328931651 
0.8599999999999216, -0.5641022243131353 
0.8699999999999205, -0.5624775437516212 
0.8799999999999194, -0.5610642417830352 
0.8899999999999183, -0.5598588541482686 
0.8999999999999172, -0.5588490048058381 
0.9099999999999161, -0.558020605435868 
0.919999999999915, -0.5573616576417268 
0.9299999999999139, -0.5568638143347149 
0.9399999999999128, -0.5565227893686183 
0.9499999999999117, -0.5563383438439918 
0.9599999999999106, -0.5563142430163563 
0.9699999999999095, -0.5564583291746504 
0.9799999999999084, -0.5567826470972237 
0.9899999999999073, -0.557303315945033 
0.9999999999999062, -0.5580394992969471 
1.0099999999999052, -0.5590103829170582 
1.019999999999904, -0.5602287307582339 
1.029999999999903, -0.5616899826872125 
1.039999999999902, -0.5633580880866911 
1.0499999999999008, -0.5651539895421475 
1.0599999999998997, -0.5669574102513746 
1.0699999999998986, -0.5686301026373186 
1.0799999999998975, -0.5700541726677314 
1.0899999999998964, -0.571163597811344 
1.0999999999998953, -0.5719503882292917 
1.1099999999998942, -0.5724473556587854 
1.119999999999893, -0.5727036289094114 
1.129999999999892, -0.5727659827845749 
1.1399999999998909, -0.572669144854069 
1.1499999999998898, -0.5724322544581465 
1.1599999999998887, -0.5720577084399647 
1.1699999999998876, -0.5715297641345982 
1.1799999999998865, -0.5708115245989134 
1.1899999999998854, -0.5698400690177097 
1.1999999999998843, -0.5685213307336643 
1.2099999999998832, -0.5667301823660107 
1.219999999999882, -0.564327319081941 
1.229999999999881, -0.5612074256808838 
1.2399999999998799, -0.5573774652985185 
1.2499999999998788, -0.5530219305552315 
1.2599999999998777, -0.5484853512298615 
1.2699999999998766, -0.5441568777335866 
1.2799999999998755, -0.5403364792354941 
1.2899999999998744, -0.5371715573358402 
1.2999999999998733, -0.5346747088045654 
1.3099999999998722, -0.5327773330254483 
1.319999999999871, -0.5313787145806314 
1.32999999999987, -0.5303765155568875 
1.3399999999998689, -0.5296809936262559 
1.3499999999998678, -0.5292193598435686 
1.3599999999998666, -0.5289353900110954 
1.3699999999998655, -0.5287872627317737 
1.3799999999998644, -0.5287450728915619 
1.3899999999998633, -0.5287886310169493 
1.3999999999998622, -0.528905743290357 
1.4099999999998611, -0.529090927209019 
1.41999999999986, -0.5293442885210272 
1.429999999999859, -0.5296700044956097 
1.4399999999998578, -0.5300736280444488 
1.4499999999998567, -0.5305575551350011 
1.4599999999998556, -0.5311148784878146 
1.4699999999998545, -0.5317235564162555 
1.4799999999998534, -0.5323445067701902 
1.4899999999998523, -0.5329269309296772 
1.4999999999998512, -0.5334203590890024 
1.5099999999998501, -0.5337876332311036 
1.519999999999849, -0.534011671534962 
1.529999999999848, -0.5340934695743322 
1.5399999999998468, -0.5340445669224189 
1.5499999999998457, -0.5338788784768311 
1.5599999999998446, -0.5336066832111317 
1.5699999999998435, -0.5332309661652861 
1.5799999999998424, -0.5327450012661676 
1.5899999999998413, -0.5321298283538347 
1.5999999999998402, -0.531350399053663 
1.6099999999998391, -0.530349339514964 
1.619999999999838, -0.5290379590334744 
1.629999999999837, -0.5272870282725981 
1.6399999999998358, -0.5249280229694271 
1.6499999999998347, -0.5217888735991878 
1.6599999999998336, -0.5177887065168489 
1.6699999999998325, -0.5130646189366665 
1.6799999999998314, -0.5080157453659525 
1.6899999999998303, -0.5031700521326574 
1.6999999999998292, -0.49896026631029544 
1.709999999999828, -0.4955917335686094 
1.719999999999827, -0.49306059944401814 
1.729999999999826, -0.4912449762261096 
1.7399999999998248, -0.48998744401526106 
1.7499999999998237, -0.4891415585378004 
1.7599999999998226, -0.48858915584215346 
1.7699999999998215, -0.48824199162474136 
1.7799999999998204, -0.48803725960878686 
1.7899999999998193, -0.4879318355370604 
1.7999999999998182, -0.48789720078381194 
1.809999999999817, -0.4879156176124325 
1.819999999999816, -0.48797756036011897 
1.8299999999998149, -0.48808015629901436 
1.8399999999998138, -0.48822617701299914 
1.8499999999998127, -0.4884228508363462 
1.8599999999998116, -0.48867955863885637 
1.8699999999998105, -0.48900365862660317 
1.8799999999998094, -0.489394602581046 
1.8899999999998083, -0.48983811716067616 
1.8999999999998072, -0.490303722625674 
1.909999999999806, -0.4907486417353101 
1.919999999999805, -0.4911279658240383 
1.9299999999998039, -0.4914063460737804 
1.9399999999998028, -0.4915648930832427 
1.9499999999998017, -0.49160052164940726 
1.9599999999998006, -0.49152000455844413 
1.9699999999997995, -0.4913328591071887 
1.9799999999997984, -0.4910456782487002 
1.9899999999997973, -0.4906582735452574 
1.9999999999997962, -0.4901606975634851 
2.0099999999998173, -0.4895298400701715 
2.0199999999998384, -0.48872430776629583 
2.0299999999998595, -0.4876765708581183 
2.0399999999998806, -0.486282689253786 
2.0499999999999017, -0.484394554308034 
2.059999999999923, -0.48183020047105557 
2.069999999999944, -0.4784295395566895 
2.079999999999965, -0.47416827321801136 
2.089999999999986, -0.4692703604061791 
2.100000000000007, -0.4641927857575164 
2.1100000000000283, -0.45944459603065396 
2.1200000000000494, -0.4553835137100143 
2.1300000000000705, -0.4521418985266238 
2.1400000000000916, -0.4496790233193323 
2.1500000000001127, -0.4478704210178819 
2.160000000000134, -0.44657436778300647 
2.170000000000155, -0.44566496767608815 
2.180000000000176, -0.4450426168063558 
2.190000000000197, -0.4446335741821513 
2.2000000000002182, -0.444385782895872 
2.2100000000002393, -0.4442642726371213 
2.2200000000002604, -0.4442473724474369 
2.2300000000002815, -0.4443240111804988 
2.2400000000003026, -0.44449198349556396 
2.2500000000003237, -0.4447568314369293 
2.260000000000345, -0.4451307326783248 
2.270000000000366, -0.44563044293115583 
2.280000000000387, -0.44627305327829553 
2.290000000000408, -0.4470685050746878 
2.3000000000004293, -0.44800912300835627 
2.3100000000004504, -0.44905937156724657 
2.3200000000004715, -0.45015254926445936 
2.3300000000004926, -0.4512011437984489 
2.3400000000005137, -0.45211992157413494 
2.3500000000005348, -0.4528497288321459 
2.360000000000556, -0.45336797257452754 
2.370000000000577, -0.4536825589495022 
2.380000000000598, -0.45381732931339647 
2.390000000000619, -0.45379836259416306 
2.4000000000006403, -0.4536451592978105 
2.4100000000006614, -0.4533660347588075 
2.4200000000006825, -0.4529554885455028 
2.4300000000007036, -0.4523917082423388 
2.4400000000007247, -0.45163345941300037 
2.450000000000746, -0.45061728198515255 
2.460000000000767, -0.44925875150785577 
2.470000000000788, -0.4474654582698485 
2.480000000000809, -0.445170400950272 
2.49000000000083, -0.4423832665726519 
2.5000000000008513, -0.439230520245183 
2.5100000000008724, -0.43594097824902567 
2.5200000000008935, -0.4327700549624752 
2.5300000000009146, -0.4299144583470804 
2.5400000000009357, -0.42747285170532 
2.550000000000957, -0.4254582274184145 
2.560000000000978, -0.42383276256563274 
2.570000000000999, -0.4225394344028956 
2.58000000000102, -0.4215215423226226 
2.5900000000010412, -0.420731764491409 
2.6000000000010624, -0.4201350043709944 
2.6100000000010835, -0.41970844020076986 
2.6200000000011046, -0.4194407888912104 
2.6300000000011257, -0.41933177867062216 
2.6400000000011468, -0.419392243986735 
2.650000000001168, -0.41964492548070087 
2.660000000001189, -0.420125762563521 
2.67000000000121, -0.420884979572773 
2.680000000001231, -0.4219863337921404 
2.6900000000012523, -0.42350132919092964 
2.7000000000012734, -0.4254933793405131 
2.7100000000012945, -0.4279870095790984 
2.7200000000013156, -0.4309244442225368 
2.7300000000013367, -0.4341307602894807 
2.740000000001358, -0.4373273021969365 
2.750000000001379, -0.4402148554405033 
2.7600000000014, -0.44258305358250105 
2.770000000001421, -0.4443655525186684 
2.780000000001442, -0.44561355982903317 
2.7900000000014633, -0.4464318997002015 
2.8000000000014844, -0.44692769330454507 
2.8100000000015055, -0.4471865787709707 
2.8200000000015266, -0.44726800062760086 
2.8300000000015477, -0.4472083376122124 
2.840000000001569, -0.44702545996846954 
2.85000000000159, -0.44672252112150634 
2.860000000001611, -0.44629106597971974 
2.870000000001632, -0.4457146950566503 
2.8800000000016532, -0.44497505901752127 
2.8900000000016743, -0.4440614190405336 
2.9000000000016954, -0.4429823988504335 
2.9100000000017165, -0.44177432362061575 
2.9200000000017377, -0.440498816061888 
2.9300000000017588, -0.43922781956811974 
2.94000000000178, -0.43802379340474407 
2.950000000001801, -0.4369262419404619 
2.960000000001822, -0.43594961750553757 
2.970000000001843, -0.4350896879667473 
2.9800000000018643, -0.43433260410358604 
2.9900000000018854, -0.4336625710641419 
3.0000000000019065, -0.43306673533917966 
3.0100000000019276, -0.4325376986649565 
3.0200000000019487, -0.4320747447337351 
3.03000000000197, -0.43168483607886055 
3.040000000001991, -0.4313841580942691 
3.050000000002012, -0.43120072332926923 
3.060000000002033, -0.43117835010521954 
3.070000000002054, -0.43138204550473735 
3.0800000000020753, -0.43190408477222597 
3.0900000000020964, -0.43286819912274377 
3.1000000000021175, -0.43442529187602713 
3.1100000000021386, -0.43672782848300973 
3.1200000000021597, -0.4398662753117571 
3.130000000002181, -0.44376646370304373 
3.140000000002202, -0.4481024615024814 
3.150000000002223, -0.4523408359646073 
3.160000000002244, -0.45596520515834005 
3.1700000000022652, -0.4587163205499817 
3.1800000000022863, -0.46063129108032863 
3.1900000000023074, -0.46190261747438743 
3.2000000000023285, -0.4627328716758935 
3.2100000000023496, -0.4632723933329602 
3.2200000000023707, -0.4636169751768352 
3.230000000002392, -0.46382407802892367 
3.240000000002413, -0.4639275874024712 
3.250000000002434, -0.4639471012903578 
3.260000000002455, -0.4638930683184694 
3.2700000000024763, -0.46376967768163224 
3.2800000000024974, -0.4635769300940581 
3.2900000000025185, -0.46331288923823344 
3.3000000000025396, -0.4629767186432142 
3.3100000000025607, -0.46257243109618873 
3.3200000000025818, -0.4621121870222896 
3.330000000002603, -0.46161706013038384 
3.340000000002624, -0.4611136678005483 
3.350000000002645, -0.46062737620051253 
3.360000000002666, -0.46017526453353935 
3.3700000000026873, -0.4597623425190056 
3.3800000000027084, -0.45938244934446804 
3.3900000000027295, -0.4590226838328021 
3.4000000000027506, -0.45866882010793536 
3.4100000000027717, -0.4583094084046825 
3.420000000002793, -0.4579376098262631 
3.430000000002814, -0.4575512216772678 
3.440000000002835, -0.45715201155038143 
3.450000000002856, -0.45674536521437553 
3.460000000002877, -0.4563408357647841 
3.4700000000028983, -0.45595382942414925 
3.4800000000029194, -0.4556083913247043 
3.4900000000029405, -0.45534056571386844 
3.5000000000029616, -0.45520053362028995 
3.5100000000029827, -0.45524893295993457 
3.520000000003004, -0.4555384454527441 
3.530000000003025, -0.4560701807690523 
3.540000000003046, -0.45672990475962044 
3.550000000003067, -0.4572569961820682 
3.5600000000030882, -0.4573378494064461 
3.5700000000031094, -0.4568192420433738 
3.5800000000031305, -0.45583757726412066 
3.5900000000031516, -0.45470422229116025 
3.6000000000031727, -0.45368928495198857 
3.6100000000031938, -0.4529172829395409 
3.620000000003215, -0.45239265883491697 
3.630000000003236, -0.45206402342483604 
3.640000000003257, -0.451869912711753 
3.650000000003278, -0.45175874668702437 
3.6600000000032993, -0.45169321973917126 
3.6700000000033204, -0.45164837796699064 
3.6800000000033415, -0.4516082641175195 
3.6900000000033626, -0.45156307037945426 
3.7000000000033837, -0.4515073770930235 
3.710000000003405, -0.4514395270861068 
3.720000000003426, -0.4513619062356691 
3.730000000003447, -0.4512815590223558 
3.740000000003468, -0.4512101577658692 
3.750000000003489, -0.45116220887409597 
3.7600000000035103, -0.4511509820098265 
3.7700000000035314, -0.4511830071292232 
3.7800000000035525, -0.45125337431772683 
3.7900000000035736, -0.4513444726979534 
3.8000000000035947, -0.45142957634893355 
3.810000000003616, -0.4514800844458132 
3.820000000003637, -0.451472869849973 
3.830000000003658, -0.45139420186379364 
3.840000000003679, -0.45123920098517595 
3.8500000000037002, -0.4510083744868436 
3.8600000000037213, -0.4507034711605347 
3.8700000000037424, -0.450323968055209 
3.8800000000037635, -0.4498642894547286 
3.8900000000037847, -0.44931107446843355 
3.9000000000038058, -0.4486393789704103 
3.910000000003827, -0.44780634764633714 
3.920000000003848, -0.4467407636952723 
3.930000000003869, -0.4453283763148934 
3.94000000000389, -0.4433998398943366 
3.9500000000039113, -0.4407447884529801 
3.9600000000039324, -0.43719141972597264 
3.9700000000039535, -0.4327575379535987 
3.9800000000039746, -0.4277651390857284 
3.9900000000039957, -0.4227590079175266 
4.000000000004016, -0.4182558445101769 
4.010000000003993, -0.41454711579359077 
4.02000000000397, -0.4116822798718913 
4.030000000003946, -0.4095625105752879 
4.040000000003923, -0.4080373777833243 
4.0500000000039, -0.4069615932899516 
4.0600000000038765, -0.4062169202260358 
4.070000000003853, -0.40571532321898635 
4.08000000000383, -0.40539491156780816 
4.090000000003807, -0.4052144195281193 
4.100000000003783, -0.405148441972336 
4.11000000000376, -0.40518401071429666 
4.120000000003737, -0.40531845081851464 
4.130000000003713, -0.40555818446405534 
4.14000000000369, -0.40591791923823123 
4.150000000003667, -0.4064193136334405 
4.1600000000036434, -0.40708776541007713 
4.17000000000362, -0.407945681764435 
4.180000000003597, -0.4090011408469264 
4.1900000000035735, -0.41023333645696347 
4.20000000000355, -0.411581093268263 
4.210000000003527, -0.41294503718174563 
4.220000000003504, -0.4142101152563786 
4.23000000000348, -0.41528006973842696 
4.240000000003457, -0.41610287610784635 
4.250000000003434, -0.416673047834481 
4.26000000000341, -0.41701571490226386 
4.270000000003387, -0.4171668203938349 
4.280000000003364, -0.4171589386747579 
4.2900000000033405, -0.4170140807476968 
4.300000000003317, -0.4167408966973215 
4.310000000003294, -0.4163335744126373 
4.320000000003271, -0.4157710683001879 
4.330000000003247, -0.415016936646382 
4.340000000003224, -0.4140219882066417 
4.350000000003201, -0.4127338779535882 
4.360000000003177, -0.4111176053621337 
4.370000000003154, -0.4091843199124421 
4.380000000003131, -0.40701267128417695 
4.390000000003107, -0.4047407788561336 
4.400000000003084, -0.4025250036486853 
4.410000000003061, -0.40049116282575586 
4.4200000000030375, -0.3987084603609396 
4.430000000003014, -0.39719278982341844 
4.440000000002991, -0.39592567935992173 
4.450000000002968, -0.3948739099380394 
4.460000000002944, -0.39400303695361455 
4.470000000002921, -0.3932845603486252 
4.480000000002898, -0.39269889552590753 
4.490000000002874, -0.39223633722046664 
4.500000000002851, -0.39189754906384466 
4.510000000002828, -0.3916944974007581 
4.520000000002804, -0.39165235279669897 
4.530000000002781, -0.39181263412099276 
4.540000000002758, -0.3922375689165764 
4.5500000000027345, -0.3930149373318795 
4.560000000002711, -0.39426094548066165 
4.570000000002688, -0.39611510517183707 
4.580000000002665, -0.3987155796121613 
4.590000000002641, -0.40214022256303233 
4.600000000002618, -0.40631222124981703 
4.610000000002595, -0.410918324887677 
4.620000000002571, -0.41544339799922386 
4.630000000002548, -0.41937142959164114 
4.640000000002525, -0.42241512777528084 
4.6500000000025015, -0.4245742678520131 
4.660000000002478, -0.4260201151796862 
4.670000000002455, -0.42695635304021085 
4.6800000000024315, -0.4275474754143788 
4.690000000002408, -0.4279058808778632 
4.700000000002385, -0.4281025124459177 
4.710000000002362, -0.42818027890813787 
4.720000000002338, -0.42816397182465826 
4.730000000002315, -0.42806656090939416 
4.740000000002292, -0.4278932427875956 
4.750000000002268, -0.4276446196842059 
4.760000000002245, -0.4273200630335884 
4.770000000002222, -0.42692175377636526 
4.7800000000021985, -0.42645887795973436 
4.790000000002175, -0.42595019890596664 
4.800000000002152, -0.4254227985054163 
4.810000000002129, -0.4249063368093197 
4.820000000002105, -0.4244250752524635 
4.830000000002082, -0.42399158801249126 
4.840000000002059, -0.42360498669075153 
4.850000000002035, -0.42325380440815585 
4.860000000002012, -0.4229215164684822 
4.870000000001989, -0.4225920052832658 
4.880000000001965, -0.4222530330249363 
