t, s[1].omega / s[0].omega 
0, -0.6299977169475421 
0.009999999999999995, -0.6297664482491597 
0.019999999999999934, -0.6295250299354544 
0.029999999999999874, -0.6292628398977389 
0.04000000000000012, -0.6289680522959007 
0.050000000000000405, -0.6286327325792493 
0.06000000000000069, -0.6282556531155346 
0.07000000000000098, -0.6278427367457284 
0.08000000000000126, -0.6274066295174895 
0.09000000000000155, -0.626967091311814 
0.10000000000000184, -0.6265532460384742 
0.11000000000000212, -0.626208067417389 
0.12000000000000241, -0.6259950492250428 
0.130000000000002, -0.6260066124264702 
0.1400000000000009, -0.6263730737125408 
0.1499999999999998, -0.6272695184152033 
0.1599999999999987, -0.628915160749548 
0.1699999999999976, -0.6315553645483492 
0.1799999999999965, -0.6354117538795937 
0.1899999999999954, -0.6405877671411512 
0.1999999999999943, -0.6469417988194109 
0.2099999999999932, -0.6539986339580321 
0.2199999999999921, -0.6610164249248657 
0.229999999999991, -0.6672469220037704 
0.2399999999999899, -0.6722260048242676 
0.2499999999999888, -0.6758715155064896 
0.2599999999999877, -0.678366963379387 
0.2699999999999866, -0.6799867841876448 
0.2799999999999855, -0.6809827206196046 
0.2899999999999844, -0.6815437605724284 
0.2999999999999833, -0.6817962486591819 
0.3099999999999822, -0.6818161539108727 
0.3199999999999811, -0.6816405002148559 
0.32999999999998, -0.6812739973726238 
0.3399999999999789, -0.6806904167390911 
0.3499999999999778, -0.6798295129308018 
0.35999999999997667, -0.678591814295834 
0.36999999999997557, -0.6768372920763776 
0.37999999999997447, -0.6744003168866604 
0.38999999999997337, -0.6711373578141873 
0.39999999999997227, -0.6670104485973966 
0.40999999999997117, -0.6621679526464797 
0.41999999999997006, -0.6569499698422461 
0.42999999999996896, -0.651787173332253 
0.43999999999996786, -0.6470579025655455 
0.44999999999996676, -0.6429980805662014 
0.45999999999996566, -0.639693656401137 
0.46999999999996456, -0.6371218289663894 
0.47999999999996346, -0.6351997489145946 
0.48999999999996235, -0.6338208458050767 
0.49999999999996125, -0.6328765089396406 
0.5099999999999602, -0.6322672609238861 
0.519999999999959, -0.6319076841421094 
0.529999999999958, -0.6317278439496271 
0.5399999999999568, -0.6316727314805725 
0.5499999999999557, -0.6317006342525815 
0.5599999999999546, -0.6317811051916171 
0.5699999999999535, -0.6318930667665767 
0.5799999999999524, -0.632023365116021 
0.5899999999999513, -0.6321656778480257 
0.5999999999999502, -0.6323191365924808 
0.6099999999999491, -0.63248570631276 
0.619999999999948, -0.6326658355692989 
0.6299999999999469, -0.6328533462463402 
0.6399999999999458, -0.6330321240701402 
0.6499999999999447, -0.6331772956055587 
0.6599999999999436, -0.633261303687122 
0.6699999999999425, -0.6332618977760792 
0.6799999999999414, -0.6331676088821734 
0.6899999999999403, -0.6329783967344585 
0.6999999999999392, -0.6327027088708125 
0.7099999999999381, -0.6323539607120429 
0.719999999999937, -0.6319488614527975 
0.7299999999999359, -0.63150870967649 
0.7399999999999348, -0.6310640764764093 
0.7499999999999337, -0.6306632750427907 
0.7599999999999326, -0.6303851094402784 
0.7699999999999315, -0.6303557975418181 
0.7799999999999304, -0.6307675468711186 
0.7899999999999293, -0.6318904003031293 
0.7999999999999282, -0.6340583709739762 
0.8099999999999271, -0.6375990017161166 
0.819999999999926, -0.6426808978291645 
0.8299999999999249, -0.6491138563054337 
0.8399999999999238, -0.6562529464507375 
0.8499999999999227, -0.6631851757074051 
0.8599999999999216, -0.6691356574246503 
0.8699999999999205, -0.6737556433612165 
0.8799999999999194, -0.6770932664398475 
0.8899999999999183, -0.6793911748594175 
0.8999999999999172, -0.6809183501154579 
0.9099999999999161, -0.6818959794663731 
0.919999999999915, -0.6824838252924407 
0.9299999999999139, -0.6827888776292006 
0.9399999999999128, -0.6828773652101122 
0.9499999999999117, -0.6827839421967065 
0.9599999999999106, -0.6825169092173049 
0.9699999999999095, -0.6820598907662064 
0.9799999999999084, -0.6813711617203267 
0.9899999999999073, -0.6803831713045432 
0.9999999999999062, -0.6790073478524512 
1.0099999999999052, -0.6771518359363403 
1.019999999999904, -0.6747575325851858 
1.029999999999903, -0.6718440737969631 
1.039999999999902, -0.6685372561593105 
1.0499999999999008, -0.6650487869811794 
1.0599999999998997, -0.661613792784586 
1.0699999999998986, -0.6584266612355538 
1.0799999999998975, -0.6556096759080303 
1.0899999999998964, -0.6532162516069435 
1.0999999999998953, -0.6512507766737592 
1.1099999999998942, -0.6496889972885606 
1.119999999999893, -0.6484923744570651 
1.129999999999892, -0.6476164059973956 
1.1399999999998909, -0.6470150988184007 
1.1499999999998898, -0.6466435809342144 
1.1599999999998887, -0.6464599691830581 
1.1699999999998876, -0.6464268667893565 
1.1799999999998865, -0.646512485302627 
1.1899999999998854, -0.6466913162047065 
1.1999999999998843, -0.6469443423780105 
1.2099999999998832, -0.6472587790666068 
1.219999999999882, -0.6476271443345645 
1.229999999999881, -0.6480451571383086 
1.2399999999998799, -0.6485079195804022 
1.2499999999998788, -0.6490045785087596 
1.2599999999998777, -0.6495132749440281 
1.2699999999998766, -0.6499996763101755 
1.2799999999998755, -0.6504218138828771 
1.2899999999998744, -0.650740304296711 
1.2999999999998733, -0.6509286703664137 
1.3099999999998722, -0.6509779544563499 
1.319999999999871, -0.6508941773094546 
1.32999999999987, -0.6506919413074836 
1.3399999999998689, -0.650388542090538 
1.3499999999998678, -0.6500011030907549 
1.3599999999998666, -0.649547343526183 
1.3699999999998655, -0.6490499875991079 
1.3799999999998644, -0.6485451893452985 
1.3899999999998633, -0.6480958291713375 
1.3999999999998622, -0.6478101602095329 
1.4099999999998611, -0.647863592410069 
1.41999999999986, -0.6485141928262081 
1.429999999999859, -0.6500892730747438 
1.4399999999998578, -0.6529072492088195 
1.4499999999998567, -0.657112398968229 
1.4599999999998556, -0.6624817281153861 
1.4699999999998545, -0.6683823731910713 
1.4799999999998534, -0.6740168859412073 
1.4899999999998523, -0.678795013344965 
1.4999999999998512, -0.6825063999851441 
1.5099999999998501, -0.6852264993044638 
1.519999999999849, -0.6871448293032529 
1.529999999999848, -0.6884554044165869 
1.5399999999998468, -0.6893167889793859 
1.5499999999998457, -0.689846496763873 
1.5599999999998446, -0.6901260339552263 
1.5699999999998435, -0.6902072469541286 
1.5799999999998424, -0.6901171287403226 
1.5899999999998413, -0.6898603832207539 
1.5999999999998402, -0.6894198596363574 
1.6099999999998391, -0.6887557778594976 
1.619999999999838, -0.6878061587942328 
1.629999999999837, -0.6864931942665163 
1.6399999999998358, -0.6847418471997282 
1.6499999999998347, -0.6825131478260696 
1.6599999999998336, -0.679841379133418 
1.6699999999998325, -0.6768497725478244 
1.6799999999998314, -0.6737253924640754 
1.6899999999998303, -0.6706649355175516 
1.6999999999998292, -0.6678258593465898 
1.709999999999828, -0.6653060324036556 
1.719999999999827, -0.6631492717588635 
1.729999999999826, -0.6613617526807634 
1.7399999999998248, -0.6599275617548894 
1.7499999999998237, -0.6588191418530788 
1.7599999999998226, -0.658003098513641 
1.7699999999998215, -0.6574432789420291 
1.7799999999998204, -0.6571027493259078 
1.7899999999998193, -0.6569455240169682 
1.7999999999998182, -0.656938242651609 
1.809999999999817, -0.6570516470844636 
1.819999999999816, -0.6572616551481064 
1.8299999999998149, -0.6575499094856319 
1.8399999999998138, -0.657903701398015 
1.8499999999998127, -0.658315011775955 
1.8599999999998116, -0.6587781747990714 
1.8699999999998105, -0.6592857594329217 
1.8799999999998094, -0.659823174896257 
1.8899999999998083, -0.660364189261975 
1.8999999999998072, -0.6608707767243174 
1.909999999999806, -0.661299495534563 
1.919999999999805, -0.6616124315909288 
1.9299999999998039, -0.6617867712216821 
1.9399999999998028, -0.6618177311892113 
1.9499999999998017, -0.6617146092152154 
1.9599999999998006, -0.6614939576221667 
1.9699999999997995, -0.6611741007302785 
1.9799999999997984, -0.6607730675030681 
1.9899999999997973, -0.6603103047925493 
1.9999999999997962, -0.6598122025464063 
2.0099999999998173, -0.6593219390423533 
2.0199999999998384, -0.6589145277684079 
2.0299999999998595, -0.65871716718337 
2.0399999999998806, -0.6589314763860273 
2.0499999999999017, -0.6598457711813388 
2.059999999999923, -0.6618115692084239 
2.069999999999944, -0.6651476736292885 
2.079999999999965, -0.6699575396840762 
2.089999999999986, -0.67593850088705 
2.100000000000007, -0.6823727777364759 
2.1100000000000283, -0.6884128004247516 
2.1200000000000494, -0.6934618620732206 
2.1300000000000705, -0.6973289609712845 
2.1400000000000916, -0.7001180541271284 
2.1500000000001127, -0.7020477063065853 
2.160000000000134, -0.7033362313267923 
2.170000000000155, -0.7041590730100239 
2.180000000000176, -0.704643361574478 
2.190000000000197, -0.7048746108169389 
2.2000000000002182, -0.7049047662274718 
2.2100000000002393, -0.7047580522466637 
2.2200000000002604, -0.7044337772452638 
2.2300000000002815, -0.7039063027533563 
2.2400000000003026, -0.7031233447178084 
2.2500000000003237, -0.7020056310771332 
2.260000000000345, -0.7004540158296395 
2.270000000000366, -0.6983724772497579 
2.280000000000387, -0.695710760561767 
2.290000000000408, -0.6925127927236954 
2.3000000000004293, -0.6889370533559148 
2.3100000000004504, -0.6852230691422521 
2.3200000000004715, -0.6816201387231378 
2.3300000000004926, -0.6783241678497292 
2.3400000000005137, -0.675452296089224 
2.3500000000005348, -0.6730507327551601 
2.360000000000556, -0.6711160456285757 
2.370000000000577, -0.6696152718951209 
2.380000000000598, -0.6684999160552574 
2.390000000000619, -0.6677145541339491 
2.4000000000006403, -0.6672021982673451 
2.4100000000006614, -0.6669080140954986 
2.4200000000006825, -0.6667820614481721 
2.4300000000007036, -0.6667811524240079 
2.4400000000007247, -0.6668697992373149 
2.450000000000746, -0.6670203729346544 
2.460000000000767, -0.6672127461409333 
2.470000000000788, -0.6674336349566403 
2.480000000000809, -0.6676755225752444 
2.49000000000083, -0.6679346322785544 
2.5000000000008513, -0.6682074109176553 
2.5100000000008724, -0.668485867859838 
2.5200000000008935, -0.6687536604172815 
2.5300000000009146, -0.6689857122119881 
2.5400000000009357, -0.669152869992707 
2.550000000000957, -0.669229804243222 
2.560000000000978, -0.6692017571891145 
2.570000000000999, -0.6690666508821326 
2.58000000000102, -0.6688326946392215 
2.5900000000010412, -0.668514403295401 
2.6000000000010624, -0.6681300177763007 
2.6100000000010835, -0.6677019369434876 
2.6200000000011046, -0.6672606829381098 
2.6300000000011257, -0.666852619142417 
2.6400000000011468, -0.6665516215034704 
2.650000000001168, -0.6664743920094743 
2.660000000001189, -0.6667972484437122 
2.67000000000121, -0.6677680713295577 
2.680000000001231, -0.6696999353206665 
2.6900000000012523, -0.6729242639495527 
2.7000000000012734, -0.6776799510777609 
2.7100000000012945, -0.6839428506803211 
2.7200000000013156, -0.6912772900401203 
2.7300000000013367, -0.6988676913304448 
2.740000000001358, -0.7058101626763531 
2.750000000001379, -0.711484643912778 
2.7600000000014, -0.7157151059367405 
2.770000000001421, -0.718658893367704 
2.780000000001442, -0.7206046259277274 
2.7900000000014633, -0.7218320729818338 
2.8000000000014844, -0.7225579597876223 
2.8100000000015055, -0.7229313711953714 
2.8200000000015266, -0.7230458231324564 
2.8300000000015477, -0.7229520802780328 
2.840000000001569, -0.7226664979382289 
2.85000000000159, -0.7221739361853737 
2.860000000001611, -0.721425634580191 
2.870000000001632, -0.7203334485070876 
2.8800000000016532, -0.7187644984185887 
2.8900000000016743, -0.7165460599338002 
2.9000000000016954, -0.7134977244061735 
2.9100000000017165, -0.7095053645980921 
2.9200000000017377, -0.7046207493659868 
2.9300000000017588, -0.699119987177459 
2.94000000000178, -0.6934505154326012 
2.950000000001801, -0.6880834656557154 
2.960000000001822, -0.6833727085505863 
2.970000000001843, -0.6794975713451774 
2.9800000000018643, -0.6764838132586414 
2.9900000000018854, -0.6742568459861873 
3.0000000000019065, -0.6726922119072366 
3.0100000000019276, -0.6716511276921395 
3.0200000000019487, -0.6710017245056761 
3.03000000000197, -0.6706299319230202 
3.040000000001991, -0.6704434697869985 
3.050000000002012, -0.6703714457241443 
3.060000000002033, -0.6703614568703105 
3.070000000002054, -0.670375736516782 
3.0800000000020753, -0.6703875571891698 
3.0900000000020964, -0.6703787039016306 
3.1000000000021175, -0.6703382922239376 
3.1100000000021386, -0.6702624657641187 
3.1200000000021597, -0.6701537531784283 
3.130000000002181, -0.6700187334241781 
3.140000000002202, -0.6698637733248655 
3.150000000002223, -0.6696905046107482 
3.160000000002244, -0.6694937127883632 
3.1700000000022652, -0.6692631518984704 
3.1800000000022863, -0.6689882309639856 
3.1900000000023074, -0.6686627757090612 
3.2000000000023285, -0.6682876417538919 
3.2100000000023496, -0.6678710544420823 
3.2200000000023707, -0.6674281716975596 
3.230000000002392, -0.6669815358004587 
3.240000000002413, -0.6665633395117594 
3.250000000002434, -0.6662196209185708 
3.260000000002455, -0.6660159050202676 
3.2700000000024763, -0.6660432842839918 
3.2800000000024974, -0.6664232775331143 
3.2900000000025185, -0.6673089039653881 
3.3000000000025396, -0.6688781289619807 
3.3100000000025607, -0.6713140978384822 
3.3200000000025818, -0.6747651125451848 
3.330000000002603, -0.6792796894687465 
3.340000000002624, -0.6847262151484088 
3.350000000002645, -0.690738166933715 
3.360000000002666, -0.6967533391598129 
3.3700000000026873, -0.7021797348811599 
3.3800000000027084, -0.7066058647156253 
3.3900000000027295, -0.7099063315176612 
3.4000000000027506, -0.7121890815780716 
3.4100000000027717, -0.713667743826135 
3.420000000002793, -0.7145583888947968 
3.430000000002814, -0.7150319637710993 
3.440000000002835, -0.715205584047091 
3.450000000002856, -0.7151493909687624 
3.460000000002877, -0.7148952220418214 
3.4700000000028983, -0.7144415793868197 
3.4800000000029194, -0.7137532284902381 
3.4900000000029405, -0.7127550923356339 
3.5000000000029616, -0.7113212390123308 
3.5100000000029827, -0.7092632167072692 
3.520000000003004, -0.7063308097689178 
3.530000000003025, -0.7022525202286914 
3.540000000003046, -0.6968473527082987 
3.550000000003067, -0.6901950088525451 
3.5600000000030882, -0.6827502889661324 
3.5700000000031094, -0.6752526067605351 
3.5800000000031305, -0.6684459634620011 
3.5900000000031516, -0.6628188034061757 
3.6000000000031727, -0.6585267539216655 
3.6100000000031938, -0.6554722210531839 
3.620000000003215, -0.6534299011521989 
3.630000000003236, -0.6521451372541953 
3.640000000003257, -0.6513885231488996 
3.650000000003278, -0.6509769294514232 
3.6600000000032993, -0.6507751459024651 
3.6700000000033204, -0.6506885982546634 
3.6800000000033415, -0.6506533509377348 
3.6900000000033626, -0.6506266274130853 
3.7000000000033837, -0.6505793220439439 
3.710000000003405, -0.6504910693243687 
3.720000000003426, -0.6503479750389503 
3.730000000003447, -0.6501426632117464 
3.740000000003468, -0.6498755319177212 
3.750000000003489, -0.6495552571184495 
3.7600000000035103, -0.649196607110058 
3.7700000000035314, -0.6488153426399432 
3.7800000000035525, -0.6484224768524556 
3.7900000000035736, -0.64802115598268 
3.8000000000035947, -0.6476077994979592 
3.810000000003616, -0.647176367462474 
3.820000000003637, -0.6467230698662368 
3.830000000003658, -0.6462494702184821 
3.840000000003679, -0.645763750049851 
3.8500000000037002, -0.6452812298152502 
3.8600000000037213, -0.6448253956856308 
3.8700000000037424, -0.6444301033555595 
3.8800000000037635, -0.6441429663136593 
3.8900000000037847, -0.6440294455539257 
3.9000000000038058, -0.6441767859080086 
3.910000000003827, -0.644696548799044 
3.920000000003848, -0.6457238907753099 
3.930000000003869, -0.6474106610307626 
3.94000000000389, -0.6499076449249206 
3.9500000000039113, -0.6533296019795396 
3.9600000000039324, -0.6576986621772332 
3.9700000000039535, -0.6628746613845211 
3.9800000000039746, -0.6685097902358345 
3.9900000000039957, -0.6740889298449048 
4.000000000004016, -0.6790821001476877 
4.010000000003993, -0.68313111802935 
4.02000000000397, -0.6861374579595404 
4.030000000003946, -0.6882090237059142 
4.040000000003923, -0.6895440121116139 
4.0500000000039, -0.6903394044720602 
4.0600000000038765, -0.6907496661848824 
4.070000000003853, -0.6908796312065789 
4.08000000000383, -0.6907907333842943 
4.090000000003807, -0.6905084514744326 
4.100000000003783, -0.6900260969964506 
4.11000000000376, -0.6893034473378868 
4.120000000003737, -0.6882600250034903 
4.130000000003713, -0.6867643420017027 
4.14000000000369, -0.6846247868489819 
4.150000000003667, -0.6815976640798642 
4.1600000000036434, -0.6774405496529721 
4.17000000000362, -0.6720338409228774 
4.180000000003597, -0.6655348150020208 
4.1900000000035735, -0.6584388529806595 
4.20000000000355, -0.6514406052279622 
4.210000000003527, -0.6451701440543097 
4.220000000003504, -0.6400010531021042 
4.23000000000348, -0.6360261229029363 
4.240000000003457, -0.6331430735240963 
4.250000000003434, -0.6311577779538263 
4.26000000000341, -0.6298579491347258 
4.270000000003387, -0.6290522112509819 
4.280000000003364, -0.6285849796996568 
4.2900000000033405, -0.6283379093317427 
4.300000000003317, -0.6282251097003199 
4.310000000003294, -0.6281862488810883 
4.320000000003271, -0.6281797513738424 
4.330000000003247, -0.6281772217780263 
4.340000000003224, -0.6281596277049682 
4.350000000003201, -0.6281153534976767 
4.360000000003177, -0.6280397279620293 
4.370000000003154, -0.6279349441980322 
4.380000000003131, -0.6278087954208778 
4.390000000003107, -0.6276711177695005 
4.400000000003084, -0.6275285513930455 
4.410000000003061, -0.6273801115900313 
4.4200000000030375, -0.6272163121924124 
4.430000000003014, -0.6270226125348792 
4.440000000002991, -0.6267852057390917 
4.450000000002968, -0.6264959250218209 
4.460000000002944, -0.6261542965269415 
4.470000000002921, -0.6257671556736991 
4.480000000002898, -0.6253476952557853 
4.490000000002874, -0.6249157315164301 
4.500000000002851, -0.6245002013891151 
4.510000000002828, -0.6241442822527794 
4.520000000002804, -0.6239131981828685 
4.530000000002781, -0.6239044155660235 
4.540000000002758, -0.6242590506862414 
4.5500000000027345, -0.6251713137491228 
4.560000000002711, -0.6268889485809103 
4.570000000002688, -0.6296914931321003 
4.580000000002665, -0.6338271567517129 
4.590000000002641, -0.6393940456058951 
4.600000000002618, -0.6461895314451717 
4.610000000002595, -0.6536288755841808 
4.620000000002571, -0.6608706439540959 
4.630000000002548, -0.6671448415925304 
4.640000000002525, -0.6720464837161225 
4.6500000000025015, -0.6755740919235467 
4.660000000002478, -0.6779638208350753 
4.670000000002455, -0.6795080944759108 
4.6800000000024315, -0.6804570307242087 
4.690000000002408, -0.6809919308100382 
4.700000000002385, -0.6812317417336927 
4.710000000002362, -0.6812470093033016 
4.720000000002338, -0.6810711863188513 
4.730000000002315, -0.6807068053181973 
4.740000000002292, -0.6801266765200293 
4.750000000002268, -0.6792713177839114 
4.760000000002245, -0.6780454876608002 
4.770000000002222, -0.6763204183673804 
4.7800000000021985, -0.6739536189386323 
4.790000000002175, -0.6708384853072475 
4.800000000002152, -0.6669782123542775 
4.810000000002129, -0.6625418991229471 
4.820000000002105, -0.6578460271174927 
4.830000000002082, -0.6532559116440845 
4.840000000002059, -0.6490732852054066 
4.850000000002035, -0.6454776563507306 
4.860000000002012, -0.6425305810588383 
4.870000000001989, -0.640211322711713 
4.880000000001965, -0.6384541009944045 
4.890000000001942, -0.637174673090607 
4.900000000001919, -0.6362860083931816 
4.9100000000018955, -0.6357065873915689 
4.920000000001872, -0.6353644771623834 
