t, s[1].omega / s[0].omega 
0, -0.5799977324753831 
0.009999999999999995, -0.5797668012790906 
0.019999999999999934, -0.5795256880930804 
0.029999999999999874, -0.5792696178203569 
0.04000000000000012, -0.5789931688905393 
0.050000000000000405, -0.578692510905034 
0.06000000000000069, -0.5783666795055231 
0.07000000000000098, -0.5780177745415649 
0.08000000000000126, -0.5776506365957566 
0.09000000000000155, -0.5772726906385681 
0.10000000000000184, -0.5768944261380555 
0.11000000000000212, -0.5765307160587518 
0.12000000000000241, -0.5762029885910769 
0.130000000000002, -0.5759420878789168 
0.1400000000000009, -0.5757913271799492 
0.1499999999999998, -0.5758085529814377 
0.1599999999999987, -0.5760648713053115 
0.1699999999999976, -0.5766362887696566 
0.1799999999999965, -0.5775842332035168 
0.1899999999999954, -0.5789248056194606 
0.1999999999999943, -0.5805975467447346 
0.2099999999999932, -0.5824575179636792 
0.2199999999999921, -0.5843109211974958 
0.229999999999991, -0.585981882618078 
0.2399999999999899, -0.5873658363038686 
0.2499999999999888, -0.5884376242497193 
0.2599999999999877, -0.5892247627164643 
0.2699999999999866, -0.5897754224304427 
0.2799999999999855, -0.59013797960432 
0.2899999999999844, -0.5903525473925678 
0.2999999999999833, -0.5904491737925698 
0.3099999999999822, -0.590448507467697 
0.3199999999999811, -0.5903629218650451 
0.32999999999998, -0.5901974298987623 
0.3399999999999789, -0.5899503463481559 
0.3499999999999778, -0.5896139951859396 
0.35999999999997667, -0.589176047543347 
0.36999999999997557, -0.5886222874629442 
0.37999999999997447, -0.5879414240796341 
0.38999999999997337, -0.5871315337993508 
0.39999999999997227, -0.5862058556727404 
0.40999999999997117, -0.5851943702470693 
0.41999999999997006, -0.5841389726957189 
0.42999999999996896, -0.5830840280783031 
0.43999999999996786, -0.5820671844872491 
0.44999999999996676, -0.5811145216666557 
0.45999999999996566, -0.5802407033887141 
0.46999999999996456, -0.5794521674353112 
0.47999999999996346, -0.5787509849718699 
0.48999999999996235, -0.5781379800185681 
0.49999999999996125, -0.5776147421861084 
0.5099999999999602, -0.5771847310327028 
0.519999999999959, -0.5768538066414288 
0.529999999999958, -0.576630452120517 
0.5399999999999568, -0.5765258359676866 
0.5499999999999557, -0.5765537462081197 
0.5599999999999546, -0.5767303004565381 
0.5699999999999535, -0.577073164077545 
0.5799999999999524, -0.5775997797233446 
0.5899999999999513, -0.5783238896494309 
0.5999999999999502, -0.5792496523575592 
0.6099999999999491, -0.5803633982548456 
0.619999999999948, -0.5816250575782032 
0.6299999999999469, -0.5829641837789521 
0.6399999999999458, -0.5842867605218338 
0.6499999999999447, -0.5854947480260484 
0.6599999999999436, -0.5865109148493548 
0.6699999999999425, -0.5872954852444164 
0.6799999999999414, -0.5878465185319413 
0.6899999999999403, -0.5881876178167214 
0.6999999999999392, -0.5883525754292929 
0.7099999999999381, -0.5883738676329584 
0.719999999999937, -0.5882765312708643 
0.7299999999999359, -0.5880758378836282 
0.7399999999999348, -0.5877766784941685 
0.7499999999999337, -0.5873732066523455 
0.7599999999999326, -0.5868480585874758 
0.7699999999999315, -0.5861711828678461 
0.7799999999999304, -0.5852992088372692 
0.7899999999999293, -0.5841776538161672 
0.7999999999999282, -0.5827498443093655 
0.8099999999999271, -0.5809763051932655 
0.819999999999926, -0.5788628769208148 
0.8299999999999249, -0.5764841901265855 
0.8399999999999238, -0.5739817648717808 
0.8499999999999227, -0.5715285927222645 
0.8599999999999216, -0.5692788060260942 
0.8699999999999205, -0.5673321753759664 
0.8799999999999194, -0.5657271081708278 
0.8899999999999183, -0.5644544708570195 
0.8999999999999172, -0.5634776325138997 
0.9099999999999161, -0.5627491690398991 
0.919999999999915, -0.5622214469920233 
0.9299999999999139, -0.5618520015725281 
0.9399999999999128, -0.5616055481891404 
0.9499999999999117, -0.5614541620976663 
0.9599999999999106, -0.5613766148489996 
0.9699999999999095, -0.5613574260696348 
0.9799999999999084, -0.5613859134812548 
0.9899999999999073, -0.5614553413597584 
0.9999999999999062, -0.5615621094006295 
1.0099999999999052, -0.5617047606682133 
1.019999999999904, -0.5618824727166503 
1.029999999999903, -0.5620927882846767 
1.039999999999902, -0.5623288131605604 
1.0499999999999008, -0.5625768934536022 
1.0599999999998997, -0.5628163434932768 
1.0699999999998986, -0.5630223132888512 
1.0799999999998975, -0.5631711356707055 
1.0899999999998964, -0.5632456477415156 
1.0999999999998953, -0.563237830286978 
1.1099999999998942, -0.563147937292231 
1.119999999999893, -0.5629813531189887 
1.129999999999892, -0.562745074107941 
1.1399999999998909, -0.5624450482452064 
1.1499999999998898, -0.562084665166043 
1.1599999999998887, -0.5616641408637633 
1.1699999999998876, -0.5611804082339811 
1.1799999999998865, -0.5606271640388126 
1.1899999999998854, -0.5599947379342842 
1.1999999999998843, -0.5592693992150919 
1.2099999999998832, -0.5584318406287597 
1.219999999999882, -0.5574556041077675 
1.229999999999881, -0.5563090676021281 
1.2399999999998799, -0.5549680318448444 
1.2499999999998788, -0.5534426414906417 
1.2599999999998777, -0.5518047607412776 
1.2699999999998766, -0.5501850856839721 
1.2799999999998755, -0.5487276212919214 
1.2899999999998744, -0.5475330686005725 
1.2999999999998733, -0.5466327507735002 
1.3099999999998722, -0.5460003906257358 
1.319999999999871, -0.5455803244957462 
1.32999999999987, -0.545311722439484 
1.3399999999998689, -0.5451418464481941 
1.3499999999998678, -0.5450302850765986 
1.3599999999998666, -0.544948241614403 
1.3699999999998655, -0.5448759695422937 
1.3799999999998644, -0.5448000345182914 
1.3899999999998633, -0.5447111283867656 
1.3999999999998622, -0.5446026844011176 
1.4099999999998611, -0.5444703328410644 
1.41999999999986, -0.5443120818351698 
1.429999999999859, -0.544128872980231 
1.4399999999998578, -0.5439248697692511 
1.4499999999998567, -0.5437067430787514 
1.4599999999998556, -0.5434816474115703 
1.4699999999998545, -0.5432544917925644 
1.4799999999998534, -0.5430258582795785 
1.4899999999998523, -0.5427917718819618 
1.4999999999998512, -0.5425454554978952 
1.5099999999998501, -0.5422800300747663 
1.519999999999849, -0.5419907552330316 
1.529999999999848, -0.5416760145665089 
1.5399999999998468, -0.5413371869847513 
1.5499999999998457, -0.5409780918674825 
1.5599999999998446, -0.540604687855711 
1.5699999999998435, -0.540225429348042 
1.5799999999998424, -0.5398524305545774 
1.5899999999998413, -0.5395034233313094 
1.5999999999998402, -0.5392043113895878 
1.6099999999998391, -0.5389917210736528 
1.619999999999838, -0.5389141093771868 
1.629999999999837, -0.5390286559745426 
1.6399999999998358, -0.5393900009707855 
1.6499999999998347, -0.5400282306640002 
1.6599999999998336, -0.5409211239745787 
1.6699999999998325, -0.5419790811924058 
1.6799999999998314, -0.5430656254923758 
1.6899999999998303, -0.5440516987939994 
1.6999999999998292, -0.5448645232691154 
1.709999999999828, -0.5454944282736423 
1.719999999999827, -0.5459674690035856 
1.729999999999826, -0.5463163502005696 
1.7399999999998248, -0.5465667810004959 
1.7499999999998237, -0.5467359963023466 
1.7599999999998226, -0.5468353255732483 
1.7699999999998215, -0.5468724345327872 
1.7799999999998204, -0.5468523476442457 
1.7899999999998193, -0.5467776508249018 
1.7999999999998182, -0.5466483996199605 
1.809999999999817, -0.5464621301721788 
1.819999999999816, -0.546214309927627 
1.8299999999998149, -0.545899558166134 
1.8399999999998138, -0.5455138427482346 
1.8499999999998127, -0.5450574091942414 
1.8599999999998116, -0.5445374199491864 
1.8699999999998105, -0.5439687022770624 
1.8799999999998094, -0.5433714958943057 
1.8899999999998083, -0.5427668140949313 
1.8999999999998072, -0.5421716852907653 
1.909999999999806, -0.5415965627144007 
1.919999999999805, -0.5410456265794739 
1.9299999999998039, -0.5405190492700237 
1.9399999999998028, -0.5400157234258882 
1.9499999999998017, -0.5395354250763164 
1.9599999999998006, -0.5390801770849402 
1.9699999999997995, -0.5386551060928513 
1.9799999999997984, -0.5382692153040713 
1.9899999999997973, -0.5379363834015234 
1.9999999999997962, -0.5376767236746466 
2.0099999999998173, -0.5375182616542478 
2.0199999999998384, -0.537498672059549 
2.0299999999998595, -0.5376664526961565 
2.0399999999998806, -0.538080284382809 
2.0499999999999017, -0.5388044052948743 
2.059999999999923, -0.5398969914763262 
2.069999999999944, -0.5413891404432574 
2.079999999999965, -0.5432566788257165 
2.089999999999986, -0.5453971324812574 
2.100000000000007, -0.5476335173123879 
2.1100000000000283, -0.5497585813475528 
2.1200000000000494, -0.5516015082527531 
2.1300000000000705, -0.5530743128330762 
2.1400000000000916, -0.5541724064018622 
2.1500000000001127, -0.5549431023618465 
2.160000000000134, -0.5554510897121168 
2.170000000000155, -0.5557568285693415 
2.180000000000176, -0.5559079879134419 
2.190000000000197, -0.5559382893869169 
2.2000000000002182, -0.5558690863503774 
2.2100000000002393, -0.5557113114918834 
2.2200000000002604, -0.555467009597349 
2.2300000000002815, -0.5551305091719511 
2.2400000000003026, -0.5546897789931433 
2.2500000000003237, -0.5541288798870707 
2.260000000000345, -0.5534325130645896 
2.270000000000366, -0.5525929656853651 
2.280000000000387, -0.5516178362217529 
2.290000000000408, -0.5505346252490446 
2.3000000000004293, -0.5493881906441761 
2.3100000000004504, -0.5482309210689718 
2.3200000000004715, -0.5471105445730693 
2.3300000000004926, -0.5460617128988587 
2.3400000000005137, -0.5451040307450614 
2.3500000000005348, -0.5442450298752631 
2.360000000000556, -0.5434849997718908 
2.370000000000577, -0.5428213688199272 
2.380000000000598, -0.5422517511836358 
2.390000000000619, -0.5417757350468653 
2.4000000000006403, -0.5413958317636933 
2.4100000000006614, -0.5411179835832161 
2.4200000000006825, -0.5409518832550748 
2.4300000000007036, -0.5409112062582546 
2.4400000000007247, -0.5410137078573061 
2.450000000000746, -0.5412809558809079 
2.460000000000767, -0.5417372126066543 
2.470000000000788, -0.5424066467333218 
2.480000000000809, -0.5433077964856168 
2.49000000000083, -0.5444444710408627 
2.5000000000008513, -0.5457938797807314 
2.5100000000008724, -0.5472962690339702 
2.5200000000008935, -0.5488541817928625 
2.5300000000009146, -0.5503485840310451 
2.5400000000009357, -0.5516691985967468 
2.550000000000957, -0.5527435409323801 
2.560000000000978, -0.5535481274520648 
2.570000000000999, -0.5540992291760928 
2.58000000000102, -0.5544339448141987 
2.5900000000010412, -0.554593330268068 
2.6000000000010624, -0.5546123975193177 
2.6100000000010835, -0.5545160371007994 
2.6200000000011046, -0.5543181508541227 
2.6300000000011257, -0.5540218302940142 
2.6400000000011468, -0.5536194600300173 
2.650000000001168, -0.553092516376769 
2.660000000001189, -0.552411650530854 
2.67000000000121, -0.5515386200997412 
2.680000000001231, -0.5504326108805355 
2.6900000000012523, -0.5490633227767163 
2.7000000000012734, -0.5474297648264569 
2.7100000000012945, -0.5455766452096439 
2.7200000000013156, -0.5435954700350444 
2.7300000000013367, -0.5416041707137786 
2.740000000001358, -0.5397150642238677 
2.750000000001379, -0.5380094796244996 
2.7600000000014, -0.5365295571809352 
2.770000000001421, -0.5352844520948835 
2.780000000001442, -0.5342622674595315 
2.7900000000014633, -0.5334410418531788 
2.8000000000014844, -0.5327962569713498 
2.8100000000015055, -0.5323050183956833 
2.8200000000015266, -0.5319479665746867 
2.8300000000015477, -0.5317099231050432 
2.840000000001569, -0.5315799469412156 
2.85000000000159, -0.5315511653904033 
2.860000000001611, -0.5316205201547382 
2.870000000001632, -0.5317884003878117 
2.8800000000016532, -0.5320579755736043 
2.8900000000016743, -0.5324338690936382 
2.9000000000016954, -0.5329196815178078 
2.9100000000017165, -0.533513966596448 
2.9200000000017377, -0.5342048941698272 
2.9300000000017588, -0.5349651967532045 
2.94000000000178, -0.5357505684849498 
2.950000000001801, -0.5365047637757901 
2.960000000001822, -0.5371714790364941 
2.970000000001843, -0.5377079608877893 
2.9800000000018643, -0.5380931154361022 
2.9900000000018854, -0.5383266688138686 
3.0000000000019065, -0.5384219027972246 
3.0100000000019276, -0.5383970165963696 
3.0200000000019487, -0.538268531685006 
3.03000000000197, -0.5380474420224751 
3.040000000001991, -0.537737251044361 
3.050000000002012, -0.5373327507041005 
3.060000000002033, -0.5368187156850434 
3.070000000002054, -0.5361681905550594 
3.0800000000020753, -0.5353407709657532 
3.0900000000020964, -0.5342825380238356 
3.1000000000021175, -0.5329312597932179 
3.1100000000021386, -0.5312320010867971 
3.1200000000021597, -0.529165527621562 
3.130000000002181, -0.5267804973920087 
3.140000000002202, -0.5242060416857524 
3.150000000002223, -0.5216247665787056 
3.160000000002244, -0.5192162832073379 
3.1700000000022652, -0.5171072044586454 
3.1800000000022863, -0.5153536913949828 
3.1900000000023074, -0.5139535881298479 
3.2000000000023285, -0.512870064544825 
3.2100000000023496, -0.5120525685090586 
3.2200000000023707, -0.5114501718293806 
3.230000000002392, -0.5110181367714535 
3.240000000002413, -0.510720153556925 
3.250000000002434, -0.5105283470004485 
3.260000000002455, -0.51042237063398 
3.2700000000024763, -0.5103882824070686 
3.2800000000024974, -0.5104175055779827 
3.2900000000025185, -0.5105059410749804 
3.3000000000025396, -0.5106531192974011 
3.3100000000025607, -0.510861106139188 
3.3200000000025818, -0.5111327365823449 
3.330000000002603, -0.5114687829735552 
3.340000000002624, -0.5118641016219752 
3.350000000002645, -0.5123037506841697 
3.360000000002666, -0.5127611568605397 
3.3700000000026873, -0.5132005594515839 
3.3800000000027084, -0.5135841126854871 
3.3900000000027295, -0.5138808178227067 
3.4000000000027506, -0.5140727165427357 
3.4100000000027717, -0.5141555807217583 
3.420000000002793, -0.514134983631288 
3.430000000002814, -0.5140207136949531 
3.440000000002835, -0.5138219602698509 
3.450000000002856, -0.5135440864106612 
3.460000000002877, -0.5131866335621449 
3.4700000000028983, -0.5127418179388028 
3.4800000000029194, -0.5121928687405374 
3.4900000000029405, -0.5115118689757711 
3.5000000000029616, -0.5106573560861465 
3.5100000000029827, -0.5095732055668246 
3.520000000003004, -0.5081926299893066 
3.530000000003025, -0.506453550653809 
3.540000000003046, -0.5043296490105155 
3.550000000003067, -0.5018685229831797 
3.5600000000030882, -0.4992092509741674 
3.5700000000031094, -0.4965528709286732 
3.5800000000031305, -0.49409614336753 
3.5900000000031516, -0.4919730328508921 
3.6000000000031727, -0.4902362296799324 
3.6100000000031938, -0.4888738573171924 
3.620000000003215, -0.4878382887790931 
3.630000000003236, -0.4870701727154418 
3.640000000003257, -0.4865127184288321 
3.650000000003278, -0.4861179904861498 
3.6600000000032993, -0.48584845452401487 
3.6700000000033204, -0.4856762942738075 
3.6800000000033415, -0.4855819751692235 
3.6900000000033626, -0.48555277351355797 
3.7000000000033837, -0.48558154744144344 
3.710000000003405, -0.4856657703180556 
3.720000000003426, -0.4858066597492181 
3.730000000003447, -0.4860080546393921 
3.740000000003468, -0.48627455184480334 
3.750000000003489, -0.486608471100704 
3.7600000000035103, -0.48700571021187605 
3.7700000000035314, -0.4874515834912253 
3.7800000000035525, -0.4879188866332598 
3.7900000000035736, -0.4883705543769533 
3.8000000000035947, -0.48876725268754456 
3.810000000003616, -0.48907681509001133 
3.820000000003637, -0.48928066776061224 
3.830000000003658, -0.4893744231442046 
3.840000000003679, -0.48936369913321415 
3.8500000000037002, -0.48925830694381645 
3.8600000000037213, -0.48906729375404456 
3.8700000000037424, -0.48879561703501995 
3.8800000000037635, -0.4884420398498922 
3.8900000000037847, -0.4879974774306689 
3.9000000000038058, -0.4874431681467043 
3.910000000003827, -0.4867484573786404 
3.920000000003848, -0.4858687847096184 
3.930000000003869, -0.4847460147565066 
3.94000000000389, -0.4833155741923312 
3.9500000000039113, -0.48152607380960666 
3.9600000000039324, -0.4793720364079893 
3.9700000000039535, -0.47692536316079615 
3.9800000000039746, -0.4743378445744426 
3.9900000000039957, -0.47180019888630387 
4.000000000004016, -0.4694803348485522 
4.010000000003993, -0.4674810925610096 
4.02000000000397, -0.46583512128663374 
4.030000000003946, -0.46452472526819477 
4.040000000003923, -0.4635067710549137 
4.0500000000039, -0.46273134892654266 
4.0600000000038765, -0.4621521853814432 
4.070000000003853, -0.46173098277272573 
4.08000000000383, -0.461438362554374 
4.090000000003807, -0.46125330527235714 
4.100000000003783, -0.46116214127298755 
4.11000000000376, -0.4611575746803984 
4.120000000003737, -0.46123788230616836 
4.130000000003713, -0.46140620394608156 
4.14000000000369, -0.4616696357232254 
4.150000000003667, -0.4620376175165578 
4.1600000000036434, -0.462518940929771 
4.17000000000362, -0.46311683555553956 
4.180000000003597, -0.46382240772547423 
4.1900000000035735, -0.46460843659352724 
4.20000000000355, -0.46542747555943753 
4.210000000003527, -0.46621814494208075 
4.220000000003504, -0.46691932152171534 
4.23000000000348, -0.46748567389892903 
4.240000000003457, -0.46789606785145577 
4.250000000003434, -0.4681516361713659 
4.26000000000341, -0.4682672201497561 
4.270000000003387, -0.46826201970688386 
4.280000000003364, -0.46815287014393253 
4.2900000000033405, -0.4679505252736151 
4.300000000003317, -0.46765786259629094 
4.310000000003294, -0.46726884848446437 
4.320000000003271, -0.46676762165599384 
4.330000000003247, -0.4661277927698377 
4.340000000003224, -0.46531304558549474 
4.350000000003201, -0.4642813554910782 
4.360000000003177, -0.4629958260729582 
4.370000000003154, -0.4614430820785623 
4.380000000003131, -0.45965333181800094 
4.390000000003107, -0.4577083186506944 
4.400000000003084, -0.4557256761939805 
4.410000000003061, -0.45382509181950803 
4.4200000000030375, -0.4520967484362023 
4.430000000003014, -0.4505882129255287 
4.440000000002991, -0.4493096819808283 
4.450000000002968, -0.44824763010050306 
4.460000000002944, -0.4473779909294396 
4.470000000002921, -0.446675184790419 
4.480000000002898, -0.44611701821932825 
4.490000000002874, -0.4456868021180453 
4.500000000002851, -0.44537400697374696 
4.510000000002828, -0.445174343449529 
4.520000000002804, -0.44508974848987987 
4.530000000002781, -0.44512845925843847 
4.540000000002758, -0.4453051212208371 
4.5500000000027345, -0.44564061559766055 
4.560000000002711, -0.44616092556207737 
4.570000000002688, -0.4468938810765827 
4.580000000002665, -0.44786224404062336 
4.590000000002641, -0.44907201257944385 
4.600000000002618, -0.45049726693739445 
4.610000000002595, -0.4520679940019427 
4.620000000002571, -0.4536721107056817 
4.630000000002548, -0.45517940360220643 
4.640000000002525, -0.45647941529516495 
4.6500000000025015, -0.45751085590831053 
4.660000000002478, -0.4582659360381194 
4.670000000002455, -0.45877363234623514 
4.6800000000024315, -0.4590776866001347 
4.690000000002408, -0.4592207073942989 
4.700000000002385, -0.4592365317212986 
4.710000000002362, -0.45914815381083524 
4.720000000002338, -0.45896815302603977 
4.730000000002315, -0.4586997965942885 
4.740000000002292, -0.4583382054440762 
4.750000000002268, -0.45787182829358253 
4.760000000002245, -0.4572850628373878 
4.770000000002222, -0.4565630882702426 
4.7800000000021985, -0.45569930203091263 
4.790000000002175, -0.45470365799906176 
4.800000000002152, -0.4536075231654594 
4.810000000002129, -0.452460416957251 
4.820000000002105, -0.45131844924632036 
4.830000000002082, -0.45023032172180616 
4.840000000002059, -0.4492281679001574 
4.850000000002035, -0.4483261723814242 
4.860000000002012, -0.44752487150618886 
4.870000000001989, -0.4468173071670617 
4.880000000001965, -0.4461943318486702 
4.890000000001942, -0.44564814662113417 
4.900000000001919, -0.4451743120677736 
