t, s[1].omega / s[0].omega 
0, -0.6799976990806063 
0.009999999999999995, -0.6797556703095883 
0.019999999999999934, -0.6794873049644555 
0.029999999999999874, -0.679186186365515 
0.04000000000000012, -0.6788460684772464 
0.050000000000000405, -0.6784646380888548 
0.06000000000000069, -0.6780455437789193 
0.07000000000000098, -0.677598818563677 
0.08000000000000126, -0.6771409341252826 
0.09000000000000155, -0.6766956758386057 
0.10000000000000184, -0.67629634903764 
0.11000000000000212, -0.6759891318615808 
0.12000000000000241, -0.6758368707881802 
0.130000000000002, -0.6759222072559158 
0.1400000000000009, -0.6763485533817126 
0.1499999999999998, -0.6772370450617344 
0.1599999999999987, -0.6787170710062183 
0.1699999999999976, -0.6809072491017829 
0.1799999999999965, -0.6838834998407834 
0.1899999999999954, -0.6876338325538582 
0.1999999999999943, -0.6920102571516109 
0.2099999999999932, -0.696707387477123 
0.2199999999999921, -0.7013075320838223 
0.229999999999991, -0.705400356460557 
0.2399999999999899, -0.7087157952692169 
0.2499999999999888, -0.7111815021616936 
0.2599999999999877, -0.7128813101318958 
0.2699999999999866, -0.7139696100353898 
0.2799999999999855, -0.7146022595882312 
0.2899999999999844, -0.714903380920464 
0.2999999999999833, -0.7149579648076292 
0.3099999999999822, -0.7148153888419276 
0.3199999999999811, -0.7144944621856143 
0.32999999999998, -0.7139858607587203 
0.3399999999999789, -0.7132504972476398 
0.3499999999999778, -0.7122135061904953 
0.35999999999997667, -0.7107547599904487 
0.36999999999997557, -0.7087002175152327 
0.37999999999997447, -0.7058263944009263 
0.38999999999997337, -0.7019022768181987 
0.39999999999997227, -0.6967946174784354 
0.40999999999997117, -0.690619807485365 
0.41999999999997006, -0.6838351733045844 
0.42999999999996896, -0.677138468095203 
0.43999999999996786, -0.6712004813690247 
0.44999999999996676, -0.6664296172346962 
0.45999999999996566, -0.662915368306176 
0.46999999999996456, -0.660518048111324 
0.47999999999996346, -0.6589952240435394 
0.48999999999996235, -0.6580953086746933 
0.49999999999996125, -0.6576049827330824 
0.5099999999999602, -0.6573631216041724 
0.519999999999959, -0.6572569380362147 
0.529999999999958, -0.6572113222762159 
0.5399999999999568, -0.6571773671586143 
0.5499999999999557, -0.6571227333374603 
0.5599999999999546, -0.6570247457893117 
0.5699999999999535, -0.6568663880946367 
0.5799999999999524, -0.6566351072179135 
0.5899999999999513, -0.6563240017423465 
0.5999999999999502, -0.6559341733749104 
0.6099999999999491, -0.6554760690858081 
0.619999999999948, -0.6549676835253038 
0.6299999999999469, -0.6544294125577321 
0.6399999999999458, -0.6538780238258207 
0.6499999999999447, -0.6533231099095324 
0.6599999999999436, -0.652767600341996 
0.6699999999999425, -0.6522112403102088 
0.6799999999999414, -0.6516546737089987 
0.6899999999999403, -0.6511024255434539 
0.6999999999999392, -0.6505645315866128 
0.7099999999999381, -0.6500575107661024 
0.719999999999937, -0.6496054304498131 
0.7299999999999359, -0.6492413657234017 
0.7399999999999348, -0.6490090769511913 
0.7499999999999337, -0.6489644329887929 
0.7599999999999326, -0.6491759804154645 
0.7699999999999315, -0.649723988264509 
0.7799999999999304, -0.6506970929848197 
0.7899999999999293, -0.6521851025071457 
0.7999999999999282, -0.6542655539290074 
0.8099999999999271, -0.6569809794330226 
0.819999999999926, -0.6603058269738222 
0.8299999999999249, -0.6641103377854043 
0.8399999999999238, -0.6681438803288204 
0.8499999999999227, -0.6720690287911638 
0.8599999999999216, -0.6755542276517413 
0.8699999999999205, -0.6783789692387517 
0.8799999999999194, -0.6804816719925715 
0.8899999999999183, -0.6819289216328691 
0.8999999999999172, -0.6828472665567618 
0.9099999999999161, -0.6833662058558991 
0.919999999999915, -0.6835895258356322 
0.9299999999999139, -0.6835879037338307 
0.9399999999999128, -0.6834008401353028 
0.9499999999999117, -0.6830399841113083 
0.9599999999999106, -0.6824901237358996 
0.9699999999999095, -0.6817063760982598 
0.9799999999999084, -0.6806072215936483 
0.9899999999999073, -0.6790645795774715 
0.9999999999999062, -0.6768963372975789 
1.0099999999999052, -0.6738759902848236 
1.019999999999904, -0.6697857848119583 
1.029999999999903, -0.6645342349981225 
1.039999999999902, -0.6583021080976985 
1.0499999999999008, -0.6515941531992262 
1.0599999999998997, -0.6450931650441329 
1.0699999999998986, -0.6393951403269786 
1.0799999999998975, -0.6348247626649041 
1.0899999999998964, -0.6314242136871061 
1.0999999999998953, -0.6290509516166589 
1.1099999999998942, -0.6274870336273576 
1.119999999999893, -0.6265126833922025 
1.129999999999892, -0.6259414395332781 
1.1399999999998909, -0.6256299202251789 
1.1499999999998898, -0.6254747030316808 
1.1599999999998887, -0.6254043050936249 
1.1699999999998876, -0.6253704806246722 
1.1799999999998865, -0.6253407643474814 
1.1899999999998854, -0.6252930088297945 
1.1999999999998843, -0.6252121187119668 
1.2099999999998832, -0.6250888610431597 
1.219999999999882, -0.624920183554605 
1.229999999999881, -0.6247098044920487 
1.2399999999998799, -0.624467392090767 
1.2499999999998788, -0.6242052576527257 
1.2599999999998777, -0.6239333227658908 
1.2699999999998766, -0.6236548903188965 
1.2799999999998755, -0.6233657163763413 
1.2899999999998744, -0.6230568566906713 
1.2999999999998733, -0.6227194219203329 
1.3099999999998722, -0.6223486198631294 
1.319999999999871, -0.6219456675441786 
1.32999999999987, -0.6215179946788562 
1.3399999999998689, -0.6210791517967877 
1.3499999999998678, -0.6206497097771794 
1.3599999999998666, -0.6202598383296778 
1.3699999999998655, -0.6199537374325733 
1.3799999999998644, -0.6197957418120885 
1.3899999999998633, -0.6198774973539828 
1.3999999999998622, -0.6203247997030028 
1.4099999999998611, -0.6213011081066264 
1.41999999999986, -0.6230019918929943 
1.429999999999859, -0.625630918825868 
1.4399999999998578, -0.6293443438068929 
1.4499999999998567, -0.634161354365505 
1.4599999999998556, -0.6398635327914619 
1.4699999999998545, -0.6459604209438612 
1.4799999999998534, -0.6518045209993223 
1.4899999999998523, -0.6568311715283018 
1.4999999999998512, -0.6607549496729661 
1.5099999999998501, -0.6635855254964758 
1.519999999999849, -0.665506122978848 
1.529999999999848, -0.6667425358376058 
1.5399999999998468, -0.6674898126582028 
1.5499999999998457, -0.6678907110429713 
1.5599999999998446, -0.6680390873309385 
1.5699999999998435, -0.6679896007417593 
1.5799999999998424, -0.667765753944884 
1.5899999999998413, -0.667364030041599 
1.5999999999998402, -0.666754123720193 
1.6099999999998391, -0.6658764046790486 
1.619999999999838, -0.6646395759227433 
1.629999999999837, -0.6629250787479197 
1.6399999999998358, -0.6606090509690142 
1.6499999999998347, -0.6576108659684601 
1.6599999999998336, -0.6539585323222872 
1.6699999999998325, -0.6498298289445403 
1.6799999999998314, -0.6455233083625697 
1.6899999999998303, -0.6413648280752631 
1.6999999999998292, -0.6376119119537667 
1.709999999999828, -0.6344096962693846 
1.719999999999827, -0.6318001706024124 
1.729999999999826, -0.6297556587768551 
1.7399999999998248, -0.6282117744565079 
1.7499999999998237, -0.6270903880204671 
1.7599999999998226, -0.6263129166637572 
1.7699999999998215, -0.6258071338806909 
1.7799999999998204, -0.6255102715980609 
1.7899999999998193, -0.6253700825462749 
1.7999999999998182, -0.6253447341327234 
1.809999999999817, -0.6254020319392908 
1.819999999999816, -0.625518344632564 
1.8299999999998149, -0.625677518192907 
1.8399999999998138, -0.6258698757093937 
1.8499999999998127, -0.626091047303353 
1.8599999999998116, -0.6263399995295154 
1.8699999999998105, -0.6266156266002395 
1.8799999999998094, -0.6269120616002193 
1.8899999999998083, -0.6272143608993979 
1.8999999999998072, -0.6274973328188403 
1.909999999999806, -0.62772948952677 
1.919999999999805, -0.6278810438120652 
1.9299999999998039, -0.6279317445513637 
1.9399999999998028, -0.627874345842895 
1.9499999999998017, -0.6277128572110511 
1.9599999999998006, -0.6274580574922451 
1.9699999999997995, -0.6271234392051558 
1.9799999999997984, -0.6267234606698573 
1.9899999999997973, -0.6262746692040146 
1.9999999999997962, -0.6257998190456074 
2.0099999999998173, -0.6253352956473046 
2.0199999999998384, -0.624942318827076 
2.0299999999998595, -0.6247217072375039 
2.0399999999998806, -0.6248292216861983 
2.0499999999999017, -0.6254820494049438 
2.059999999999923, -0.6269366536685999 
2.069999999999944, -0.6294115487326614 
2.079999999999965, -0.6329496564360247 
2.089999999999986, -0.6372889803251941 
2.100000000000007, -0.641885003837678 
2.1100000000000283, -0.6461435350416677 
2.1200000000000494, -0.6496853286472094 
2.1300000000000705, -0.6524183135048699 
2.1400000000000916, -0.6544318191264189 
2.1500000000001127, -0.6558708825289898 
2.160000000000134, -0.6568705623024086 
2.170000000000155, -0.6575377212254021 
2.180000000000176, -0.657951388302978 
2.190000000000197, -0.6581669926379472 
2.2000000000002182, -0.6582201329024014 
2.2100000000002393, -0.658129083661459 
2.2200000000002604, -0.6578960407106245 
2.2300000000002815, -0.6575074420814001 
2.2400000000003026, -0.6569343119925481 
2.2500000000003237, -0.6561346573392914 
2.260000000000345, -0.6550611168126539 
2.270000000000366, -0.6536766801045649 
2.280000000000387, -0.6519767224037325 
2.290000000000408, -0.650007090419211 
2.3000000000004293, -0.6478637610395743 
2.3100000000004504, -0.6456695159597964 
2.3200000000004715, -0.6435408565074549 
2.3300000000004926, -0.6415643674113537 
2.3400000000005137, -0.6397907992750672 
2.3500000000005348, -0.6382420067024704 
2.360000000000556, -0.6369218558009462 
2.370000000000577, -0.6358252717676897 
2.380000000000598, -0.6349436943794716 
2.390000000000619, -0.6342675333944049 
2.4000000000006403, -0.6337868700200916 
2.4100000000006614, -0.6334914878754117 
2.4200000000006825, -0.6333709239660245 
2.4300000000007036, -0.6334148488995732 
2.4400000000007247, -0.6336137828774298 
2.450000000000746, -0.6339599339681279 
2.460000000000767, -0.6344477763480334 
2.470000000000788, -0.635073815244874 
2.480000000000809, -0.635834805401806 
2.49000000000083, -0.6367236759596849 
2.5000000000008513, -0.6377230178971502 
2.5100000000008724, -0.6387977159868949 
2.5200000000008935, -0.63989087540543 
2.5300000000009146, -0.6409284301063308 
2.5400000000009357, -0.641834368739798 
2.550000000000957, -0.6425505109722326 
2.560000000000978, -0.643049501423096 
2.570000000000999, -0.6433342098198112 
2.58000000000102, -0.6434267231971481 
2.5900000000010412, -0.6433551768618712 
2.6000000000010624, -0.6431442224396495 
2.6100000000010835, -0.6428103132645099 
2.6200000000011046, -0.6423604707312379 
2.6300000000011257, -0.6417929864762228 
2.6400000000011468, -0.6410992521678518 
2.650000000001168, -0.6402665874308638 
2.660000000001189, -0.6392820057477521 
2.67000000000121, -0.6381357723581925 
2.680000000001231, -0.6368210550154598 
2.6900000000012523, -0.6353241339375206 
2.7000000000012734, -0.6336072400322806 
2.7100000000012945, -0.6316122554060566 
2.7200000000013156, -0.6293297005550598 
2.7300000000013367, -0.6269061748315516 
2.740000000001358, -0.6246485354836153 
2.750000000001379, -0.6228618016507032 
2.7600000000014, -0.6216808269241889 
2.770000000001421, -0.6210502362705196 
2.780000000001442, -0.6208146015620477 
2.7900000000014633, -0.6208101164102059 
2.8000000000014844, -0.6209098880951865 
2.8100000000015055, -0.6210312599657235 
2.8200000000015266, -0.6211262015821059 
2.8300000000015477, -0.6211684642551892 
2.840000000001569, -0.6211429663092177 
2.85000000000159, -0.6210384999058177 
2.860000000001611, -0.6208434237463035 
2.870000000001632, -0.6205440174247439 
2.8800000000016532, -0.620125615261393 
2.8900000000016743, -0.6195767420610243 
2.9000000000016954, -0.6188955253840805 
2.9100000000017165, -0.618095606570271 
2.9200000000017377, -0.6172073108846543 
2.9300000000017588, -0.6162716364766073 
2.94000000000178, -0.6153295340020836 
2.950000000001801, -0.6144124639576123 
2.960000000001822, -0.6135387575530504 
2.970000000001843, -0.6127158866957126 
2.9800000000018643, -0.6119456943053472 
2.9900000000018854, -0.6112295395955762 
3.0000000000019065, -0.6105718811804316 
3.0100000000019276, -0.6099823092837406 
3.0200000000019487, -0.6094766703582206 
3.03000000000197, -0.6090778541957015 
3.040000000001991, -0.6088164949057054 
3.050000000002012, -0.6087315823111419 
3.060000000002033, -0.6088708545890642 
3.070000000002054, -0.6092907550420766 
3.0800000000020753, -0.6100555201901143 
3.0900000000020964, -0.6112344345238265 
3.1000000000021175, -0.6128953267035725 
3.1100000000021386, -0.6150912393506804 
3.1200000000021597, -0.6178371026702185 
3.130000000002181, -0.6210770551608207 
3.140000000002202, -0.6246540428524945 
3.150000000002223, -0.6283080684619249 
3.160000000002244, -0.6317286884811322 
3.1700000000022652, -0.6346506520202647 
3.1800000000022863, -0.6369342839478748 
3.1900000000023074, -0.6385780829354686 
3.2000000000023285, -0.6396710961187803 
3.2100000000023496, -0.6403320409636285 
3.2200000000023707, -0.6406685491902913 
3.230000000002392, -0.6407605537740473 
3.240000000002413, -0.6406579466921862 
3.250000000002434, -0.6403829495275475 
3.260000000002455, -0.6399318117858723 
3.2700000000024763, -0.639273495650894 
3.2800000000024974, -0.638344598440717 
3.2900000000025185, -0.6370412426109224 
3.3000000000025396, -0.6352120157508623 
3.3100000000025607, -0.6326633714552431 
3.3200000000025818, -0.6291986968316021 
3.330000000002603, -0.624709997388083 
3.340000000002624, -0.6192997943460482 
3.350000000002645, -0.613340686479925 
3.360000000002666, -0.6073817416033241 
3.3700000000026873, -0.6019442604856684 
3.3800000000027084, -0.5973586878470823 
3.3900000000027295, -0.5937313956986681 
3.4000000000027506, -0.5910058056486732 
3.4100000000027717, -0.5890437799334409 
3.420000000002793, -0.5876857586075411 
3.430000000002814, -0.5867833616101812 
3.440000000002835, -0.5862124521672534 
3.450000000002856, -0.5858754948781393 
3.460000000002877, -0.5856990540980365 
3.4700000000028983, -0.5856296010310482 
3.4800000000029194, -0.5856291934372523 
3.4900000000029405, -0.5856717745795625 
3.5000000000029616, -0.5857404246506318 
3.5100000000029827, -0.5858256060214245 
3.520000000003004, -0.5859240906476343 
3.530000000003025, -0.5860378146860566 
3.540000000003046, -0.5861716235707617 
3.550000000003067, -0.5863292440860361 
3.5600000000030882, -0.5865081102499701 
3.5700000000031094, -0.5866952920962422 
3.5800000000031305, -0.5868673498687949 
3.5900000000031516, -0.586995318360577 
3.6000000000031727, -0.5870527601140239 
3.6100000000031938, -0.5870225390102148 
3.620000000003215, -0.586899026025316 
3.630000000003236, -0.5866858643436486 
3.640000000003257, -0.5863919066575248 
3.650000000003278, -0.5860279504214764 
3.6600000000032993, -0.5856056084893928 
3.6700000000033204, -0.585138647430872 
3.6800000000033415, -0.5846468836856337 
3.6900000000033626, -0.584162889654807 
3.7000000000033837, -0.5837416830783042 
3.710000000003405, -0.5834723472081231 
3.720000000003426, -0.583486759113447 
3.730000000003447, -0.5839529996933415 
3.740000000003468, -0.5850323451924649 
3.750000000003489, -0.5867850734227534 
3.7600000000035103, -0.5890610775628891 
3.7700000000035314, -0.5914919757859562 
3.7800000000035525, -0.5936714024267802 
3.7900000000035736, -0.5953873421296135 
3.8000000000035947, -0.5966668706354639 
3.810000000003616, -0.5976385883074298 
3.820000000003637, -0.5984068467135024 
3.830000000003658, -0.5990224708191281 
3.840000000003679, -0.599504204535417 
3.8500000000037002, -0.5998607780061155 
3.8600000000037213, -0.6001002454566506 
3.8700000000037424, -0.6002308700005309 
3.8800000000037635, -0.6002590341741821 
3.8900000000037847, -0.6001869189265802 
3.9000000000038058, -0.6000108582314634 
3.910000000003827, -0.5997207503705109 
3.920000000003848, -0.5993011311272307 
3.930000000003869, -0.5987348707709278 
3.94000000000389, -0.5980101405300442 
3.9500000000039113, -0.597129447453959 
3.9600000000039324, -0.5961165140106477 
3.9700000000039535, -0.5950155219428997 
3.9800000000039746, -0.5938810241607454 
3.9900000000039957, -0.5927636262672273 
4.000000000004016, -0.5916994523075749 
4.010000000003993, -0.5907076524152177 
4.02000000000397, -0.5897944824363244 
4.030000000003946, -0.5889598567527383 
4.040000000003923, -0.5882031189522707 
4.0500000000039, -0.5875268172035135 
4.0600000000038765, -0.5869387486566822 
4.070000000003853, -0.5864530262000331 
4.08000000000383, -0.5860907800466364 
4.090000000003807, -0.5858807990323391 
4.100000000003783, -0.5858601852701645 
4.11000000000376, -0.5860749580056761 
4.120000000003737, -0.5865803878344582 
4.130000000003713, -0.5874405022764118 
4.14000000000369, -0.5887254948829468 
4.150000000003667, -0.5905046080342594 
4.1600000000036434, -0.5928308161595104 
4.17000000000362, -0.5957139156660192 
4.180000000003597, -0.5990839691718621 
4.1900000000035735, -0.6027607149408536 
4.20000000000355, -0.6064600492824572 
4.210000000003527, -0.6098613144332357 
4.220000000003504, -0.6127117365311786 
4.23000000000348, -0.6148993114217457 
4.240000000003457, -0.6164489296058382 
4.250000000003434, -0.6174644585154636 
4.26000000000341, -0.6180680695282066 
4.270000000003387, -0.6183644237883466 
4.280000000003364, -0.6184283142114527 
4.2900000000033405, -0.6183044082886737 
4.300000000003317, -0.6180101248362744 
4.310000000003294, -0.6175371006973384 
4.320000000003271, -0.616849516716383 
4.330000000003247, -0.6158791577020528 
4.340000000003224, -0.6145190838788053 
4.350000000003201, -0.6126220972852499 
4.360000000003177, -0.610017534774609 
4.370000000003154, -0.6065646149684972 
4.380000000003131, -0.6022447124283887 
4.390000000003107, -0.5972459932284717 
4.400000000003084, -0.591956204273894 
4.410000000003061, -0.5868355737265989 
4.4200000000030375, -0.582256539591328 
4.430000000003014, -0.5784190721241733 
4.440000000002991, -0.5753623454346324 
4.450000000002968, -0.573023108416954 
4.460000000002944, -0.5712925718602253 
4.470000000002921, -0.5700534332248577 
4.480000000002898, -0.5691984187266056 
4.490000000002874, -0.5686371916040944 
4.500000000002851, -0.5682973457094838 
4.510000000002828, -0.5681228832555623 
4.520000000002804, -0.5680718841901908 
4.530000000002781, -0.568114155098327 
4.540000000002758, -0.5682292110436247 
4.5500000000027345, -0.5684047106540746 
4.560000000002711, -0.568635233057884 
4.570000000002688, -0.5689209564153679 
4.580000000002665, -0.5692654454554708 
4.590000000002641, -0.5696717055564738 
4.600000000002618, -0.570136378644427 
4.610000000002595, -0.5706435911644975 
4.620000000002571, -0.5711617627248066 
4.630000000002548, -0.571646854102167 
4.640000000002525, -0.5720524679709481 
4.6500000000025015, -0.5723421865938735 
4.660000000002478, -0.5724972714680495 
4.670000000002455, -0.5725162904438069 
4.6800000000024315, -0.5724088732547307 
4.690000000002408, -0.5721882266594196 
4.700000000002385, -0.5718655746613213 
4.710000000002362, -0.5714472452100092 
4.720000000002338, -0.5709337690782388 
4.730000000002315, -0.570320131458945 
4.740000000002292, -0.5695964602423069 
4.750000000002268, -0.5687482426632106 
4.760000000002245, -0.567754079588496 
4.770000000002222, -0.5665769074332536 
4.7800000000021985, -0.5651438916918133 
4.790000000002175, -0.5633198932716549 
4.800000000002152, -0.5609118949827671 
4.810000000002129, -0.5577725024092258 
4.820000000002105, -0.5539953853133543 
4.830000000002082, -0.55000525150445 
4.840000000002059, -0.5463655725762886 
4.850000000002035, -0.5434724663042843 
4.860000000002012, -0.5414272541084384 
4.870000000001989, -0.5401163052865463 
4.880000000001965, -0.5393458137506004 
4.890000000001942, -0.5389308443696017 
4.900000000001919, -0.538729035184778 
4.9100000000018955, -0.538642521220622 
4.920000000001872, -0.5386082613296471 
