t, s[1].omega / s[0].omega 
0, -0.7699976639189023 
0.009999999999999995, -0.7697385489303168 
0.019999999999999934, -0.769428334984719 
0.029999999999999874, -0.7690662489136955 
0.04000000000000012, -0.7686536950898968 
0.050000000000000405, -0.768196466629234 
0.06000000000000069, -0.76770593281938 
0.07000000000000098, -0.7671994690145579 
0.08000000000000126, -0.7667008654351661 
0.09000000000000155, -0.7662410621421603 
0.10000000000000184, -0.7658588326471973 
0.11000000000000212, -0.7656005273806481 
0.12000000000000241, -0.7655179843612501 
0.130000000000002, -0.7656642664405447 
0.1400000000000009, -0.7660877445708949 
0.1499999999999998, -0.7668256736803487 
0.1599999999999987, -0.7678982896064511 
0.1699999999999976, -0.7693036088343739 
0.1799999999999965, -0.7710122877743635 
0.1899999999999954, -0.7729622518156287 
0.1999999999999943, -0.7750551254843624 
0.2099999999999932, -0.7771599299053684 
0.2199999999999921, -0.7791303100863469 
0.229999999999991, -0.7808349533008101 
0.2399999999999899, -0.7821887397781573 
0.2499999999999888, -0.7831670280118869 
0.2599999999999877, -0.783796282080937 
0.2699999999999866, -0.7841305914355906 
0.2799999999999855, -0.7842288830078192 
0.2899999999999844, -0.7841409490695722 
0.2999999999999833, -0.7839023641301301 
0.3099999999999822, -0.7835351232422271 
0.3199999999999811, -0.7830514925880694 
0.32999999999998, -0.7824604975325615 
0.3399999999999789, -0.7817782493826064 
0.3499999999999778, -0.7810442829801751 
0.35999999999997667, -0.7803451461029145 
0.36999999999997557, -0.7798413732660885 
0.37999999999997447, -0.7797823849021828 
0.38999999999997337, -0.7804789893167998 
0.39999999999997227, -0.782203231242025 
0.40999999999997117, -0.7850303820700486 
0.41999999999997006, -0.7887224989645836 
0.42999999999996896, -0.7927786247254159 
0.43999999999996786, -0.7966480672360898 
0.44999999999996676, -0.7999429087674754 
0.45999999999996566, -0.8025097736443325 
0.46999999999996456, -0.8043745069010606 
0.47999999999996346, -0.8056501316033522 
0.48999999999996235, -0.8064676882069195 
0.49999999999996125, -0.8069410265145189 
0.5099999999999602, -0.8071549648186508 
0.519999999999959, -0.80716457506114 
0.529999999999958, -0.8069976640577089 
0.5399999999999568, -0.8066564003401357 
0.5499999999999557, -0.8061163072883979 
0.5599999999999546, -0.8053221448619109 
0.5699999999999535, -0.8041816625415592 
0.5799999999999524, -0.8025612126714531 
0.5899999999999513, -0.8002928384571539 
0.5999999999999502, -0.7972086548419178 
0.6099999999999491, -0.7932148369131955 
0.619999999999948, -0.7883885865573863 
0.6299999999999469, -0.7830349392536469 
0.6399999999999458, -0.777634432243412 
0.6499999999999447, -0.7726900099549393 
0.6599999999999436, -0.7685687462188755 
0.6699999999999425, -0.7654270028223726 
0.6799999999999414, -0.7632300488411455 
0.6899999999999403, -0.7618222902423167 
0.6999999999999392, -0.7610017884647874 
0.7099999999999381, -0.7605742009357672 
0.719999999999937, -0.7603807569806919 
0.7299999999999359, -0.7603054194885482 
0.7399999999999348, -0.7602696412028351 
0.7499999999999337, -0.7602221239105272 
0.7599999999999326, -0.7601283648834769 
0.7699999999999315, -0.7599623504431083 
0.7799999999999304, -0.759701325076436 
0.7899999999999293, -0.7593240405250162 
0.7999999999999282, -0.7588126284066463 
0.8099999999999271, -0.7581574155632882 
0.819999999999926, -0.7573623376606544 
0.8299999999999249, -0.7564473018493303 
0.8399999999999238, -0.7554450115864613 
0.8499999999999227, -0.7543934982472417 
0.8599999999999216, -0.7533286202750251 
0.8699999999999205, -0.752280160232784 
0.8799999999999194, -0.7512720343275128 
0.8899999999999183, -0.7503247393488092 
0.8999999999999172, -0.7494578606332544 
0.9099999999999161, -0.7486913798272646 
0.919999999999915, -0.7480454633102669 
0.9299999999999139, -0.7475389719395672 
0.9399999999999128, -0.7471872441393524 
0.9499999999999117, -0.7469998962932534 
0.9599999999999106, -0.7469793969952396 
0.9699999999999095, -0.7471209071230445 
0.9799999999999084, -0.7474133858860905 
0.9899999999999073, -0.7478414526852996 
0.9999999999999062, -0.7483871811293643 
1.0099999999999052, -0.7490309692516631 
1.019999999999904, -0.7497508673379834 
1.029999999999903, -0.7505203072283642 
1.039999999999902, -0.7513051989968261 
1.0499999999999008, -0.7520626456747176 
1.0599999999998997, -0.7527439910828657 
1.0699999999998986, -0.753303047098699 
1.0799999999998975, -0.753706396848865 
1.0899999999998964, -0.7539400857763946 
1.0999999999998953, -0.754009112932613 
1.1099999999998942, -0.7539311850729685 
1.119999999999893, -0.7537292462650917 
1.129999999999892, -0.753426520139638 
1.1399999999998909, -0.7530454864069178 
1.1499999999998898, -0.7526107613359302 
1.1599999999998887, -0.7521556456126078 
1.1699999999998876, -0.7517323035143832 
1.1799999999998865, -0.7514251514482408 
1.1899999999998854, -0.7513652380488093 
1.1999999999998843, -0.7517397259443179 
1.2099999999998832, -0.7527855828829204 
1.219999999999882, -0.7547529992630676 
1.229999999999881, -0.757828000579963 
1.2399999999998799, -0.7620239243681675 
1.2499999999998788, -0.7670902725143649 
1.2599999999998777, -0.7725192367934247 
1.2699999999998766, -0.777695914401165 
1.2799999999998755, -0.7821220382844472 
1.2899999999998744, -0.7855618506936815 
1.2999999999998733, -0.7880314981790735 
1.3099999999998722, -0.789690534701977 
1.319999999999871, -0.7907343002904185 
1.32999999999987, -0.791333135438696 
1.3399999999998689, -0.7916127543162759 
1.3499999999998678, -0.7916554152426254 
1.3599999999998666, -0.7915070433778804 
1.3699999999998655, -0.7911832716014366 
1.3799999999998644, -0.7906719436974591 
1.3899999999998633, -0.7899315468115204 
1.3999999999998622, -0.7888859780495121 
1.4099999999998611, -0.7874175652338202 
1.41999999999986, -0.785364007314448 
1.429999999999859, -0.7825321190816081 
1.4399999999998578, -0.7787490301664002 
1.4499999999998567, -0.7739649087167166 
1.4599999999998556, -0.7683765848938195 
1.4699999999998545, -0.7624725409487827 
1.4799999999998534, -0.7569053340191869 
1.4899999999998523, -0.7522410157270649 
1.4999999999998512, -0.7487639675215154 
1.5099999999998501, -0.7464534385157322 
1.519999999999849, -0.7450911883427463 
1.529999999999848, -0.7443942910948512 
1.5399999999998468, -0.7441057790469275 
1.5499999999998457, -0.7440321657738425 
1.5599999999998446, -0.7440448948588024 
1.5699999999998435, -0.7440656707591644 
1.5799999999998424, -0.7440487181688629 
1.5899999999998413, -0.7439658343773798 
1.5999999999998402, -0.7437957139911405 
1.6099999999998391, -0.7435172969307341 
1.619999999999838, -0.7431068120245424 
1.629999999999837, -0.74253874923633 
1.6399999999998358, -0.7417911605244629 
1.6499999999998347, -0.7408544187477436 
1.6599999999998336, -0.739739791423027 
1.6699999999998325, -0.7384822731942979 
1.6799999999998314, -0.7371344935069998 
1.6899999999998303, -0.735754588256562 
1.6999999999998292, -0.7343949080747687 
1.709999999999828, -0.7330965150866923 
1.719999999999827, -0.7318895326314697 
1.729999999999826, -0.7307963743073184 
1.7399999999998248, -0.7298349141026458 
1.7499999999998237, -0.7290201285963914 
1.7599999999998226, -0.7283640724747384 
1.7699999999998215, -0.7278747731525547 
1.7799999999998204, -0.7275548818116635 
1.7899999999998193, -0.727400859309184 
1.7999999999998182, -0.7274031775914978 
1.809999999999817, -0.7275475728850636 
1.819999999999816, -0.7278169637821753 
1.8299999999998149, -0.7281934040734898 
1.8399999999998138, -0.7286594133282062 
1.8499999999998127, -0.7291981373643911 
1.8599999999998116, -0.7297919927301697 
1.8699999999998105, -0.7304198928280295 
1.8799999999998094, -0.7310540634884366 
1.8899999999998083, -0.7316586136796883 
1.8999999999998072, -0.7321923044991326 
1.909999999999806, -0.7326160156488893 
1.919999999999805, -0.7329018064539337 
1.9299999999998039, -0.7330385044715954 
1.9399999999998028, -0.7330310001730892 
1.9499999999998017, -0.7328948446387529 
1.9599999999998006, -0.7326501084831799 
1.9699999999997995, -0.7323176164824343 
1.9799999999997984, -0.7319187277786882 
1.9899999999997973, -0.7314786910548733 
1.9999999999997962, -0.7310334569915998 
2.0099999999998173, -0.7306399191864514 
2.0199999999998384, -0.7303890145101027 
2.0299999999998595, -0.7304192091652492 
2.0399999999998806, -0.7309241920553379 
2.0499999999999017, -0.7321435865486209 
2.059999999999923, -0.7343219214794641 
2.069999999999944, -0.737625719318792 
2.079999999999965, -0.7420315340378031 
2.089999999999986, -0.7472409756537609 
2.100000000000007, -0.7527085577992522 
2.1100000000000283, -0.7578171969345388 
2.1200000000000494, -0.762105654878848 
2.1300000000000705, -0.7653897380843848 
2.1400000000000916, -0.7677235564777607 
2.1500000000001127, -0.7692817350452218 
2.160000000000134, -0.7702584188797137 
2.170000000000155, -0.7708161423686672 
2.180000000000176, -0.7710721997358811 
2.190000000000197, -0.7711020177340215 
2.2000000000002182, -0.7709464322107384 
2.2100000000002393, -0.7706171241590031 
2.2200000000002604, -0.7700983293274892 
2.2300000000002815, -0.7693444710926601 
2.2400000000003026, -0.7682742729361538 
2.2500000000003237, -0.7667637657398509 
2.260000000000345, -0.7646450902658231 
2.270000000000366, -0.7617257087885607 
2.280000000000387, -0.7578480928168083 
2.290000000000408, -0.7529952525641466 
2.3000000000004293, -0.7473961808797401 
2.3100000000004504, -0.7415342074845852 
2.3200000000004715, -0.7360037623608682 
2.3300000000004926, -0.7312959082853733 
2.3400000000005137, -0.7276581500529564 
2.3500000000005348, -0.7250903533023598 
2.360000000000556, -0.7234293839615147 
2.370000000000577, -0.7224479145285654 
2.380000000000598, -0.7219249628781881 
2.390000000000619, -0.7216806223083052 
2.4000000000006403, -0.7215842085361468 
2.4100000000006614, -0.7215479606323407 
2.4200000000006825, -0.7215155098115961 
2.4300000000007036, -0.7214503975357994 
2.4400000000007247, -0.7213269526445001 
2.450000000000746, -0.7211242375130351 
2.460000000000767, -0.7208232361824318 
2.470000000000788, -0.720407357853657 
2.480000000000809, -0.7198659138391159 
2.49000000000083, -0.7191989974299855 
2.5000000000008513, -0.7184207127418293 
2.5100000000008724, -0.7175577860922714 
2.5200000000008935, -0.7166433839884319 
2.5300000000009146, -0.7157094717853932 
2.5400000000009357, -0.7147818312333161 
2.550000000000957, -0.713879405445378 
2.560000000000978, -0.7130167422504664 
2.570000000000999, -0.7122072710155423 
2.58000000000102, -0.7114658211149931 
2.5900000000010412, -0.7108098454198651 
2.6000000000010624, -0.7102594198143223 
2.6100000000010835, -0.7098362550763812 
2.6200000000011046, -0.7095620033742656 
2.6300000000011257, -0.7094562457907837 
2.6400000000011468, -0.709534650829929 
2.650000000001168, -0.709807742560753 
2.660000000001189, -0.7102804295773567 
2.67000000000121, -0.7109519869876401 
2.680000000001231, -0.711815726393475 
2.6900000000012523, -0.7128573561200452 
2.7000000000012734, -0.7140513166693532 
2.7100000000012945, -0.7153555516613649 
2.7200000000013156, -0.7167073721260226 
2.7300000000013367, -0.7180252237647144 
2.740000000001358, -0.7192204005588925 
2.750000000001379, -0.7202167700117641 
2.7600000000014, -0.720968869476982 
2.770000000001421, -0.7214679187874011 
2.780000000001442, -0.7217338761125778 
2.7900000000014633, -0.7218007182848377 
2.8000000000014844, -0.721703382961391 
2.8100000000015055, -0.7214702629901016 
2.8200000000015266, -0.7211209397702121 
2.8300000000015477, -0.7206675241229747 
2.840000000001569, -0.7201186298728115 
2.85000000000159, -0.7194862088044716 
2.860000000001611, -0.7187963688022441 
2.870000000001632, -0.7181051284749679 
2.8800000000016532, -0.7175174953672718 
2.8900000000016743, -0.7172014930767223 
2.9000000000016954, -0.71737820120877 
2.9100000000017165, -0.7182638414570439 
2.9200000000017377, -0.7199625107283069 
2.9300000000017588, -0.7223680026797522 
2.94000000000178, -0.7251713583551158 
2.950000000001801, -0.7279946574650694 
2.960000000001822, -0.7305419913745389 
2.970000000001843, -0.7326600317320994 
2.9800000000018643, -0.7343139386827686 
2.9900000000018854, -0.735538255292701 
3.0000000000019065, -0.7363971483127256 
3.0100000000019276, -0.7369595495629864 
3.0200000000019487, -0.7372857627020337 
3.03000000000197, -0.7374214599774442 
3.040000000001991, -0.7373956573819462 
3.050000000002012, -0.7372201192901008 
3.060000000002033, -0.7368885855102688 
3.070000000002054, -0.7363751686807142 
3.0800000000020753, -0.7356324434374211 
3.0900000000020964, -0.734591555290333 
3.1000000000021175, -0.7331691404149562 
3.1100000000021386, -0.7312872024149459 
3.1200000000021597, -0.728907742938686 
3.130000000002181, -0.7260705261042711 
3.140000000002202, -0.7229086899348671 
3.150000000002223, -0.7196236060028478 
3.160000000002244, -0.7164301261206659 
3.1700000000022652, -0.7135049963084404 
3.1800000000022863, -0.7109616983923336 
3.1900000000023074, -0.708851265747849 
3.2000000000023285, -0.7071761345234447 
3.2100000000023496, -0.7059059730496119 
3.2200000000023707, -0.7049908043937443 
3.230000000002392, -0.7043709367319094 
3.240000000002413, -0.7039844427426359 
3.250000000002434, -0.703772673501417 
3.260000000002455, -0.7036838763745514 
3.2700000000024763, -0.7036749451900952 
3.2800000000024974, -0.7037116024958405 
3.2900000000025185, -0.703767612591769 
3.3000000000025396, -0.703823716156705 
3.3100000000025607, -0.7038667639527781 
3.3200000000025818, -0.7038890409956424 
3.330000000002603, -0.7038872400351269 
3.340000000002624, -0.7038604327289228 
3.350000000002645, -0.7038070966478397 
3.360000000002666, -0.7037224540687147 
3.3700000000026873, -0.7035978968553362 
3.3800000000027084, -0.7034232291180257 
3.3900000000027295, -0.7031905192639962 
3.4000000000027506, -0.7028973206272053 
3.4100000000027717, -0.7025478736692103 
3.420000000002793, -0.7021526759137012 
3.430000000002814, -0.7017278671186602 
3.440000000002835, -0.7012957209467345 
3.450000000002856, -0.7008867756941004 
3.460000000002877, -0.7005434100916853 
3.4700000000028983, -0.7003241154940366 
3.4800000000029194, -0.7003072145065401 
3.4900000000029405, -0.7005922701052752 
3.5000000000029616, -0.7012969820118957 
3.5100000000029827, -0.7025470462702079 
3.520000000003004, -0.7044563343368477 
3.530000000003025, -0.707095411693283 
3.540000000003046, -0.7104499003447631 
3.550000000003067, -0.7143797386689207 
3.5600000000030882, -0.7186052464124564 
3.5700000000031094, -0.7227512820420807 
3.5800000000031305, -0.7264522123477405 
3.5900000000031516, -0.7294650570469405 
3.6000000000031727, -0.7317187259386746 
3.6100000000031938, -0.7332802625455905 
3.620000000003215, -0.7342823460671507 
3.630000000003236, -0.7348626553524736 
3.640000000003257, -0.7351330604800637 
3.650000000003278, -0.7351715047447832 
3.6600000000032993, -0.7350242028507579 
3.6700000000033204, -0.7347098546171035 
3.6800000000033415, -0.7342220376073285 
3.6900000000033626, -0.733528430592786 
3.7000000000033837, -0.7325666720985856 
3.710000000003405, -0.7312377364598587 
3.720000000003426, -0.7294002048244481 
3.730000000003447, -0.7268744406137009 
3.740000000003468, -0.7234744164793843 
3.750000000003489, -0.7190879163369399 
3.7600000000035103, -0.71379887657642 
3.7700000000035314, -0.7079768138692455 
3.7800000000035525, -0.7022187062567544 
3.7900000000035736, -0.6971300901654865 
3.8000000000035947, -0.6930978888325676 
3.810000000003616, -0.6902110446475842 
3.820000000003637, -0.6883317533034166 
3.830000000003658, -0.6872191843528197 
3.840000000003679, -0.6866269138885006 
3.8500000000037002, -0.6863522618788944 
3.8600000000037213, -0.6862487352036617 
3.8700000000037424, -0.6862192059088444 
3.8800000000037635, -0.6862026326227225 
3.8900000000037847, -0.6861610216840763 
3.9000000000038058, -0.686069176711399 
3.910000000003827, -0.6859077500288483 
3.920000000003848, -0.6856594893139364 
3.930000000003869, -0.685308603557647 
3.94000000000389, -0.6848431208316462 
3.9500000000039113, -0.6842593471684026 
3.9600000000039324, -0.6835660671319211 
3.9700000000039535, -0.6827852626594619 
3.9800000000039746, -0.6819476719814881 
3.9900000000039957, -0.6810850947966276 
4.000000000004016, -0.6802237301160317 
4.010000000003993, -0.6793816751135784 
4.02000000000397, -0.6785705517026264 
4.030000000003946, -0.6777991114537737 
4.040000000003923, -0.6770766887280083 
4.0500000000039, -0.6764155111107415 
4.0600000000038765, -0.6758318387393168 
4.070000000003853, -0.675346226600259 
4.08000000000383, -0.6749831234847766 
4.090000000003807, -0.6747699052965694 
4.100000000003783, -0.6747354541573379 
4.11000000000376, -0.6749084865852406 
4.120000000003737, -0.6753158505187631 
4.130000000003713, -0.675980817180689 
4.14000000000369, -0.6769209611216555 
4.150000000003667, -0.6781446858236235 
4.1600000000036434, -0.6796451810851493 
4.17000000000362, -0.681391282052838 
4.180000000003597, -0.6833172010560992 
4.1900000000035735, -0.6853173734007435 
4.20000000000355, -0.6872555459793714 
4.210000000003527, -0.6889924425412202 
4.220000000003504, -0.6904222298467309 
4.23000000000348, -0.6914969614911565 
4.240000000003457, -0.6922254256163767 
4.250000000003434, -0.6926521796145342 
4.26000000000341, -0.6928329026652064 
4.270000000003387, -0.6928172071977172 
4.280000000003364, -0.6926406292482017 
4.2900000000033405, -0.6923225764094595 
4.300000000003317, -0.6918667168085719 
4.310000000003294, -0.6912617066726414 
4.320000000003271, -0.6904814922122796 
4.330000000003247, -0.689485292646674 
4.340000000003224, -0.6882179080712876 
4.350000000003201, -0.6866114400703653 
4.360000000003177, -0.6845905327270959 
4.370000000003154, -0.6820865931056518 
4.380000000003131, -0.6790726611198856 
4.390000000003107, -0.6756276746835277 
4.400000000003084, -0.6719995833731802 
4.410000000003061, -0.6685813919495833 
4.4200000000030375, -0.6657585193640211 
4.430000000003014, -0.663736613831332 
4.440000000002991, -0.662493544478908 
4.450000000002968, -0.6618587117585191 
4.460000000002944, -0.6616221702071601 
4.470000000002921, -0.6616043406009859 
4.480000000002898, -0.6616786135156967 
4.490000000002874, -0.661766410102483 
4.500000000002851, -0.6618229852409827 
4.510000000002828, -0.6618235199105944 
4.520000000002804, -0.6617526128316314 
4.530000000002781, -0.6615973395701811 
4.540000000002758, -0.6613433296366348 
4.5500000000027345, -0.660973617990269 
4.560000000002711, -0.6604705349975717 
4.570000000002688, -0.6598208479117791 
4.580000000002665, -0.659023056405829 
4.590000000002641, -0.6580934343318796 
4.600000000002618, -0.6570663289589223 
4.610000000002595, -0.6559869565521577 
4.620000000002571, -0.6549002122182025 
4.630000000002548, -0.6538417102870673 
4.640000000002525, -0.6528348256659988 
4.6500000000025015, -0.651893062296246 
4.660000000002478, -0.6510247052761017 
4.670000000002455, -0.6502371160520019 
4.6800000000024315, -0.6495395383107445 
4.690000000002408, -0.6489444234775247 
4.700000000002385, -0.6484676910950447 
4.710000000002362, -0.6481283101822984 
4.720000000002338, -0.647947475775216 
4.730000000002315, -0.6479476028703863 
4.740000000002292, -0.6481513295806366 
4.750000000002268, -0.6485806096883568 
4.760000000002245, -0.6492557046966867 
4.770000000002222, -0.6501934532871274 
4.7800000000021985, -0.6514037173888065 
4.790000000002175, -0.6528827188091965 
4.800000000002152, -0.6546027999811272 
4.810000000002129, -0.6565008991118882 
4.820000000002105, -0.6584726332466779 
4.830000000002082, -0.6603817804582334 
4.840000000002059, -0.6620893269034942 
4.850000000002035, -0.6634909782656347 
4.860000000002012, -0.6645411786636081 
4.870000000001989, -0.665250600851563 
4.880000000001965, -0.6656642856085121 
4.890000000001942, -0.6658370665897346 
4.900000000001919, -0.6658169082755928 
4.9100000000018955, -0.6656372663797878 
4.920000000001872, -0.6653149814963166 
