t, s[1].omega / s[0].omega 
0, -1.119997490015976 
0.009999999999999995, -1.1196953445227942 
0.019999999999999934, -1.1192954140603792 
0.029999999999999874, -1.1188080637416027 
0.04000000000000012, -1.118250578003034 
0.050000000000000405, -1.1176473102660502 
0.06000000000000069, -1.1170294879387446 
0.07000000000000098, -1.1164336667689938 
0.08000000000000126, -1.115897645794851 
0.09000000000000155, -1.1154535870146272 
0.10000000000000184, -1.1151200880609144 
0.11000000000000212, -1.1148966984257014 
0.12000000000000241, -1.114763997909503 
0.130000000000002, -1.1146894059895747 
0.1400000000000009, -1.1146354801090843 
0.1499999999999998, -1.1145665718597173 
0.1599999999999987, -1.1144518229210285 
0.1699999999999976, -1.1142652452743873 
0.1799999999999965, -1.113984915285604 
0.1899999999999954, -1.113592976051104 
0.1999999999999943, -1.1130770835705213 
0.2099999999999932, -1.112432923475405 
0.2199999999999921, -1.1116669057615909 
0.229999999999991, -1.1107982252846722 
0.2399999999999899, -1.1098598081217834 
0.2499999999999888, -1.1088976574949851 
0.2599999999999877, -1.1079675874991872 
0.2699999999999866, -1.1071279793953535 
0.2799999999999855, -1.1064282786718567 
0.2899999999999844, -1.10589605218504 
0.2999999999999833, -1.105528693950467 
0.3099999999999822, -1.1052952694940865 
0.3199999999999811, -1.1051479713427077 
0.32999999999998, -1.1050362253680812 
0.3399999999999789, -1.1049160418693638 
0.3499999999999778, -1.1047521636517454 
0.35999999999997667, -1.1045152272017076 
0.36999999999997557, -1.1041774807300402 
0.37999999999997447, -1.1037098036561568 
0.38999999999997337, -1.1030817706615241 
0.39999999999997227, -1.1022657887919707 
0.40999999999997117, -1.1012453488799037 
0.41999999999997006, -1.1000257577336408 
0.42999999999996896, -1.0986438546153658 
0.43999999999996786, -1.0971722059670237 
0.44999999999996676, -1.0957136222147073 
0.45999999999996566, -1.0943836208907003 
0.46999999999996456, -1.093282617731293 
0.47999999999996346, -1.0924667852822298 
0.48999999999996235, -1.0919322828423732 
0.49999999999996125, -1.0916231355899968 
0.5099999999999602, -1.0914577156881142 
0.519999999999959, -1.0913567339830457 
0.529999999999958, -1.0912588464882222 
0.5399999999999568, -1.0911220690413426 
0.5499999999999557, -1.0909170497342822 
0.5599999999999546, -1.0906184221232702 
0.5699999999999535, -1.0901975216424522 
0.5799999999999524, -1.089617764849478 
0.5899999999999513, -1.0888339140320538 
0.5999999999999502, -1.087797458442413 
0.6099999999999491, -1.0864707973654215 
0.619999999999948, -1.0848505651065494 
0.6299999999999469, -1.0829937727078387 
0.6399999999999458, -1.0810317649885122 
0.6499999999999447, -1.079154177481772 
0.6599999999999436, -1.077556936590826 
0.6699999999999425, -1.076373719160038 
0.6799999999999414, -1.075630246860607 
0.6899999999999403, -1.0752505923871725 
0.6999999999999392, -1.0751065341876374 
0.7099999999999381, -1.075072462603769 
0.719999999999937, -1.075056096321545 
0.7299999999999359, -1.0750018729789625 
0.7399999999999348, -1.0748797565596944 
0.7499999999999337, -1.0746714904746584 
0.7599999999999326, -1.0743596134446043 
0.7699999999999315, -1.0739199045787469 
0.7799999999999304, -1.073316727101878 
0.7899999999999293, -1.072501818877135 
0.7999999999999282, -1.0714193108347465 
0.8099999999999271, -1.0700217848410056 
0.819999999999926, -1.0683008833289118 
0.8299999999999249, -1.0663265416964574 
0.8399999999999238, -1.0642710682444636 
0.8499999999999227, -1.062383550284165 
0.8599999999999216, -1.0609033225468025 
0.8699999999999205, -1.0599569216658042 
0.8799999999999194, -1.0595130822832937 
0.8899999999999183, -1.0594254780029757 
0.8999999999999172, -1.0595186273164043 
0.9099999999999161, -1.0596530524762786 
0.919999999999915, -1.0597451942291962 
0.9299999999999139, -1.059756380027775 
0.9399999999999128, -1.0596729871341872 
0.9499999999999117, -1.059489990489363 
0.9599999999999106, -1.0592004128799488 
0.9699999999999095, -1.058789195442718 
0.9799999999999084, -1.058229913837951 
0.9899999999999073, -1.0574843873115123 
0.9999999999999062, -1.0565075941836104 
1.0099999999999052, -1.0552625690006239 
1.019999999999904, -1.05374943174007 
1.029999999999903, -1.0520440394291457 
1.039999999999902, -1.0503224932567592 
1.0499999999999008, -1.0488330181290126 
1.0599999999998997, -1.0478007862420786 
1.0699999999998986, -1.0473179706632552 
1.0799999999998975, -1.0473067522792474 
1.0899999999998964, -1.0475822517532882 
1.0999999999998953, -1.0479528032654322 
1.1099999999998942, -1.0482841200590483 
1.119999999999893, -1.048509327686978 
1.129999999999892, -1.0486087964797899 
1.1399999999998909, -1.0485857003226704 
1.1499999999998898, -1.0484486596373959 
1.1599999999998887, -1.048202148584568 
1.1699999999998876, -1.0478419560225987 
1.1799999999998865, -1.0473535304465427 
1.1899999999998854, -1.0467128514693098 
1.1999999999998843, -1.0458916121146624 
1.2099999999998832, -1.0448703821925043 
1.219999999999882, -1.0436630481577285 
1.229999999999881, -1.0423488350036354 
1.2399999999998799, -1.0410919191450367 
1.2499999999998788, -1.040114625242691 
1.2599999999998777, -1.0396092057108999 
1.2699999999998766, -1.0396345761739474 
1.2799999999998755, -1.0400831228754959 
1.2899999999998744, -1.0407476704875938 
1.2999999999998733, -1.0414263469917602 
1.3099999999998722, -1.0419878182705504 
1.319999999999871, -1.0423775460861122 
1.32999999999987, -1.0425920712980106 
1.3399999999998689, -1.0426504589391943 
1.3499999999998678, -1.042575215421807 
1.3599999999998666, -1.04238277074819 
1.3699999999998655, -1.04207994082353 
1.3799999999998644, -1.0416635531393226 
1.3899999999998633, -1.0411223811788768 
1.3999999999998622, -1.0404425464034017 
1.4099999999998611, -1.039619150259917 
1.41999999999986, -1.0386766629524802 
1.429999999999859, -1.0376951941946913 
1.4399999999998578, -1.036826634892645 
1.4499999999998567, -1.036271753588521 
1.4599999999998556, -1.036201874709529 
1.4699999999998545, -1.0366609807790537 
1.4799999999998534, -1.0375274263896634 
1.4899999999998523, -1.0385751695264478 
1.4999999999998512, -1.039582688631321 
1.5099999999998501, -1.0404072523831172 
1.519999999999849, -1.040995104509714 
1.529999999999848, -1.0413527862531977 
1.5399999999998468, -1.0415132866259516 
1.5499999999998457, -1.0415131070743349 
1.5599999999998446, -1.0413812016649833 
1.5699999999998435, -1.0411355223606475 
1.5799999999998424, -1.0407834537182814 
1.5899999999998413, -1.0403245731643616 
1.5999999999998402, -1.0397562475815245 
1.6099999999998391, -1.0390840803699957 
1.619999999999838, -1.0383391608299068 
1.629999999999837, -1.0375999826686082 
1.6399999999998358, -1.037006542031518 
1.6499999999998347, -1.0367426438712 
1.6599999999998336, -1.0369692329577114 
1.6699999999998325, -1.0377327643314493 
1.6799999999998314, -1.0389172909343596 
1.6899999999998303, -1.0402898111249193 
1.6999999999998292, -1.0416067230269372 
1.709999999999828, -1.0427009132699996 
1.719999999999827, -1.0435048017526627 
1.729999999999826, -1.044024624034168 
1.7399999999998248, -1.0443021546830047 
1.7499999999998237, -1.0443861794014868 
1.7599999999998226, -1.044317936128548 
1.7699999999998215, -1.0441264482947679 
1.7799999999998204, -1.0438291038749001 
1.7899999999998193, -1.0434349828360685 
1.7999999999998182, -1.0429506854531938 
1.809999999999817, -1.042389944233412 
1.819999999999816, -1.0417883453747405 
1.8299999999998149, -1.0412213044821883 
1.8399999999998138, -1.0408154648066181 
1.8499999999998127, -1.0407346637836075 
1.8599999999998116, -1.0411257182796432 
1.8699999999998105, -1.0420396477120577 
1.8799999999998094, -1.0433814349256063 
1.8899999999998083, -1.044935846614385 
1.8999999999998072, -1.0464568193343555 
1.909999999999806, -1.0477568335602008 
1.919999999999805, -1.0487453076959743 
1.9299999999998039, -1.0494149348409458 
1.9399999999998028, -1.0498055514493907 
1.9499999999998017, -1.049971712956596 
1.9599999999998006, -1.0499636128832779 
1.9699999999997995, -1.0498196826125918 
1.9799999999997984, -1.0495662141094741 
1.9899999999997973, -1.0492206785922886 
1.9999999999997962, -1.048797620196091 
2.0099999999998173, -1.048317566170981 
2.0199999999998384, -1.0478194614404661 
2.0299999999998595, -1.0473745170877011 
2.0399999999998806, -1.0470934236776983 
2.0499999999999017, -1.0471131480595415 
2.059999999999923, -1.0475540631351445 
2.069999999999944, -1.0484600778297257 
2.079999999999965, -1.0497589736340966 
2.089999999999986, -1.0512762269944402 
2.100000000000007, -1.0527978606930242 
2.1100000000000283, -1.0541427015396418 
2.1200000000000494, -1.0552048844310105 
2.1300000000000705, -1.0559556409329314 
2.1400000000000916, -1.056419138418614 
2.1500000000001127, -1.0566433987744657 
2.160000000000134, -1.0566791117977814 
2.170000000000155, -1.056569026201707 
2.180000000000176, -1.0563453576829285 
2.190000000000197, -1.056032051720256 
2.2000000000002182, -1.0556501140124388 
2.2100000000002393, -1.0552255156414978 
2.2200000000002604, -1.0547991733259647 
2.2300000000002815, -1.0544363567796604 
2.2400000000003026, -1.0542289003633312 
2.2500000000003237, -1.0542813958994945 
2.260000000000345, -1.0546785239647187 
2.270000000000366, -1.055445763254018 
2.280000000000387, -1.0565271281163908 
2.290000000000408, -1.0577961762644372 
2.3000000000004293, -1.0590948165284289 
2.3100000000004504, -1.0602787078577753 
2.3200000000004715, -1.0612490185876022 
2.3300000000004926, -1.0619619650543608 
2.3400000000005137, -1.0624195917353603 
2.3500000000005348, -1.0626516833659967 
2.360000000000556, -1.0626983750210461 
2.370000000000577, -1.062598635724895 
2.380000000000598, -1.0623853729240085 
2.390000000000619, -1.0620857154109775 
2.4000000000006403, -1.0617248530787493 
2.4100000000006614, -1.0613322477711165 
2.4200000000006825, -1.0609487610438442 
2.4300000000007036, -1.0606316587645073 
2.4400000000007247, -1.0604524830857118 
2.450000000000746, -1.0604835238338048 
2.460000000000767, -1.0607748950738878 
2.470000000000788, -1.061332924215519 
2.480000000000809, -1.0621126255546443 
2.49000000000083, -1.063028549959944 
2.5000000000008513, -1.0639773223638285 
2.5100000000008724, -1.0648612503423271 
2.5200000000008935, -1.0656055584233333 
2.5300000000009146, -1.0661664772603614 
2.5400000000009357, -1.0665305734007486 
2.550000000000957, -1.0667077272349748 
2.560000000000978, -1.0667214575989739 
2.570000000000999, -1.0666002743872078 
2.58000000000102, -1.0663723599321648 
2.5900000000010412, -1.0660641443051513 
2.6000000000010624, -1.0657021740863644 
2.6100000000010835, -1.0653170513593113 
2.6200000000011046, -1.0649475177699816 
2.6300000000011257, -1.0646417557435632 
2.6400000000011468, -1.0644527065490894 
2.650000000001168, -1.0644265168265452 
2.660000000001189, -1.0645881376372657 
2.67000000000121, -1.0649316470084325 
2.680000000001231, -1.065420685069034 
2.6900000000012523, -1.0659979959733188 
2.7000000000012734, -1.0665985374040656 
2.7100000000012945, -1.0671609950437548 
2.7200000000013156, -1.0676355361911862 
2.7300000000013367, -1.0679879151254468 
2.740000000001358, -1.0682005872605693 
2.750000000001379, -1.0682712631737992 
2.7600000000014, -1.0682094625892755 
2.770000000001421, -1.0680322231226496 
2.780000000001442, -1.0677604859498593 
2.7900000000014633, -1.0674173327135574 
2.8000000000014844, -1.0670283590625902 
2.8100000000015055, -1.0666234289303422 
2.8200000000015266, -1.0662380761175165 
2.8300000000015477, -1.0659122533585494 
2.840000000001569, -1.0656848096664124 
2.85000000000159, -1.0655845723671584 
2.860000000001611, -1.0656219178543966 
2.870000000001632, -1.0657853481105766 
2.8800000000016532, -1.0660447169642988 
2.8900000000016743, -1.0663588964493158 
2.9000000000016954, -1.0666840713506667 
2.9100000000017165, -1.0669799796897115 
2.9200000000017377, -1.067213478972704 
2.9300000000017588, -1.0673601446228322 
2.94000000000178, -1.067404793188504 
2.950000000001801, -1.0673413650338377 
2.960000000001822, -1.0671721865598496 
2.970000000001843, -1.0669066565600245 
2.9800000000018643, -1.066559761391662 
2.9900000000018854, -1.0661510592686758 
3.0000000000019065, -1.0657045064027781 
3.0100000000019276, -1.065248744198106 
3.0200000000019487, -1.064816624615413 
3.03000000000197, -1.0644424764942657 
3.040000000001991, -1.0641565482507696 
3.050000000002012, -1.0639780746697904 
3.060000000002033, -1.0639100628632092 
3.070000000002054, -1.0639384830474947 
3.0800000000020753, -1.0640361513100673 
3.0900000000020964, -1.0641691673661637 
3.1000000000021175, -1.0643030901177397 
3.1100000000021386, -1.0644071154445158 
3.1200000000021597, -1.0644561007365374 
3.130000000002181, -1.0644312157326874 
3.140000000002202, -1.064320051269202 
3.150000000002223, -1.0641166161349196 
3.160000000002244, -1.0638212809206098 
3.1700000000022652, -1.063440601392553 
3.1800000000022863, -1.062987041485807 
3.1900000000023074, -1.0624787367291015 
3.2000000000023285, -1.0619393506570378 
3.2100000000023496, -1.0613976631454354 
3.2200000000023707, -1.060886019197858 
3.230000000002392, -1.0604367258478522 
3.240000000002413, -1.0600763954267174 
3.250000000002434, -1.0598198217818178 
3.260000000002455, -1.0596660422149846 
3.2700000000024763, -1.0595986127861738 
3.2800000000024974, -1.0595899748358373 
3.2900000000025185, -1.0596077008058749 
3.3000000000025396, -1.059619944532335 
3.3100000000025607, -1.059598659629649 
3.3200000000025818, -1.0595207986108954 
3.330000000002603, -1.0593685501706613 
3.340000000002624, -1.0591295172514759 
3.350000000002645, -1.0587971312641642 
3.360000000002666, -1.0583711372202924 
3.3700000000026873, -1.0578579162839516 
3.3800000000027084, -1.057270594223903 
3.3900000000027295, -1.0566290119186197 
3.4000000000027506, -1.0559595038467713 
3.4100000000027717, -1.0552940544270553 
3.420000000002793, -1.0546680330864464 
3.430000000002814, -1.0541158078047075 
3.440000000002835, -1.0536644813181413 
3.450000000002856, -1.0533275313782968 
3.460000000002877, -1.0531011523521434 
3.4700000000028983, -1.0529653507326047 
3.4800000000029194, -1.0528893831250825 
3.4900000000029405, -1.0528387580083147 
3.5000000000029616, -1.0527807077841616 
3.5100000000029827, -1.0526867552768955 
3.520000000003004, -1.0525330112021918 
3.530000000003025, -1.052299746790264 
3.540000000003046, -1.051971505315446 
3.550000000003067, -1.0515381669668353 
3.5600000000030882, -1.0509965779947348 
3.5700000000031094, -1.0503520102351545 
3.5800000000031305, -1.049618929382489 
3.5900000000031516, -1.0488209929144907 
3.6000000000031727, -1.047990362232054 
3.6100000000031938, -1.0471660985792108 
3.620000000003215, -1.0463909430234946 
3.630000000003236, -1.0457057964014633 
3.640000000003257, -1.0451422215952262 
3.650000000003278, -1.0447150704725194 
3.6600000000032993, -1.0444185844786626 
3.6700000000033204, -1.0442283797952492 
3.6800000000033415, -1.0441085639771228 
3.6900000000033626, -1.0440202879900107 
3.7000000000033837, -1.0439278813734376 
3.710000000003405, -1.043801082621393 
3.720000000003426, -1.0436143724125801 
3.730000000003447, -1.0433454442899328 
3.740000000003468, -1.0429745519660902 
3.750000000003489, -1.042485602753289 
3.7600000000035103, -1.0418688716838722 
3.7700000000035314, -1.0411243578553457 
3.7800000000035525, -1.0402644640340637 
3.7900000000035736, -1.039315057067889 
3.8000000000035947, -1.0383146617000327 
3.810000000003616, -1.037311833553689 
3.820000000003637, -1.0363604621529876 
3.830000000003658, -1.03551255809754 
3.840000000003679, -1.0348089138229997 
3.8500000000037002, -1.0342699930999213 
3.8600000000037213, -1.0338910375606174 
3.8700000000037424, -1.0336444504806308 
3.8800000000037635, -1.0334886621226895 
3.8900000000037847, -1.0333788816155915 
3.9000000000038058, -1.0332748075020366 
3.910000000003827, -1.0331432992611256 
3.920000000003848, -1.0329571474412182 
3.930000000003869, -1.0326923687224132 
3.94000000000389, -1.0323261746173555 
3.9500000000039113, -1.0318369706451611 
3.9600000000039324, -1.031206898098442 
3.9700000000039535, -1.030426453257856 
3.9800000000039746, -1.0294996946970703 
3.9900000000039957, -1.0284480439480566 
4.000000000004016, -1.0273111550346572 
4.010000000003993, -1.0261443470092646 
4.02000000000397, -1.025012722661997 
4.030000000003946, -1.0239821650881895 
4.040000000003923, -1.0231078727998466 
4.0500000000039, -1.0224227850431578 
4.0600000000038765, -1.0219302315579384 
4.070000000003853, -1.021604854952549 
4.08000000000383, -1.021401957526 
4.090000000003807, -1.0212705348058135 
4.100000000003783, -1.021163779132693 
4.11000000000376, -1.0210436978018198 
4.120000000003737, -1.0208804467630976 
4.130000000003713, -1.0206490065362903 
4.14000000000369, -1.020325758899774 
4.150000000003667, -1.0198867027359877 
4.1600000000036434, -1.01930833703272 
4.17000000000362, -1.0185715622697238 
4.180000000003597, -1.0176679191680873 
4.1900000000035735, -1.0166062060530243 
4.20000000000355, -1.015416828662509 
4.210000000003527, -1.014151843397582 
4.220000000003504, -1.0128800868666736 
4.23000000000348, -1.011677891820776 
4.240000000003457, -1.0106164627221805 
4.250000000003434, -1.0097480074712 
4.26000000000341, -1.009094565703368 
4.270000000003387, -1.0086443816159678 
4.280000000003364, -1.0083582079061402 
4.2900000000033405, -1.0081826635749467 
4.300000000003317, -1.0080640087964823 
4.310000000003294, -1.0079567411063182 
4.320000000003271, -1.0078256275502187 
4.330000000003247, -1.007643212891477 
4.340000000003224, -1.0073857389390215 
4.350000000003201, -1.0070297258602745 
4.360000000003177, -1.0065506158080262 
4.370000000003154, -1.0059243348377354 
4.380000000003131, -1.005132024782682 
4.390000000003107, -1.004167073662794 
4.400000000003084, -1.0030421541235766 
4.410000000003061, -1.0017932965706735 
4.4200000000030375, -1.0004788653770011 
4.430000000003014, -0.9991730695896731 
4.440000000002991, -0.9979550001099089 
4.450000000002968, -0.9968948994249415 
4.460000000002944, -0.9960403819653738 
4.470000000002921, -0.9954067881207289 
4.480000000002898, -0.9949759454359903 
4.490000000002874, -0.994704461321386 
4.500000000002851, -0.9945376577769739 
4.510000000002828, -0.9944225735378079 
4.520000000002804, -0.9943153179335382 
4.530000000002781, -0.9941821886525245 
4.540000000002758, -0.9939968327091713 
4.5500000000027345, -0.9937362342189706 
4.560000000002711, -0.9933775601496375 
4.570000000002688, -0.9928971151166573 
4.580000000002665, -0.992272150215997 
4.590000000002641, -0.9914856370803404 
4.600000000002618, -0.9905329770806125 
4.610000000002595, -0.9894283082075729 
4.620000000002571, -0.9882076476098829 
4.630000000002548, -0.9869271841122531 
4.640000000002525, -0.9856568053002637 
4.6500000000025015, -0.9844700653745052 
4.660000000002478, -0.9834321396515209 
4.670000000002455, -0.9825878938571879 
4.6800000000024315, -0.981953344710296 
4.690000000002408, -0.9815140622319003 
4.700000000002385, -0.981231771943221 
4.710000000002362, -0.9810563175027187 
4.720000000002338, -0.9809375242984674 
4.730000000002315, -0.9808325682814946 
4.740000000002292, -0.9807078158933171 
4.750000000002268, -0.9805368220369199 
4.760000000002245, -0.9802969514781459 
4.770000000002222, -0.979966596372724 
4.7800000000021985, -0.9795242427843623 
4.790000000002175, -0.9789500498982836 
4.800000000002152, -0.9782298974550295 
4.810000000002129, -0.9773608146140905 
4.820000000002105, -0.9763557284898473 
4.830000000002082, -0.975245423229973 
4.840000000002059, -0.9740767573584209 
4.850000000002035, -0.9729076187102127 
4.860000000002012, -0.9717996763121912 
4.870000000001989, -0.9708097882173824 
4.880000000001965, -0.9699809955372093 
4.890000000001942, -0.9693349278094049 
4.900000000001919, -0.9688683079735563 
4.9100000000018955, -0.9685555281840097 
4.920000000001872, -0.9683566096359192 
4.930000000001849, -0.968227085518164 
