t, s[1].omega / s[0].omega 
0, -0.49999775717468375 
0.009999999999999995, -0.4997922712744457 
0.019999999999999934, -0.49961679110731483 
0.029999999999999874, -0.4994525934421715 
0.04000000000000012, -0.499276349467306 
0.050000000000000405, -0.4990675185871627 
0.06000000000000069, -0.49881292441381353 
0.07000000000000098, -0.49850748556433777 
0.08000000000000126, -0.49815243705443235 
0.09000000000000155, -0.49775316842859113 
0.10000000000000184, -0.4973182252424201 
0.11000000000000212, -0.4968601888456739 
0.12000000000000241, -0.49639871317567064 
0.130000000000002, -0.49596584864260373 
0.1400000000000009, -0.4956133104764925 
0.1499999999999998, -0.4954194077305414 
0.1599999999999987, -0.4954880301525358 
0.1699999999999976, -0.49592192431878646 
0.1799999999999965, -0.49674405164404456 
0.1899999999999954, -0.4977665042056082 
0.1999999999999943, -0.4985148867591723 
0.2099999999999932, -0.49842298980244604 
0.2199999999999921, -0.49728417037347616 
0.229999999999991, -0.4954652994819836 
0.2399999999999899, -0.4935820370949614 
0.2499999999999888, -0.49206423249946624 
0.2599999999999877, -0.49103526248176665 
0.2699999999999866, -0.4904266649937953 
0.2799999999999855, -0.4901112937359864 
0.2899999999999844, -0.48997345836363826 
0.2999999999999833, -0.4899290216429543 
0.3099999999999822, -0.489923077468461 
0.3199999999999811, -0.48992165389144826 
0.32999999999998, -0.48990396430055433 
0.3399999999999789, -0.4898569613076231 
0.3499999999999778, -0.48977231546268074 
0.35999999999997667, -0.4896455719523959 
0.36999999999997557, -0.48947708174419924 
0.37999999999997447, -0.489273840014589 
0.38999999999997337, -0.4890506029988379 
0.39999999999997227, -0.4888283073631836 
0.40999999999997117, -0.48862885165167064 
0.41999999999997006, -0.4884676281608635 
0.42999999999996896, -0.4883471637683125 
0.43999999999996786, -0.48825520308963705 
0.44999999999996676, -0.48816847000260466 
0.45999999999996566, -0.48806034775269813 
0.46999999999996456, -0.487908602401971 
0.47999999999996346, -0.487699668925779 
0.48999999999996235, -0.48742864691406906 
0.49999999999996125, -0.48709666921053885 
0.5099999999999602, -0.48670795025921265 
0.519999999999959, -0.4862679963337902 
0.529999999999958, -0.4857834537955437 
0.5399999999999568, -0.48526351377407273 
0.5499999999999557, -0.4847224667394691 
0.5599999999999546, -0.48418219393444184 
0.5699999999999535, -0.4836709456124207 
0.5799999999999524, -0.4832093150694311 
0.5899999999999513, -0.482767061225234 
0.5999999999999502, -0.4821793903443787 
0.6099999999999491, -0.48106690970742993 
0.619999999999948, -0.4789183177416029 
0.6299999999999469, -0.4754679847918764 
0.6399999999999458, -0.4710785054074126 
0.6499999999999447, -0.4665888151173417 
0.6599999999999436, -0.4627470165065438 
0.6699999999999425, -0.45986956574254023 
0.6799999999999414, -0.45790884548504635 
0.6899999999999403, -0.4566599733442439 
0.6999999999999392, -0.4559049024602902 
0.7099999999999381, -0.45546935195957927 
0.719999999999937, -0.4552306693833543 
0.7299999999999359, -0.45510815642173197 
0.7399999999999348, -0.45505075490691044 
0.7499999999999337, -0.4550270469553861 
0.7599999999999326, -0.4550184413848862 
0.7699999999999315, -0.45501518016538595 
0.7799999999999304, -0.45501455413663605 
0.7899999999999293, -0.4550205959788457 
0.7999999999999282, -0.45504419480384534 
0.8099999999999271, -0.4551021648444933 
0.819999999999926, -0.4552138212925656 
0.8299999999999249, -0.45539459877132404 
0.8399999999999238, -0.45564808647109184 
0.8499999999999227, -0.45595970184753415 
0.8599999999999216, -0.4562959182699243 
0.8699999999999205, -0.45661123821897326 
0.8799999999999194, -0.45686068092097554 
0.8899999999999183, -0.45701134939888516 
0.8999999999999172, -0.4570471507222457 
0.9099999999999161, -0.45696585607187307 
0.919999999999915, -0.4567721161312993 
0.9299999999999139, -0.45647036443796835 
0.9399999999999128, -0.4560592629017773 
0.9499999999999117, -0.4555271826163265 
0.9599999999999106, -0.45484705778918133 
0.9699999999999095, -0.4539682923296612 
0.9799999999999084, -0.4528027185550407 
0.9899999999999073, -0.4512015965191676 
0.9999999999999062, -0.4489253510438914 
1.0099999999999052, -0.4456273516800204 
1.019999999999904, -0.44091490406906547 
1.029999999999903, -0.43456857670255655 
1.039999999999902, -0.42685830371480177 
1.0499999999999008, -0.41862467125194663 
1.0599999999998997, -0.4108980122616619 
1.0699999999998986, -0.4043917697030392 
1.0799999999998975, -0.39932719522706317 
1.0899999999998964, -0.39557976307375153 
1.0999999999998953, -0.3928892267283802 
1.1099999999998942, -0.3909918381018019 
1.119999999999893, -0.38967201931794493 
1.129999999999892, -0.3887703369008907 
1.1399999999998909, -0.3881753638159326 
1.1499999999998898, -0.3878125767699625 
1.1599999999998887, -0.38763496165523775 
1.1699999999998876, -0.38761637146179495 
1.1799999999998865, -0.3877474515224251 
1.1899999999998854, -0.38803363133575763 
1.1999999999998843, -0.3884945652171864 
1.2099999999998832, -0.38916413058586213 
1.219999999999882, -0.3900894480300801 
1.229999999999881, -0.39132627725235836 
1.2399999999998799, -0.3929268580564666 
1.2499999999998788, -0.3949162831646836 
1.2599999999998777, -0.3972584928228665 
1.2699999999998766, -0.3998266808773858 
1.2799999999998755, -0.40240803323578855 
1.2899999999998744, -0.40476272395966567 
1.2999999999998733, -0.40670964925396014 
1.3099999999998722, -0.40817739940473574 
1.319999999999871, -0.4091919432064476 
1.32999999999987, -0.40982906421364174 
1.3399999999998689, -0.4101713349322277 
1.3499999999998678, -0.4102851973094701 
1.3599999999998666, -0.4102138252106509 
1.3699999999998655, -0.40997718077316475 
1.3799999999998644, -0.40957375580232813 
1.3899999999998633, -0.4089822004459179 
1.3999999999998622, -0.4081639152428961 
1.4099999999998611, -0.4070701122863226 
1.41999999999986, -0.40565810992957674 
1.429999999999859, -0.4039182631421944 
1.4399999999998578, -0.4019016129713636 
1.4499999999998567, -0.39972623301375637 
1.4599999999998556, -0.39754741616335487 
1.4699999999998545, -0.39550675555021503 
1.4799999999998534, -0.3936940815360277 
1.4899999999998523, -0.39214044791562586 
1.4999999999998512, -0.39083389886056763 
1.5099999999998501, -0.38974098996091056 
1.519999999999849, -0.38882362179960517 
1.529999999999848, -0.3880488540373518 
1.5399999999998468, -0.38739334063304665 
1.5499999999998457, -0.38684485742925806 
1.5599999999998446, -0.3864029817336842 
1.5699999999998435, -0.38608035820318826 
1.5799999999998424, -0.3859055407109172 
1.5899999999998413, -0.3859282156963204 
1.5999999999998402, -0.38622756309873585 
1.6099999999998391, -0.38692421193279636 
1.619999999999838, -0.38819475666768816 
1.629999999999837, -0.39028298513472914 
1.6399999999998358, -0.3934901085910936 
1.6499999999998347, -0.39810559788744454 
1.6599999999998336, -0.4042288254319922 
1.6699999999998325, -0.4114998158556869 
1.6799999999998314, -0.4189703720969574 
1.6899999999998303, -0.425457698580045 
1.6999999999998292, -0.43023253439598425 
1.709999999999828, -0.43332030810754035 
1.719999999999827, -0.4351839745652473 
1.729999999999826, -0.4363019651687649 
1.7399999999998248, -0.43699556218611557 
1.7499999999998237, -0.43744189056368077 
1.7599999999998226, -0.4377311150478069 
1.7699999999998215, -0.43790893835412453 
1.7799999999998204, -0.4379992185252113 
1.7899999999998193, -0.4380144273575451 
1.7999999999998182, -0.437960366634783 
1.809999999999817, -0.437838736559809 
1.819999999999816, -0.43764943790967503 
1.8299999999998149, -0.4373935681011405 
1.8399999999998138, -0.43707722123109755 
1.8499999999998127, -0.43671500988993595 
1.8599999999998116, -0.43633109595106656 
1.8699999999998105, -0.43595571686104584 
1.8799999999998094, -0.43561747355926317 
1.8899999999998083, -0.4353345555721829 
1.8999999999998072, -0.43510906615381756 
1.909999999999806, -0.43492700469685985 
1.919999999999805, -0.4347636916908191 
1.9299999999998039, -0.43459195331851924 
1.9399999999998028, -0.4343892956051271 
1.9499999999998017, -0.43414136339527776 
1.9599999999998006, -0.43384148052045307 
1.9699999999997995, -0.43348798784128 
1.9799999999997984, -0.4330813120045244 
1.9899999999997973, -0.4326218045959617 
1.9999999999997962, -0.43210840926670624 
2.0099999999998173, -0.43153747231130446 
2.0199999999998384, -0.4309001094080965 
2.0299999999998595, -0.4301746550439237 
2.0399999999998806, -0.4293070560499186 
2.0499999999999017, -0.42816808075900664 
2.059999999999923, -0.4264834211479063 
2.069999999999944, -0.42378272637247105 
2.079999999999965, -0.4195174532853261 
2.089999999999986, -0.4134798730670436 
2.100000000000007, -0.40623195159904124 
2.1100000000000283, -0.3989246145263917 
2.1200000000000494, -0.39258644336192 
2.1300000000000705, -0.3876683290271192 
2.1400000000000916, -0.38412234030725945 
2.1500000000001127, -0.381677567979297 
2.160000000000134, -0.38003675717410207 
2.170000000000155, -0.3789562153677831 
2.180000000000176, -0.3782593731940415 
2.190000000000197, -0.37782623260235226 
2.2000000000002182, -0.37757861966135176 
2.2100000000002393, -0.3774679051461668 
2.2200000000002604, -0.3774664294618619 
2.2300000000002815, -0.37756218411198217 
2.2400000000003026, -0.37775596311537524 
2.2500000000003237, -0.3780601509589133 
2.260000000000345, -0.3784981410352442 
2.270000000000366, -0.37910295420644996 
2.280000000000387, -0.37991303663853515 
2.290000000000408, -0.3809628307026484 
2.3000000000004293, -0.3822664795328764 
2.3100000000004504, -0.3837967525692666 
2.3200000000004715, -0.3854690636609517 
2.3300000000004926, -0.38714713771163883 
2.3400000000005137, -0.3886790849877432 
2.3500000000005348, -0.38994716660047063 
2.360000000000556, -0.39089818871277726 
2.370000000000577, -0.39153872570729176 
2.380000000000598, -0.3919087384483123 
2.390000000000619, -0.3920551303768508 
2.4000000000006403, -0.39201543017375073 
2.4100000000006614, -0.3918105882761543 
2.4200000000006825, -0.39144236024962664 
2.4300000000007036, -0.3908919156204596 
2.4400000000007247, -0.3901187542033441 
2.450000000000746, -0.38906189104399397 
2.460000000000767, -0.387648682735288 
2.470000000000788, -0.3858186753691459 
2.480000000000809, -0.38356394314437986 
2.49000000000083, -0.3809680001453165 
2.5000000000008513, -0.37820733428476744 
2.5100000000008724, -0.37549789028081193 
2.5200000000008935, -0.37301955117005237 
2.5300000000009146, -0.3708711422471783 
2.5400000000009357, -0.369072747179734 
2.550000000000957, -0.36759423932758384 
2.560000000000978, -0.3663849367979404 
2.570000000000999, -0.36539339721444913 
2.58000000000102, -0.36457733372193124 
2.5900000000010412, -0.3639072446241992 
2.6000000000010624, -0.3633671625591173 
2.6100000000010835, -0.362954846896886 
2.6200000000011046, -0.36268285151841007 
2.6300000000011257, -0.36258141300017527 
2.6400000000011468, -0.3627039483830891 
2.650000000001168, -0.36313591017946995 
2.660000000001189, -0.3640073464683348 
2.67000000000121, -0.3655076274137341 
2.680000000001231, -0.3678949008795347 
2.6900000000012523, -0.3714787865453175 
2.7000000000012734, -0.37653213321525414 
2.7100000000012945, -0.38308280353262913 
2.7200000000013156, -0.3906348098667163 
2.7300000000013367, -0.39811042744825287 
2.740000000001358, -0.40433145393545794 
2.750000000001379, -0.40871905375754664 
2.7600000000014, -0.41145243755408567 
2.770000000001421, -0.4130548009312246 
2.780000000001442, -0.41399580078902043 
2.7900000000014633, -0.41457035076638943 
2.8000000000014844, -0.41493469647965825 
2.8100000000015055, -0.4151662616236923 
2.8200000000015266, -0.41530341419664724 
2.8300000000015477, -0.4153657232785287 
2.840000000001569, -0.41536319273710437 
2.85000000000159, -0.41530051942602714 
2.860000000001611, -0.4151796218886951 
2.870000000001632, -0.41500207964138147 
2.8800000000016532, -0.414772174098658 
2.8900000000016743, -0.4145002733589321 
2.9000000000016954, -0.4142051733071959 
2.9100000000017165, -0.4139133374108678 
2.9200000000017377, -0.4136538328525504 
2.9300000000017588, -0.41345015508227306 
2.94000000000178, -0.413312313003986 
2.950000000001801, -0.4132327873734899 
2.960000000001822, -0.4131883453501023 
2.970000000001843, -0.41314714078928716 
2.9800000000018643, -0.41307793966853684 
2.9900000000018854, -0.4129572044557559 
3.0000000000019065, -0.4127713838482018 
3.0100000000019276, -0.41251482758916563 
3.0200000000019487, -0.4121856128126802 
3.03000000000197, -0.4117812793978993 
3.040000000001991, -0.4112951165562593 
3.050000000002012, -0.4107123763379306 
3.060000000002033, -0.41000478069569946 
3.070000000002054, -0.4091204625147723 
3.0800000000020753, -0.4079647281965756 
3.0900000000020964, -0.40636628515297757 
3.1000000000021175, -0.40403167213043967 
3.1100000000021386, -0.40052633883906885 
3.1200000000021597, -0.395388737169336 
3.130000000002181, -0.38847220732877813 
3.140000000002202, -0.38031209139309535 
3.150000000002223, -0.3720175339755182 
3.160000000002244, -0.364652895253845 
3.1700000000022652, -0.3587550494849882 
3.1800000000022863, -0.35434294888381274 
3.1900000000023074, -0.351170923727245 
3.2000000000023285, -0.34893798903785567 
3.2100000000023496, -0.34738453485740134 
3.2200000000023707, -0.3463160398002892 
3.230000000002392, -0.34559695340517355 
3.240000000002413, -0.34513740490993905 
3.250000000002434, -0.34488119836174347 
3.260000000002455, -0.34479720763099997 
3.2700000000024763, -0.3448741137679746 
3.2800000000024974, -0.3451179059768578 
3.2900000000025185, -0.345551504629281 
3.3000000000025396, -0.34621572017425023 
3.3100000000025607, -0.34717019896848633 
3.3200000000025818, -0.3484917025587183 
3.330000000002603, -0.35026482953244736 
3.340000000002624, -0.3525579626054684 
3.350000000002645, -0.35537900336561734 
3.360000000002666, -0.35862016245092004 
3.3700000000026873, -0.36203095760575255 
3.3800000000027084, -0.3652712301495181 
3.3900000000027295, -0.3680391777054739 
3.4000000000027506, -0.37018181520460586 
3.4100000000027717, -0.37170635594442103 
3.420000000002793, -0.3727139719600937 
3.430000000002814, -0.37332757060866123 
3.440000000002835, -0.37365132477695673 
3.450000000002856, -0.37375872255735737 
3.460000000002877, -0.37369431142664467 
3.4700000000028983, -0.37347906233070644 
3.4800000000029194, -0.37311554032864447 
3.4900000000029405, -0.37259283151528844 
3.5000000000029616, -0.3718930370717963 
3.5100000000029827, -0.37100154174569916 
3.520000000003004, -0.36992127345967124 
3.530000000003025, -0.36868606712662527 
3.540000000003046, -0.36736341891167684 
3.550000000003067, -0.36604011454222163 
3.5600000000030882, -0.36479679076458865 
3.5700000000031094, -0.3636866908231487 
3.5800000000031305, -0.36272892006929036 
3.5900000000031516, -0.36191475270461243 
3.6000000000031727, -0.3612195030304512 
3.6100000000031938, -0.36061371222300226 
3.620000000003215, -0.360070817031463 
3.630000000003236, -0.359570996217986 
3.640000000003257, -0.35910223395614543 
3.650000000003278, -0.3586600960696313 
3.6600000000032993, -0.3582475532302469 
3.6700000000033204, -0.3578757583603224 
3.6800000000033415, -0.35756627352052905 
3.6900000000033626, -0.35735480287129207 
3.7000000000033837, -0.3572954850948523 
3.710000000003405, -0.3574618926117235 
3.720000000003426, -0.35793360640727256 
3.730000000003447, -0.3587438248037728 
3.740000000003468, -0.3597551287148165 
3.750000000003489, -0.3604821646502496 
3.7600000000035103, -0.36006914295055803 
3.7700000000035314, -0.35776051141224163 
3.7800000000035525, -0.35365403540880136 
3.7900000000035736, -0.34876256285556495 
3.8000000000035947, -0.3442089540594417 
3.810000000003616, -0.34058688601762377 
3.820000000003637, -0.3379682223771227 
3.830000000003658, -0.3361761441852791 
3.840000000003679, -0.3349874999714795 
3.8500000000037002, -0.33421561870780514 
3.8600000000037213, -0.3337263570436383 
3.8700000000037424, -0.33343048791009045 
3.8800000000037635, -0.3332719301420165 
3.8900000000037847, -0.33321808734276637 
3.9000000000038058, -0.33325342042620415 
3.910000000003827, -0.3333758520369055 
3.920000000003848, -0.33359527691705343 
3.930000000003869, -0.33393332551617916 
3.94000000000389, -0.33442322721182793 
3.9500000000039113, -0.3351080553885799 
3.9600000000039324, -0.3360349133314364 
3.9700000000039535, -0.3372422029555962 
3.9800000000039746, -0.3387384610624303 
3.9900000000039957, -0.34047709561453077 
4.000000000004016, -0.34234219883785777 
4.010000000003993, -0.34416611909888817 
4.02000000000397, -0.3457817234842833 
4.030000000003946, -0.3470784157138653 
4.040000000003923, -0.34802359133656496 
4.0500000000039, -0.34864422200588635 
4.0600000000038765, -0.34899319857478256 
4.070000000003853, -0.349122900164064 
4.08000000000383, -0.34907183393046193 
4.090000000003807, -0.34886029528394474 
4.100000000003783, -0.3484899760274053 
4.11000000000376, -0.34794491781307185 
4.120000000003737, -0.34719401337296213 
4.130000000003713, -0.34619769441104886 
4.14000000000369, -0.34492262215535285 
4.150000000003667, -0.34336522638309797 
4.1600000000036434, -0.3415752192423932 
4.17000000000362, -0.3396600883658385 
4.180000000003597, -0.33775809484482205 
4.1900000000035735, -0.3359932177653294 
4.20000000000355, -0.33444177347951964 
4.210000000003527, -0.3331265889016029 
4.220000000003504, -0.332031375203184 
4.23000000000348, -0.3311202515478637 
4.240000000003457, -0.330353160621278 
4.250000000003434, -0.32969497034753936 
4.26000000000341, -0.3291194992584423 
4.270000000003387, -0.3286105378537564 
4.280000000003364, -0.3281617444453707 
4.2900000000033405, -0.32777681566793293 
4.300000000003317, -0.3274708769110283 
4.310000000003294, -0.3272737158431541 
4.320000000003271, -0.3272351459891589 
4.330000000003247, -0.32743183391998176 
4.340000000003224, -0.3279718254488411 
4.350000000003201, -0.328984651938756 
4.360000000003177, -0.33056800273955517 
4.370000000003154, -0.332646369555677 
4.380000000003131, -0.33474503762088237 
4.390000000003107, -0.33590204559602077 
4.400000000003084, -0.33514175457942363 
4.410000000003061, -0.3323538419042927 
4.4200000000030375, -0.32846978523660453 
4.430000000003014, -0.32463839020485785 
4.440000000002991, -0.32151549149965325 
4.450000000002968, -0.3192333992745845 
4.460000000002944, -0.3176641199758013 
4.470000000002921, -0.3166209219415369 
4.480000000002898, -0.31594293658819617 
4.490000000002874, -0.31551372072941936 
4.500000000002851, -0.315256031538368 
4.510000000002828, -0.3151219719392308 
4.520000000002804, -0.31508475403228714 
4.530000000002781, -0.31513331093132846 
4.540000000002758, -0.315269471415097 
4.5500000000027345, -0.3155070465307272 
4.560000000002711, -0.31587198917378945 
4.570000000002688, -0.3164024154507604 
4.580000000002665, -0.31714662215749667 
4.590000000002641, -0.31815638071707214 
4.600000000002618, -0.3194722716748834 
4.610000000002595, -0.32109950664729164 
4.620000000002571, -0.32297997571053927 
4.630000000002548, -0.3249791041242918 
4.640000000002525, -0.32691060679950834 
4.6500000000025015, -0.3285980864574864 
4.660000000002478, -0.32993418892510523 
4.670000000002455, -0.33089687399528056 
4.6800000000024315, -0.33152383213390774 
4.690000000002408, -0.33187521917863816 
4.700000000002385, -0.33200722514166214 
4.710000000002362, -0.3319601038899428 
4.720000000002338, -0.3317552256221374 
4.730000000002315, -0.33139584066429256 
4.740000000002292, -0.3308692166390269 
4.750000000002268, -0.3301506048435675 
4.760000000002245, -0.3292114404013839 
4.770000000002222, -0.3280342478639776 
4.7800000000021985, -0.3266326191998866 
4.790000000002175, -0.32506619759034666 
4.800000000002152, -0.3234360053334056 
4.810000000002129, -0.3218562771040629 
4.820000000002105, -0.32041906464012 
4.830000000002082, -0.3191734254133574 
4.840000000002059, -0.3181260588204296 
4.850000000002035, -0.317254910354235 
4.860000000002012, -0.31652480987498194 
