t, s[1].omega / s[0].omega 
0, -1.5999971450386927 
0.009999999999999995, -1.599591348987968 
0.019999999999999934, -1.5989489598315734 
0.029999999999999874, -1.5980789772764132 
0.04000000000000012, -1.597011160478655 
0.050000000000000405, -1.5958185532105278 
0.06000000000000069, -1.5946390271602733 
0.07000000000000098, -1.5936604902041895 
0.08000000000000126, -1.5930291327850106 
0.09000000000000155, -1.5927368136353723 
0.10000000000000184, -1.5926323500731845 
0.11000000000000212, -1.5925447589825397 
0.12000000000000241, -1.5923604425400788 
0.130000000000002, -1.5920107125008176 
0.1400000000000009, -1.5914292966534556 
0.1499999999999998, -1.5905221450227713 
0.1599999999999987, -1.5891755272709847 
0.1699999999999976, -1.5873636299932197 
0.1799999999999965, -1.5854312060084923 
0.1899999999999954, -1.5843388151615871 
0.1999999999999943, -1.5851104963361842 
0.2099999999999932, -1.587618428717682 
0.2199999999999921, -1.5906351161327168 
0.229999999999991, -1.5931127117106707 
0.2399999999999899, -1.5947325497050362 
0.2499999999999888, -1.5956109315401934 
0.2599999999999877, -1.5959624126613239 
0.2699999999999866, -1.5959626512590805 
0.2799999999999855, -1.5957303716626552 
0.2899999999999844, -1.5953496327309762 
0.2999999999999833, -1.594899508145878 
0.3099999999999822, -1.5944722603336738 
0.3199999999999811, -1.5941596650663263 
0.32999999999998, -1.5940116584490351 
0.3399999999999789, -1.5940117538720782 
0.3499999999999778, -1.5940939952355853 
0.35999999999997667, -1.594175570611235 
0.36999999999997557, -1.5941798632392934 
0.37999999999997447, -1.594044129617781 
0.38999999999997337, -1.5937137497823617 
0.39999999999997227, -1.593130874002305 
0.40999999999997117, -1.59222678679849 
0.41999999999997006, -1.5909258954736911 
0.42999999999996896, -1.589171780715873 
0.43999999999996786, -1.586990828215978 
0.44999999999996676, -1.5845939531631845 
0.45999999999996566, -1.5824309094054065 
0.46999999999996456, -1.5810022373085444 
0.47999999999996346, -1.5804568480999108 
0.48999999999996235, -1.5804846425936219 
0.49999999999996125, -1.5806658896105754 
0.5099999999999602, -1.580753327550129 
0.519999999999959, -1.5806656169394842 
0.529999999999958, -1.5803882397048024 
0.5399999999999568, -1.5799133821906581 
0.5499999999999557, -1.5792323158462713 
0.5599999999999546, -1.578383373317168 
0.5699999999999535, -1.5775666991940303 
0.5799999999999524, -1.5772378104762652 
0.5899999999999513, -1.5779018577414097 
0.5999999999999502, -1.5796030712324884 
0.6099999999999491, -1.5818036708725134 
0.619999999999948, -1.5838674509431574 
0.6299999999999469, -1.5854444208385903 
0.6399999999999458, -1.586466687084532 
0.6499999999999447, -1.5870047327132388 
0.6599999999999436, -1.5871632400263573 
0.6699999999999425, -1.5870363862832606 
0.6799999999999414, -1.5866987129504975 
0.6899999999999403, -1.5862129868345898 
0.6999999999999392, -1.5856436018131475 
0.7099999999999381, -1.5850644980798465 
0.719999999999937, -1.5845523884070774 
0.7299999999999359, -1.5841668015539463 
0.7399999999999348, -1.5839269487143819 
0.7499999999999337, -1.583798266158952 
0.7599999999999326, -1.583704700568973 
0.7699999999999315, -1.5835603931091247 
0.7799999999999304, -1.5832884511165415 
0.7899999999999293, -1.5828126122307886 
0.7999999999999282, -1.5820342350821108 
0.8099999999999271, -1.5808110710283603 
0.819999999999926, -1.578957813167712 
0.8299999999999249, -1.5763121203976564 
0.8399999999999238, -1.5729342258870556 
0.8499999999999227, -1.569406596686035 
0.8599999999999216, -1.5668118593062703 
0.8699999999999205, -1.5659089546104932 
0.8799999999999194, -1.5663639411760246 
0.8899999999999183, -1.567264683502603 
0.8999999999999172, -1.567995890791581 
0.9099999999999161, -1.5683847162903017 
0.919999999999915, -1.5684641880703123 
0.9299999999999139, -1.5683034724571063 
0.9399999999999128, -1.5679556770423204 
0.9499999999999117, -1.5674668103250613 
0.9599999999999106, -1.566917250790284 
0.9699999999999095, -1.5664726699321634 
0.9799999999999084, -1.5663716261698222 
0.9899999999999073, -1.5667772817179282 
0.9999999999999062, -1.5676193729321435 
1.0099999999999052, -1.5686452112591833 
1.019999999999904, -1.5696026721666645 
1.029999999999903, -1.5703409499581145 
1.039999999999902, -1.5708030172377478 
1.0499999999999008, -1.5709853215712613 
1.0599999999998997, -1.5709067324349753 
1.0699999999998986, -1.5705925596626673 
1.0799999999998975, -1.570069764746378 
1.0899999999998964, -1.5693703340791982 
1.0999999999998953, -1.5685408017888922 
1.1099999999998942, -1.5676538824983306 
1.119999999999893, -1.5668130106807552 
1.129999999999892, -1.566133392985464 
1.1399999999998909, -1.5656884356837781 
1.1499999999998898, -1.565456241883623 
1.1599999999998887, -1.5653324244222637 
1.1699999999998876, -1.5651976023942473 
1.1799999999998865, -1.5649598416465609 
1.1899999999998854, -1.5645456109843487 
1.1999999999998843, -1.5638675796598807 
1.2099999999998832, -1.5627944601105763 
1.219999999999882, -1.5611447710238917 
1.229999999999881, -1.5587614642964163 
1.2399999999998799, -1.5557690401691362 
1.2499999999998788, -1.5529560728167757 
1.2599999999998777, -1.5516281893119328 
1.2699999999998766, -1.5523948947475343 
1.2799999999998755, -1.5544306230391745 
1.2899999999998744, -1.556496465644584 
1.2999999999998733, -1.5579679640043205 
1.3099999999998722, -1.5587963289082358 
1.319999999999871, -1.559135965276648 
1.32999999999987, -1.5591414225345852 
1.3399999999998689, -1.5589200221174617 
1.3499999999998678, -1.558546225847243 
1.3599999999998666, -1.558094621650494 
1.3699999999998655, -1.5576716471088707 
1.3799999999998644, -1.5574130917917703 
1.3899999999998633, -1.5574199061012692 
1.3999999999998622, -1.5576842601763685 
1.4099999999998611, -1.5580977280868198 
1.41999999999986, -1.558525308890365 
1.429999999999859, -1.55886079171999 
1.4399999999998578, -1.5590381017772852 
1.4499999999998567, -1.5590204613156424 
1.4599999999998556, -1.5587865675195416 
1.4699999999998545, -1.5583215053200081 
1.4799999999998534, -1.5576143173194992 
1.4899999999998523, -1.5566628946738583 
1.4999999999998512, -1.5554878615959296 
1.5099999999998501, -1.5541566301218999 
1.519999999999849, -1.5528092239633078 
1.529999999999848, -1.5516511132220487 
1.5399999999998468, -1.5508650281711451 
1.5499999999998457, -1.550480503549487 
1.5599999999998446, -1.550355259526933 
1.5699999999998435, -1.550298472829631 
1.5799999999998424, -1.5501749577025854 
1.5899999999998413, -1.5499100385240994 
1.5999999999998402, -1.5494482434398402 
1.6099999999998391, -1.5487172578866062 
1.619999999999838, -1.5476171712398954 
1.629999999999837, -1.546068264842622 
1.6399999999998358, -1.5441880147194302 
1.6499999999998347, -1.5425826136807799 
1.6599999999998336, -1.5423052591751576 
1.6699999999998325, -1.5439419808571881 
1.6799999999998314, -1.5468234688827727 
1.6899999999998303, -1.5497260026319646 
1.6999999999998292, -1.551914928919722 
1.709999999999828, -1.553276310419953 
1.719999999999827, -1.5539773019523722 
1.729999999999826, -1.5542189847653136 
1.7399999999998248, -1.5541538087062323 
1.7499999999998237, -1.5538842111270315 
1.7599999999998226, -1.5534869256992634 
1.7699999999998215, -1.5530405948925199 
1.7799999999998204, -1.5526394613519223 
1.7899999999998193, -1.5523739637285985 
1.7999999999998182, -1.5522869027900073 
1.809999999999817, -1.5523517993336466 
1.819999999999816, -1.5524947906971598 
1.8299999999998149, -1.5526302997772656 
1.8399999999998138, -1.5526836093895378 
1.8499999999998127, -1.5525967074822573 
1.8599999999998116, -1.5523226575815434 
1.8699999999998105, -1.5518165129543184 
1.8799999999998094, -1.5510300554256946 
1.8899999999998083, -1.5499152157851641 
1.8999999999998072, -1.5484411608235944 
1.909999999999806, -1.546632186410482 
1.919999999999805, -1.5446272297762087 
1.9299999999998039, -1.5427223156362209 
1.9399999999998028, -1.541290715470184 
1.9499999999998017, -1.5405389386629975 
1.9599999999998006, -1.540341191936102 
1.9699999999997995, -1.5403878948826155 
1.9799999999997984, -1.540429053197481 
1.9899999999997973, -1.5403451406432231 
1.9999999999997962, -1.5400925046488054 
2.0099999999998173, -1.539643412437421 
2.0199999999998384, -1.5389597304949976 
2.0299999999998595, -1.5380086902882657 
2.0399999999998806, -1.5368494755547253 
2.0499999999999017, -1.5358067406861298 
2.059999999999923, -1.535554219949297 
2.069999999999944, -1.5367067590896148 
2.079999999999965, -1.539124455740872 
2.089999999999986, -1.5419647174366942 
2.100000000000007, -1.544434298385078 
2.1100000000000283, -1.5461986888474581 
2.1200000000000494, -1.5472727934017327 
2.1300000000000705, -1.5478031033902488 
2.1400000000000916, -1.5479420125366905 
2.1500000000001127, -1.5478076111125816 
2.160000000000134, -1.5474854542229397 
2.170000000000155, -1.5470457327359992 
2.180000000000176, -1.5465612988466813 
2.190000000000197, -1.5461125514594636 
2.2000000000002182, -1.5457700666925709 
2.2100000000002393, -1.5455676913173892 
2.2200000000002604, -1.5454907962807636 
2.2300000000002815, -1.5454853687030492 
2.2400000000003026, -1.5454782052295812 
2.2500000000003237, -1.5453969520409354 
2.260000000000345, -1.545178196987409 
2.270000000000366, -1.5447611195505373 
2.280000000000387, -1.5440754055408792 
2.290000000000408, -1.5430338385745945 
2.3000000000004293, -1.5415392698746677 
2.3100000000004504, -1.5395198862357744 
2.3200000000004715, -1.537010768125293 
2.3300000000004926, -1.5342740292906953 
2.3400000000005137, -1.5318431773648264 
2.3500000000005348, -1.5302788723942726 
2.360000000000556, -1.5297211573598075 
2.370000000000577, -1.5298073200241296 
2.380000000000598, -1.5300692031673466 
2.390000000000619, -1.5302343965863354 
2.4000000000006403, -1.5302164365335853 
2.4100000000006614, -1.5300067865800355 
2.4200000000006825, -1.5296072738688984 
2.4300000000007036, -1.5290135791319506 
2.4400000000007247, -1.5282429846402814 
2.450000000000746, -1.527416572549098 
2.460000000000767, -1.526866264512225 
2.470000000000788, -1.527085807026131 
2.480000000000809, -1.5283544666421052 
2.49000000000083, -1.5303998371786938 
2.5000000000008513, -1.5326140216032242 
2.5100000000008724, -1.5345065528531416 
2.5200000000008935, -1.5358739361789635 
2.5300000000009146, -1.5367173171324056 
2.5400000000009357, -1.5371230610445783 
2.550000000000957, -1.537191022205442 
2.560000000000978, -1.5370067153075317 
2.570000000000999, -1.536638641731021 
2.58000000000102, -1.5361477742334415 
2.5900000000010412, -1.5355995105222882 
2.6000000000010624, -1.5350673749906396 
2.6100000000010835, -1.5346213773145956 
2.6200000000011046, -1.5343068708551366 
2.6300000000011257, -1.5341270954202362 
2.6400000000011468, -1.534039397220776 
2.650000000001168, -1.5339709900199778 
2.660000000001189, -1.5338443736551537 
2.67000000000121, -1.5335900866313144 
2.680000000001231, -1.533139457339065 
2.6900000000012523, -1.5324077619140908 
2.7000000000012734, -1.5312806673198736 
2.7100000000012945, -1.5296175911195844 
2.7200000000013156, -1.5272957778861862 
2.7300000000013367, -1.5243292044318477 
2.740000000001358, -1.521055104124715 
2.750000000001379, -1.51820302534678 
2.7600000000014, -1.5165173804597603 
2.770000000001421, -1.516119493067757 
2.780000000001442, -1.516470859226933 
2.7900000000014633, -1.5169654939855959 
2.8000000000014844, -1.5172936752830823 
2.8100000000015055, -1.5173845279708853 
2.8200000000015266, -1.5172563989312229 
2.8300000000015477, -1.5169361955675993 
2.840000000001569, -1.5164415520691166 
2.85000000000159, -1.5158037699552125 
2.860000000001611, -1.5151290772444372 
2.870000000001632, -1.5146711939532118 
2.8800000000016532, -1.514793298374331 
2.8900000000016743, -1.5157130367797547 
2.9000000000016954, -1.517265109378905 
2.9100000000017165, -1.519021319557009 
2.9200000000017377, -1.5205963177092903 
2.9300000000017588, -1.5217927073050181 
2.94000000000178, -1.5225692317235886 
2.950000000001801, -1.5229646627105715 
2.960000000001822, -1.523043730566684 
2.970000000001843, -1.5228708610952115 
2.9800000000018643, -1.5225026759590032 
2.9900000000018854, -1.5219917627159072 
3.0000000000019065, -1.5213955701473791 
3.0100000000019276, -1.5207825168837563 
3.0200000000019487, -1.5202272345786618 
3.03000000000197, -1.5197933446969472 
3.040000000001991, -1.5195100183063395 
3.050000000002012, -1.5193549161258566 
3.060000000002033, -1.519260801733752 
3.070000000002054, -1.5191445893512587 
3.0800000000020753, -1.518930584629244 
3.0900000000020964, -1.5185495412220589 
3.1000000000021175, -1.517921097416025 
3.1100000000021386, -1.5169341452819354 
3.1200000000021597, -1.515438399462029 
3.130000000002181, -1.5132697778945932 
3.140000000002202, -1.5103512334297178 
3.150000000002223, -1.506897232638438 
3.160000000002244, -1.503594972532574 
3.1700000000022652, -1.501372806203084 
3.1800000000022863, -1.5006578292710444 
3.1900000000023074, -1.5010139377249831 
3.2000000000023285, -1.501696809514714 
3.2100000000023496, -1.502241772584766 
3.2200000000023707, -1.5025130391533703 
3.230000000002392, -1.5025263530310926 
3.240000000002413, -1.502326263438865 
3.250000000002434, -1.501945724904227 
3.260000000002455, -1.5014127056331699 
3.2700000000024763, -1.5007894378043303 
3.2800000000024974, -1.500235812198868 
3.2900000000025185, -1.5000360162717281 
3.3000000000025396, -1.500471033940157 
3.3100000000025607, -1.501575656711856 
3.3200000000025818, -1.5030760736511681 
3.330000000002603, -1.504598885935557 
3.340000000002624, -1.5058782990266748 
3.350000000002645, -1.5068006853514926 
3.360000000002666, -1.507356046871878 
3.3700000000026873, -1.5075831001206663 
3.3800000000027084, -1.50753509426545 
3.3900000000027295, -1.5072643084550141 
3.4000000000027506, -1.506819141085924 
3.4100000000027717, -1.5062491915742415 
3.420000000002793, -1.5056131364604508 
3.430000000002814, -1.5049818435850058 
3.440000000002835, -1.504430110445224 
3.450000000002856, -1.5040166001788258 
3.460000000002877, -1.503758806091742 
3.4700000000028983, -1.5036197079602813 
3.4800000000029194, -1.5035231078750892 
3.4900000000029405, -1.5033857203777208 
3.5000000000029616, -1.5031347402947772 
3.5100000000029827, -1.5027007437447721 
3.520000000003004, -1.5019980530105446 
3.530000000003025, -1.5009063651598933 
3.540000000003046, -1.499267349916937 
3.550000000003067, -1.4969226245097143 
3.5600000000030882, -1.4938368006974305 
3.5700000000031094, -1.490315182057897 
3.5800000000031305, -1.4871330840747337 
3.5900000000031516, -1.4851814704369952 
3.6000000000031727, -1.48471848049342 
3.6100000000031938, -1.4851953260754156 
3.620000000003215, -1.4858926436914364 
3.630000000003236, -1.486411046479234 
3.640000000003257, -1.4866516298736652 
3.650000000003278, -1.4866403100594876 
3.6600000000032993, -1.486421254607383 
3.6700000000033204, -1.4860252930954796 
3.6800000000033415, -1.4854799503752392 
3.6900000000033626, -1.4848503137093847 
3.7000000000033837, -1.484302348349685 
3.710000000003405, -1.4841258304283174 
3.720000000003426, -1.484601882703006 
3.730000000003447, -1.4857605981620023 
3.740000000003468, -1.4873222618023487 
3.750000000003489, -1.4889069863173185 
3.7600000000035103, -1.4902428174793798 
3.7700000000035314, -1.4912125214394885 
3.7800000000035525, -1.4918057914164375 
3.7900000000035736, -1.4920633634834495 
3.8000000000035947, -1.4920414317034478 
3.810000000003616, -1.4917950637418294 
3.820000000003637, -1.491374634989977 
3.830000000003658, -1.490830553255945 
3.840000000003679, -1.490220999122816 
3.8500000000037002, -1.4896150678974165 
3.8600000000037213, -1.4890846895129093 
3.8700000000037424, -1.4886857481021916 
3.8800000000037635, -1.488435961758199 
3.8900000000037847, -1.4883030049992332 
3.9000000000038058, -1.488216608088536 
3.910000000003827, -1.4880969295718125 
3.920000000003848, -1.4878727289079927 
3.930000000003869, -1.4874775746887918 
3.94000000000389, -1.4868333662178757 
3.9500000000039113, -1.4858340933474579 
3.9600000000039324, -1.4843415589537978 
3.9700000000039535, -1.4822121690767323 
3.9800000000039746, -1.4793863682339505 
3.9900000000039957, -1.4760569761336728 
4.000000000004016, -1.4728146719959208 
4.010000000003993, -1.4704762493643018 
4.02000000000397, -1.4694923372969457 
4.030000000003946, -1.4695775522610324 
4.040000000003923, -1.4700888905311522 
4.0500000000039, -1.4705583581193677 
4.0600000000038765, -1.4708097768408757 
4.070000000003853, -1.4708278461915287 
4.08000000000383, -1.4706404663966521 
4.090000000003807, -1.4702700824731443 
4.100000000003783, -1.4697306131905459 
4.11000000000376, -1.469057505039712 
4.120000000003737, -1.4683728907156337 
4.130000000003713, -1.4679533144680783 
4.14000000000369, -1.4681748289103473 
4.150000000003667, -1.4692480048386667 
4.1600000000036434, -1.4709893979210893 
4.17000000000362, -1.4729479533678747 
4.180000000003597, -1.4747134698402444 
4.1900000000035735, -1.4760707683536514 
4.20000000000355, -1.4769736158262627 
4.210000000003527, -1.4774660369986905 
4.220000000003504, -1.4776224779005185 
4.23000000000348, -1.477516990987807 
4.240000000003457, -1.4772133091015371 
4.250000000003434, -1.4767676538576462 
4.26000000000341, -1.4762376229279028 
4.270000000003387, -1.47568913862147 
4.280000000003364, -1.475192641572118 
4.2900000000033405, -1.4748067079667582 
4.300000000003317, -1.4745584493308694 
4.310000000003294, -1.4744322882643108 
4.320000000003271, -1.4743744559482022 
4.330000000003247, -1.4743127408628705 
4.340000000003224, -1.4741769778504155 
4.350000000003201, -1.4739048496823068 
4.360000000003177, -1.473433367369339 
4.370000000003154, -1.4726863837007158 
4.380000000003131, -1.471568032333781 
4.390000000003107, -1.4699717805129602 
4.400000000003084, -1.4678190555257566 
4.410000000003061, -1.4651426506306393 
4.4200000000030375, -1.4622021719430593 
4.430000000003014, -1.4595256148782527 
4.440000000002991, -1.4576929832231298 
4.450000000002968, -1.4569172244530326 
4.460000000002944, -1.456903616086961 
4.470000000002921, -1.457176979638019 
4.480000000002898, -1.4574131340316208 
4.490000000002874, -1.4574854108978346 
4.500000000002851, -1.4573709162998696 
4.510000000002828, -1.4570722954610709 
4.520000000002804, -1.4565850749784914 
4.530000000002781, -1.4558999956704892 
4.540000000002758, -1.4550434600793987 
4.5500000000027345, -1.4541694042720628 
4.560000000002711, -1.4536581542796685 
4.570000000002688, -1.4540318968023442 
4.580000000002665, -1.4555565350918542 
4.590000000002641, -1.457921834218319 
4.600000000002618, -1.460470408542586 
4.610000000002595, -1.4626621177911137 
4.620000000002571, -1.4642654954742407 
4.630000000002548, -1.4652815249909494 
4.640000000002525, -1.4658125256999084 
4.6500000000025015, -1.465977250868239 
4.660000000002478, -1.4658760352918334 
4.670000000002455, -1.465586060475475 
4.6800000000024315, -1.4651711398965404 
4.690000000002408, -1.464695774515771 
4.700000000002385, -1.4642328994796299 
4.710000000002362, -1.4638549270196666 
4.720000000002338, -1.463610322227309 
4.730000000002315, -1.4635048915364623 
4.740000000002292, -1.463502214268301 
4.750000000002268, -1.4635392838583574 
4.760000000002245, -1.4635464291448863 
4.770000000002222, -1.463461116537422 
4.7800000000021985, -1.4632299858408602 
4.790000000002175, -1.462802574633376 
4.800000000002152, -1.46212468912515 
4.810000000002129, -1.4611377941036323 
4.820000000002105, -1.459788877172326 
4.830000000002082, -1.458055521128196 
4.840000000002059, -1.4559902681102987 
4.850000000002035, -1.4537754627084332 
4.860000000002012, -1.4517388545376897 
4.870000000001989, -1.450242286593912 
4.880000000001965, -1.4494538041323255 
4.890000000001942, -1.4492321340201437 
4.900000000001919, -1.449276666645092 
4.9100000000018955, -1.4493409558575727 
4.920000000001872, -1.449299717888155 
4.930000000001849, -1.44910501882319 
4.940000000001826, -1.4487305894311087 
