t, s[1].omega / s[0].omega 
0, -0.6299977169338528 
0.009999999999999995, -0.629766313423376 
0.019999999999999934, -0.6295245494069214 
0.029999999999999874, -0.6292619377947728 
0.04000000000000012, -0.6289668117980071 
0.050000000000000405, -0.6286313616286057 
0.06000000000000069, -0.628254417397774 
0.07000000000000098, -0.6278418880762138 
0.08000000000000126, -0.6274063405920065 
0.09000000000000155, -0.6269673875882367 
0.10000000000000184, -0.6265539126136137 
0.11000000000000212, -0.6262085027308847 
0.12000000000000241, -0.6259940344315476 
0.130000000000002, -0.6260019640568086 
0.1400000000000009, -0.6263611507766551 
0.1499999999999998, -0.6272445722895359 
0.1599999999999987, -0.6288685679463717 
0.1699999999999976, -0.6314749120054045 
0.1799999999999965, -0.6352814142318478 
0.1899999999999954, -0.640388794044219 
0.1999999999999943, -0.6466561280514573 
0.2099999999999932, -0.6536145776252539 
0.2199999999999921, -0.6605340615942553 
0.229999999999991, -0.6666788982666924 
0.2399999999999899, -0.6715924437230171 
0.2499999999999888, -0.6751929396270253 
0.2599999999999877, -0.6776597952411055 
0.2699999999999866, -0.6792623627544521 
0.2799999999999855, -0.6802482536259908 
0.2899999999999844, -0.6808036835258796 
0.2999999999999833, -0.6810533336213234 
0.3099999999999822, -0.681072274620959 
0.3199999999999811, -0.6808971531920955 
0.32999999999998, -0.6805327058834318 
0.3399999999999789, -0.6799531334162439 
0.3499999999999778, -0.679099128586628 
0.35999999999997667, -0.6778728652094427 
0.36999999999997557, -0.6761368767714433 
0.37999999999997447, -0.6737289742490478 
0.38999999999997337, -0.670509168183515 
0.39999999999997227, -0.6664412677197502 
0.40999999999997117, -0.6616714260730762 
0.41999999999997006, -0.6565330234347774 
0.42999999999996896, -0.6514478740889597 
0.43999999999996786, -0.6467868836245012 
0.44999999999996676, -0.6427820255505295 
0.45999999999996566, -0.6395186427610587 
0.46999999999996456, -0.6369754390477939 
0.47999999999996346, -0.6350719743845723 
0.48999999999996235, -0.6337042158334095 
0.49999999999996125, -0.632765828061633 
0.5099999999999602, -0.6321591947578644 
0.519999999999959, -0.6318003202756941 
0.529999999999958, -0.6316202934573126 
0.5399999999999568, -0.6315648026168825 
0.5499999999999557, -0.6315925876804787 
0.5599999999999546, -0.63167348337666 
0.5699999999999535, -0.6317865780479603 
0.5799999999999524, -0.6319187964992565 
0.5899999999999513, -0.6320638119544465 
0.5999999999999502, -0.6322206598775925 
0.6099999999999491, -0.6323911158941289 
0.619999999999948, -0.6325753704695279 
0.6299999999999469, -0.6327669716875605 
0.6399999999999458, -0.6329495803669598 
0.6499999999999447, -0.6330981957994355 
0.6599999999999436, -0.6331852417280095 
0.6699999999999425, -0.6331885257374589 
0.6799999999999414, -0.6330966612322401 
0.6899999999999403, -0.6329096665642807 
0.6999999999999392, -0.6326359929261003 
0.7099999999999381, -0.6322889818586879 
0.719999999999937, -0.6318851601352192 
0.7299999999999359, -0.6314454801013892 
0.7399999999999348, -0.6309999105295617 
0.7499999999999337, -0.6305957661939996 
0.7599999999999326, -0.6303102619095058 
0.7699999999999315, -0.6302671905387891 
0.7799999999999304, -0.6306552369829916 
0.7899999999999293, -0.631739643460695 
0.7999999999999282, -0.6338484843285835 
0.8099999999999271, -0.637303179975398 
0.819999999999926, -0.6422685215320282 
0.8299999999999249, -0.6485569876311785 
0.8399999999999238, -0.6555363650521252 
0.8499999999999227, -0.6623142755564274 
0.8599999999999216, -0.668135089080945 
0.8699999999999205, -0.6726591300945515 
0.8799999999999194, -0.6759327022005908 
0.8899999999999183, -0.6781910328379428 
0.8999999999999172, -0.6796951713051859 
0.9099999999999161, -0.6806601560824631 
0.919999999999915, -0.6812416788348189 
0.9299999999999139, -0.6815442914199578 
0.9399999999999128, -0.6816329064813964 
0.9499999999999117, -0.6815416235017299 
0.9599999999999106, -0.6812787636222541 
0.9699999999999095, -0.680828512976124 
0.9799999999999084, -0.6801503397175632 
0.9899999999999073, -0.6791786814040344 
0.9999999999999062, -0.6778278429810464 
1.0099999999999052, -0.6760094447273779 
1.019999999999904, -0.6736673892590115 
1.029999999999903, -0.670822012358021 
1.039999999999902, -0.6675959411905585 
1.0499999999999008, -0.66419410216796 
1.0599999999998997, -0.6608435376638911 
1.0699999999998986, -0.6577319428170092 
1.0799999999998975, -0.6549776972241403 
1.0899999999998964, -0.6526330099674433 
1.0999999999998953, -0.6507029637492504 
1.1099999999998942, -0.6491650806814921 
1.119999999999893, -0.6479830939684239 
1.129999999999892, -0.6471149026303522 
1.1399999999998909, -0.6465168130459877 
1.1499999999998898, -0.6461460002498267 
1.1599999999998887, -0.6459622849355687 
1.1699999999998876, -0.6459295979343714 
1.1799999999998865, -0.6460171217479118 
1.1899999999998854, -0.6462000173692757 
1.1999999999998843, -0.6464596996779879 
1.2099999999998832, -0.6467836235127591 
1.219999999999882, -0.6471643629575983 
1.229999999999881, -0.6475974824084845 
1.2399999999998799, -0.6480776755451367 
1.2499999999998788, -0.6485933998416668 
1.2599999999998777, -0.6491218526797966 
1.2699999999998766, -0.6496276175833354 
1.2799999999998755, -0.650067705513033 
1.2899999999998744, -0.6504020032199995 
1.2999999999998733, -0.6506037241250083 
1.3099999999998722, -0.6506639803652029 
1.319999999999871, -0.6505890688018826 
1.32999999999987, -0.6503938706475446 
1.3399999999998689, -0.6500957922998987 
1.3499999999998678, -0.6497117569725543 
1.3599999999998666, -0.6492588130200021 
1.3699999999998655, -0.6487583156119838 
1.3799999999998644, -0.6482440163048688 
1.3899999999998633, -0.6477749025800994 
1.3999999999998622, -0.6474533052175538 
1.4099999999998611, -0.6474462024229439 
1.41999999999986, -0.6480006066948014 
1.429999999999859, -0.6494309622770854 
1.4399999999998578, -0.6520436389177455 
1.4499999999998567, -0.6559772572948195 
1.4599999999998556, -0.6610179271897615 
1.4699999999998545, -0.666562808633625 
1.4799999999998534, -0.6718594016439063 
1.4899999999998523, -0.6763574653852691 
1.4999999999998512, -0.6798642386683503 
1.5099999999998501, -0.6824499264508941 
1.519999999999849, -0.6842873278176835 
1.529999999999848, -0.6855528528354621 
1.5399999999998468, -0.6863914199574973 
1.5499999999998457, -0.6869115176369812 
1.5599999999998446, -0.6871892846103497 
1.5699999999998435, -0.6872737129720969 
1.5799999999998424, -0.6871906222404807 
1.5899999999998413, -0.6869447734294734 
1.5999999999998402, -0.6865201841835662 
1.6099999999998391, -0.68587949246703 
1.619999999999838, -0.6849646547050523 
1.629999999999837, -0.6837034037715634 
1.6399999999998358, -0.6820271533342966 
1.6499999999998347, -0.679902155558257 
1.6599999999998336, -0.6773633475084095 
1.6699999999998325, -0.6745275333665994 
1.6799999999998314, -0.6715691060310711 
1.6899999999998303, -0.6686700180444279 
1.6999999999998292, -0.6659754773736913 
1.709999999999828, -0.6635759389069252 
1.719999999999827, -0.6615125775255679 
1.729999999999826, -0.6597924759092691 
1.7399999999998248, -0.6584028677134255 
1.7499999999998237, -0.6573205853508968 
1.7599999999998226, -0.6565171689031686 
1.7699999999998215, -0.6559614318262693 
1.7799999999998204, -0.6556210397839574 
1.7899999999998193, -0.6554639530855776 
1.7999999999998182, -0.6554599536239725 
1.809999999999817, -0.6555821151407296 
1.819999999999816, -0.6558079794621798 
1.8299999999998149, -0.6561202475429821 
1.8399999999998138, -0.6565068065572446 
1.8499999999998127, -0.6569597767811313 
1.8599999999998116, -0.6574730681209118 
1.8699999999998105, -0.6580380775355399 
1.8799999999998094, -0.658638123906696 
1.8899999999998083, -0.6592439563071572 
1.8999999999998072, -0.6598139223329116 
1.909999999999806, -0.660301053264026 
1.919999999999805, -0.6606648561336103 
1.9299999999998039, -0.6608814018063589 
1.9399999999998028, -0.660946138191435 
1.9499999999998017, -0.6608693388397627 
1.9599999999998006, -0.6606685680993323 
1.9699999999997995, -0.6603626262336937 
1.9799999999997984, -0.6599690446451816 
1.9899999999997973, -0.6595053653009135 
1.9999999999997962, -0.6589941027779223 
2.0099999999998173, -0.6584718346482523 
2.0199999999998384, -0.6580033664817477 
2.0299999999998595, -0.6577013390876035 
2.0399999999998806, -0.6577483922703268 
2.0499999999999017, -0.6584107835606208 
2.059999999999923, -0.6600183553239602 
2.069999999999944, -0.6628746300397699 
2.079999999999965, -0.6670831527400609 
2.089999999999986, -0.6723685081156782 
2.100000000000007, -0.6780756252312002 
2.1100000000000283, -0.6834435403925249 
2.1200000000000494, -0.6879495377208353 
2.1300000000000705, -0.691431498934087 
2.1400000000000916, -0.6939775517480076 
2.1500000000001127, -0.6957692027365594 
2.160000000000134, -0.6969878210834805 
2.170000000000155, -0.6977812822020445 
2.180000000000176, -0.6982592106518257 
2.190000000000197, -0.6984972526257713 
2.2000000000002182, -0.6985425761093709 
2.2100000000002393, -0.698417992896655 
2.2200000000002604, -0.6981239384919744 
2.2300000000002815, -0.6976383851802739 
2.2400000000003026, -0.696915707080152 
2.2500000000003237, -0.6958872356047572 
2.260000000000345, -0.6944688068089583 
2.270000000000366, -0.6925820315543104 
2.280000000000387, -0.6901910614659713 
2.290000000000408, -0.6873414973742382 
2.3000000000004293, -0.6841734561095327 
2.3100000000004504, -0.6808904724349902 
2.3200000000004715, -0.6777003923796797 
2.3300000000004926, -0.6747654838900476 
2.3400000000005137, -0.6721837594755957 
2.3500000000005348, -0.6699964413273076 
2.360000000000556, -0.6682054586128403 
2.370000000000577, -0.6667894289425713 
2.380000000000598, -0.6657143693911183 
2.390000000000619, -0.664939910301683 
2.4000000000006403, -0.6644229646147293 
2.4100000000006614, -0.6641203456425495 
2.4200000000006825, -0.6639909969224483 
2.4300000000007036, -0.6639978913498039 
2.4400000000007247, -0.6641094295319409 
2.450000000000746, -0.6643002279922549 
2.460000000000767, -0.6645513255912607 
2.470000000000788, -0.6648498385168062 
2.480000000000809, -0.6651878696451197 
2.49000000000083, -0.6655601898509733 
2.5000000000008513, -0.6659603143880763 
2.5100000000008724, -0.6663755533491836 
2.5200000000008935, -0.6667831988153567 
2.5300000000009146, -0.6671508797692396 
2.5400000000009357, -0.6674425891473895 
2.550000000000957, -0.6676280824444698 
2.560000000000978, -0.6676904247190405 
2.570000000000999, -0.6676277420443528 
2.58000000000102, -0.6674496216735364 
2.5900000000010412, -0.667171736491511 
2.6000000000010624, -0.6668121095125109 
2.6100000000010835, -0.6663906658744833 
2.6200000000011046, -0.6659324772628227 
2.6300000000011257, -0.6654749138440786 
2.6400000000011468, -0.6650791897348843 
2.650000000001168, -0.6648466456801276 
2.660000000001189, -0.6649385280483725 
2.67000000000121, -0.6655936174179538 
2.680000000001231, -0.6671294424587392 
2.6900000000012523, -0.6699010465662154 
2.7000000000012734, -0.6741868378306838 
2.7100000000012945, -0.6800019010467286 
2.7200000000013156, -0.6869307387494835 
2.7300000000013367, -0.6941598729295542 
2.740000000001358, -0.7007911522111255 
2.750000000001379, -0.7062228701253368 
2.7600000000014, -0.7102926905602809 
2.770000000001421, -0.7131522568870668 
2.780000000001442, -0.7150701502400988 
2.7900000000014633, -0.7163043201938984 
2.8000000000014844, -0.7170552983449426 
2.8100000000015055, -0.7174628186524356 
2.8200000000015266, -0.7176164091972674 
2.8300000000015477, -0.7175665516320623 
2.840000000001569, -0.7173321132942504 
2.85000000000159, -0.71690328358146 
2.860000000001611, -0.7162404522653494 
2.870000000001632, -0.715270512995843 
2.8800000000016532, -0.7138844687469986 
2.8900000000016743, -0.7119447457866246 
2.9000000000016954, -0.709314978959378 
2.9100000000017165, -0.7059199656953999 
2.9200000000017377, -0.7018178697371614 
2.9300000000017588, -0.6972336931453461 
2.94000000000178, -0.6925110626633911 
2.950000000001801, -0.6880043203810705 
2.960000000001822, -0.6839824351788837 
2.970000000001843, -0.6805917772751818 
2.9800000000018643, -0.6778703250617343 
2.9900000000018854, -0.6757823544428152 
3.0000000000019065, -0.6742512784064837 
3.0100000000019276, -0.673183220349729 
3.0200000000019487, -0.672482033018806 
3.03000000000197, -0.672058338156349 
3.040000000001991, -0.6718345188085173 
3.050000000002012, -0.6717467733719915 
3.060000000002033, -0.6717450096556276 
3.070000000002054, -0.6717913753575993 
3.0800000000020753, -0.6718582781793864 
3.0900000000020964, -0.6719266364734444 
3.1000000000021175, -0.671984727192979 
3.1100000000021386, -0.6720273736236682 
3.1200000000021597, -0.6720545869523863 
3.130000000002181, -0.6720687202407161 
3.140000000002202, -0.6720702085993417 
3.150000000002223, -0.6720536210862622 
3.160000000002244, -0.6720065423745928 
3.1700000000022652, -0.6719125282650793 
3.1800000000022863, -0.6717566935378572 
3.1900000000023074, -0.6715307248352993 
3.2000000000023285, -0.6712349609039123 
3.2100000000023496, -0.6708777068169678 
3.2200000000023707, -0.6704737595779874 
3.230000000002392, -0.6700441743643598 
3.240000000002413, -0.6696183901123932 
3.250000000002434, -0.6692389905101948 
3.260000000002455, -0.668968852807399 
3.2700000000024763, -0.6688999227043939 
3.2800000000024974, -0.6691619621267823 
3.2900000000025185, -0.6699280795494525 
3.3000000000025396, -0.6714115098999941 
3.3100000000025607, -0.6738450541197815 
3.3200000000025818, -0.6774321750052719 
3.330000000002603, -0.6822622585241382 
3.340000000002624, -0.6882031744222579 
3.350000000002645, -0.694828506425012 
3.360000000002666, -0.7014714495405212 
3.3700000000026873, -0.7074400847132671 
3.3800000000027084, -0.7122736702138276 
3.3900000000027295, -0.7158525843564866 
3.4000000000027506, -0.7183177010013116 
3.4100000000027717, -0.7199164678196956 
3.420000000002793, -0.7208894506045226 
3.430000000002814, -0.7214230593734173 
3.440000000002835, -0.7216439330029597 
3.450000000002856, -0.7216284122150732 
3.460000000002877, -0.7214128938162989 
3.4700000000028983, -0.7209998863589682 
3.4800000000029194, -0.7203584730775077 
3.4900000000029405, -0.7194191632114839 
3.5000000000029616, -0.7180642486191324 
3.5100000000029827, -0.7161181834202888 
3.520000000003004, -0.713350692980419 
3.530000000003025, -0.7095173140253933 
3.540000000003046, -0.7044627113723605 
3.550000000003067, -0.6982691803902294 
3.5600000000030882, -0.6913481584140732 
3.5700000000031094, -0.6843549844614137 
3.5800000000031305, -0.6779500234393201 
3.5900000000031516, -0.6725798651308218 
3.6000000000031727, -0.6684079317543525 
3.6100000000031938, -0.6653741534513667 
3.620000000003215, -0.6632965282152918 
3.630000000003236, -0.6619550912098134 
3.640000000003257, -0.6611423103105085 
3.650000000003278, -0.6606857973499292 
3.6600000000032993, -0.6604536254301091 
3.6700000000033204, -0.6603505137963711 
3.6800000000033415, -0.6603102806516287 
3.6900000000033626, -0.6602877611589391 
3.7000000000033837, -0.6602519299043922 
3.710000000003405, -0.6601810853267953 
3.720000000003426, -0.6600604134564262 
3.730000000003447, -0.6598817254256837 
3.740000000003468, -0.6596443878937419 
3.750000000003489, -0.6593556327169664 
3.7600000000035103, -0.6590284270126754 
3.7700000000035314, -0.6586766664623913 
3.7800000000035525, -0.6583098075122373 
3.7900000000035736, -0.6579300170831199 
3.8000000000035947, -0.6575333924625544 
3.810000000003616, -0.6571141360257788 
3.820000000003637, -0.6566690710840496 
3.830000000003658, -0.6562005411290398 
3.840000000003679, -0.655717532543058 
3.8500000000037002, -0.6552361405467683 
3.8600000000037213, -0.654780598435143 
3.8700000000037424, -0.65438547631757 
3.8800000000037635, -0.6540989724302237 
3.8900000000037847, -0.6539867189487774 
3.9000000000038058, -0.6541351597719403 
3.910000000003827, -0.6546532137681004 
3.920000000003848, -0.6556704629709612 
3.930000000003869, -0.6573292582913218 
3.94000000000389, -0.6597667425675691 
3.9500000000039113, -0.6630815508275213 
3.9600000000039324, -0.6672820470745902 
3.9700000000039535, -0.6722248669863427 
3.9800000000039746, -0.6775776715046774 
3.9900000000039957, -0.6828596249717741 
4.000000000004016, -0.6875807963202539 
4.010000000003993, -0.6914103720296279 
4.02000000000397, -0.6942560991217943 
4.030000000003946, -0.6962167992843289 
4.040000000003923, -0.6974766355676384 
4.0500000000039, -0.6982202012581021 
4.0600000000038765, -0.6985930785648972 
4.070000000003853, -0.6986942323730683 
4.08000000000383, -0.6985812335840099 
4.090000000003807, -0.6982768608504009 
4.100000000003783, -0.6977722963109184 
4.11000000000376, -0.6970253152694754 
4.120000000003737, -0.695953097415565 
4.130000000003713, -0.6944206906114934 
4.14000000000369, -0.6922303443548179 
4.150000000003667, -0.6891269105187705 
4.1600000000036434, -0.6848488411224125 
4.17000000000362, -0.6792531344027212 
4.180000000003597, -0.6724853917123816 
4.1900000000035735, -0.6650632557358581 
4.20000000000355, -0.6577403516573266 
4.210000000003527, -0.6512132414666163 
4.220000000003504, -0.6458943268509915 
4.23000000000348, -0.6418763546969262 
4.240000000003457, -0.639030416256382 
4.250000000003434, -0.6371274558739344 
4.26000000000341, -0.6359246068189967 
4.270000000003387, -0.6352093587710901 
4.280000000003364, -0.6348144291881781 
4.2900000000033405, -0.6346168856030056 
4.300000000003317, -0.6345305703764073 
4.310000000003294, -0.6344968646137197 
4.320000000003271, -0.6344762842188696 
4.330000000003247, -0.634442005442039 
4.340000000003224, -0.6343757205867306 
4.350000000003201, -0.6342658235463308 
4.360000000003177, -0.6341074462027506 
4.370000000003154, -0.6339031312786622 
4.380000000003131, -0.6336623068913898 
4.390000000003107, -0.6333981352162713 
4.400000000003084, -0.6331221691682931 
4.410000000003061, -0.6328393706137281 
4.4200000000030375, -0.6325464072367569 
4.430000000003014, -0.6322341851222703 
4.440000000002991, -0.6318929036429465 
4.450000000002968, -0.631516736819145 
4.460000000002944, -0.6311062995823729 
4.470000000002921, -0.6306691005046654 
4.480000000002898, -0.630219464130723 
4.490000000002874, -0.6297793967956716 
4.500000000002851, -0.629381211479976 
4.510000000002828, -0.6290721041035374 
4.520000000002804, -0.6289204424428196 
4.530000000002781, -0.6290230871333657 
4.540000000002758, -0.6295123144180412 
4.5500000000027345, -0.6305595115476282 
4.560000000002711, -0.6323703527023339 
4.570000000002688, -0.6351624804993536 
4.580000000002665, -0.6391135094378392 
4.590000000002641, -0.6442715050060812 
4.600000000002618, -0.6504459631352348 
4.610000000002595, -0.6571489819392446 
4.620000000002571, -0.6636844607585635 
4.630000000002548, -0.6693945194932366 
4.640000000002525, -0.6739026795536205 
4.6500000000025015, -0.6771733208070579 
4.660000000002478, -0.6793937918591075 
4.670000000002455, -0.6808198556893263 
4.6800000000024315, -0.681680010016507 
4.690000000002408, -0.6821435182946612 
4.700000000002385, -0.6823219822192865 
4.710000000002362, -0.6822805070563751 
4.720000000002338, -0.6820474951917175 
4.730000000002315, -0.6816197033545512 
4.740000000002292, -0.6809621435913332 
4.750000000002268, -0.6800036050843395 
4.760000000002245, -0.6786304032985783 
4.770000000002222, -0.676685417552579 
4.7800000000021985, -0.6739869400877936 
4.790000000002175, -0.6703857435624923 
4.800000000002152, -0.6658608467098698 
4.810000000002129, -0.660604886545088 
4.820000000002105, -0.6550160713458263 
4.830000000002082, -0.6495720184776165 
4.840000000002059, -0.6446702116277392 
4.850000000002035, -0.6405391180326141 
4.860000000002012, -0.63724198919247 
4.870000000001989, -0.634729089628723 
4.880000000001965, -0.632892985137565 
4.890000000001942, -0.6316076803316746 
4.900000000001919, -0.6307509381251526 
4.9100000000018955, -0.6302149938440813 
4.920000000001872, -0.6299104720822287 
