t, s[1].omega / s[0].omega 
0, -0.599997726696874 
0.009999999999999995, -0.5997694117338108 
0.019999999999999934, -0.5995352664445711 
0.029999999999999874, -0.5992855609443755 
0.04000000000000012, -0.5990091506079244 
0.050000000000000405, -0.5986979221514 
0.06000000000000069, -0.5983492912954801 
0.07000000000000098, -0.5979665680015068 
0.08000000000000126, -0.5975583871529035 
0.09000000000000155, -0.5971386417384557 
0.10000000000000184, -0.5967278789300787 
0.11000000000000212, -0.5963566118148794 
0.12000000000000241, -0.5960707124689179 
0.130000000000002, -0.5959388163346351 
0.1400000000000009, -0.5960611087549179 
0.1499999999999998, -0.5965774636583817 
0.1599999999999987, -0.5976699933931527 
0.1699999999999976, -0.5995502237378101 
0.1799999999999965, -0.6024159824740527 
0.1899999999999954, -0.6063656553979988 
0.1999999999999943, -0.6112842479430538 
0.2099999999999932, -0.6167726211627091 
0.2199999999999921, -0.6222230966838128 
0.229999999999991, -0.6270504073920156 
0.2399999999999899, -0.6309156498010106 
0.2499999999999888, -0.6337749135205983 
0.2599999999999877, -0.6357721018624041 
0.2699999999999866, -0.6371080654942454 
0.2799999999999855, -0.6379638401802734 
0.2899999999999844, -0.6384761592174587 
0.2999999999999833, -0.638738752806934 
0.3099999999999822, -0.6388108062008644 
0.3199999999999811, -0.638724751641191 
0.32999999999998, -0.6384913054654981 
0.3399999999999789, -0.638101837564492 
0.3499999999999778, -0.637529064315299 
0.35999999999997667, -0.6367280163231859 
0.36999999999997557, -0.6356407108799108 
0.37999999999997447, -0.6342091356123565 
0.38999999999997337, -0.632399112874079 
0.39999999999997227, -0.6302290579757487 
0.40999999999997117, -0.6277862060656219 
0.41999999999997006, -0.6252132494739304 
0.42999999999996896, -0.6226686753907281 
0.43999999999996786, -0.6202851897797897 
0.44999999999996676, -0.6181482066016903 
0.45999999999996566, -0.6162970299197101 
0.46999999999996456, -0.6147379924317025 
0.47999999999996346, -0.6134587438918814 
0.48999999999996235, -0.6124386003758207 
0.49999999999996125, -0.6116544317677963 
0.5099999999999602, -0.6110834184916053 
0.519999999999959, -0.6107041588465112 
0.529999999999958, -0.610497154472934 
0.5399999999999568, -0.6104452045886254 
0.5499999999999557, -0.6105338778453268 
0.5599999999999546, -0.6107520113410316 
0.5699999999999535, -0.6110920510616357 
0.5799999999999524, -0.6115499153484959 
0.5899999999999513, -0.612123878455202 
0.5999999999999502, -0.61281180311611 
0.6099999999999491, -0.6136061978757622 
0.619999999999948, -0.6144875242688734 
0.6299999999999469, -0.615418154974433 
0.6399999999999458, -0.6163414283118389 
0.6499999999999447, -0.617189753524327 
0.6599999999999436, -0.6179006085427272 
0.6699999999999425, -0.6184324653835003 
0.6799999999999414, -0.6187715403023083 
0.6899999999999403, -0.6189270783576086 
0.6999999999999392, -0.6189204216744223 
0.7099999999999381, -0.6187745275658673 
0.719999999999937, -0.6185072298902318 
0.7299999999999359, -0.6181281459502557 
0.7399999999999348, -0.6176378151327111 
0.7499999999999337, -0.6170278056121183 
0.7599999999999326, -0.6162810492253163 
0.7699999999999315, -0.6153719283850694 
0.7799999999999304, -0.6142653644167729 
0.7899999999999293, -0.6129134368953497 
0.7999999999999282, -0.6112484134896794 
0.8099999999999271, -0.6091773644896865 
0.819999999999926, -0.6066006922355085 
0.8299999999999249, -0.6034875993764716 
0.8399999999999238, -0.5999904994681204 
0.8499999999999227, -0.5964760304840186 
0.8599999999999216, -0.5933770802396309 
0.8699999999999205, -0.5909801155634526 
0.8799999999999194, -0.589338441658923 
0.8899999999999183, -0.5883350591564713 
0.8999999999999172, -0.5877901335341513 
0.9099999999999161, -0.5875350817487821 
0.919999999999915, -0.5874415715790677 
0.9299999999999139, -0.5874228124505254 
0.9399999999999128, -0.5874241516687534 
0.9499999999999117, -0.5874122270005939 
0.9599999999999106, -0.5873661509393193 
0.9699999999999095, -0.5872714460692632 
0.9799999999999084, -0.5871165720505291 
0.9899999999999073, -0.5868918222092214 
0.9999999999999062, -0.5865904069076031 
1.0099999999999052, -0.5862111769350496 
1.019999999999904, -0.5857615184805856 
1.029999999999903, -0.58525811247841 
1.039999999999902, -0.5847238154608002 
1.0499999999999008, -0.5841813456701015 
1.0599999999998997, -0.5836469651235805 
1.0699999999998986, -0.5831275008036845 
1.0799999999998975, -0.5826217309131421 
1.0899999999998964, -0.5821245640326481 
1.0999999999998953, -0.5816314868951733 
1.1099999999998942, -0.5811416071818434 
1.119999999999893, -0.5806591300255913 
1.129999999999892, -0.5801941090604202 
1.1399999999998909, -0.5797634633458302 
1.1499999999998898, -0.5793929130511388 
1.1599999999998887, -0.579120094766051 
1.1699999999998876, -0.578998821651611 
1.1799999999998865, -0.5791041517939793 
1.1899999999998854, -0.5795373817480105 
1.1999999999998843, -0.5804289439952675 
1.2099999999998832, -0.5819350277234194 
1.219999999999882, -0.584220441031625 
1.229999999999881, -0.5874174467301677 
1.2399999999998799, -0.5915543914605838 
1.2499999999998788, -0.5964704172275702 
1.2599999999998777, -0.6017743769303892 
1.2699999999998766, -0.6069230819733544 
1.2799999999998755, -0.6114159196354096 
1.2899999999998744, -0.6149746884424618 
1.2999999999998733, -0.6175784086704094 
1.3099999999998722, -0.6193698059563946 
1.319999999999871, -0.6205406468152654 
1.32999999999987, -0.6212624945519586 
1.3399999999998689, -0.6216637484949186 
1.3499999999998678, -0.621830641536441 
1.3599999999998666, -0.621815186264483 
1.3699999999998655, -0.6216424362334997 
1.3799999999998644, -0.6213148790801609 
1.3899999999998633, -0.6208140528132805 
1.3999999999998622, -0.6201006172062753 
1.4099999999998611, -0.6191154935741883 
1.41999999999986, -0.6177867221381294 
1.429999999999859, -0.616047910235863 
1.4399999999998578, -0.6138701896111807 
1.4499999999998567, -0.6112967398263359 
1.4599999999998556, -0.6084552285897608 
1.4699999999998545, -0.6055301814977504 
1.4799999999998534, -0.6027081551472099 
1.4899999999998523, -0.600130438582432 
1.4999999999998512, -0.5978757594677949 
1.5099999999998501, -0.5959691324261631 
1.519999999999849, -0.594400930811951 
1.529999999999848, -0.593144191647668 
1.5399999999998468, -0.592165991524036 
1.5499999999998457, -0.5914334716132807 
1.5599999999998446, -0.5909164710964552 
1.5699999999998435, -0.5905884729406302 
1.5799999999998424, -0.5904269135383411 
1.5899999999998413, -0.5904133591113235 
1.5999999999998402, -0.5905337054986665 
1.6099999999998391, -0.5907783626323341 
1.619999999999838, -0.5911422464281363 
1.629999999999837, -0.5916242276064636 
1.6399999999998358, -0.5922254492513377 
1.6499999999998347, -0.5929457564774351 
1.6599999999998336, -0.5937777689910719 
1.6699999999998325, -0.5946993940692635 
1.6799999999998314, -0.5956678912852149 
1.6899999999998303, -0.5966205440982638 
1.6999999999998292, -0.5974855061334112 
1.709999999999828, -0.5981999182822273 
1.719999999999827, -0.5987256181995578 
1.729999999999826, -0.5990536144013758 
1.7399999999998248, -0.599196976176074 
1.7499999999998237, -0.599178796053169 
1.7599999999998226, -0.5990217745451915 
1.7699999999998215, -0.5987418945278002 
1.7799999999998204, -0.5983454475731779 
1.7899999999998193, -0.5978276942496026 
1.7999999999998182, -0.5971716926957251 
1.809999999999817, -0.5963462507643598 
1.819999999999816, -0.595302104246812 
1.8299999999998149, -0.5939654369301611 
1.8399999999998138, -0.5922288816110833 
1.8499999999998127, -0.5899455230313156 
1.8599999999998116, -0.5869456960187971 
1.8699999999998105, -0.5831115696737408 
1.8799999999998094, -0.5785161025055011 
1.8899999999998083, -0.5735259864377794 
1.8999999999998072, -0.5687125548414514 
1.909999999999806, -0.5645921088563327 
1.919999999999805, -0.5614222613156362 
1.9299999999998039, -0.5591922831527498 
1.9399999999998028, -0.5577355307856637 
1.9499999999998017, -0.5568432810567943 
1.9599999999998006, -0.5563293638141509 
1.9699999999997995, -0.5560517311943574 
1.9799999999997984, -0.5559111830833945 
1.9899999999997973, -0.5558420238275298 
1.9999999999997962, -0.5558019455413727 
2.0099999999998173, -0.5557638049809838 
2.0199999999998384, -0.5557098683502462 
2.0299999999998595, -0.5556283925229406 
2.0399999999998806, -0.5555122451346596 
2.0499999999999017, -0.5553591129791265 
2.059999999999923, -0.555172436406768 
2.069999999999944, -0.5549616609451516 
2.079999999999965, -0.554740349866983 
2.089999999999986, -0.554521804484022 
2.100000000000007, -0.5543137433490605 
2.1100000000000283, -0.5541148011784929 
2.1200000000000494, -0.5539149071751436 
2.1300000000000705, -0.5536993585756221 
2.1400000000000916, -0.553454270275674 
2.1500000000001127, -0.5531706485843415 
2.160000000000134, -0.552845785293164 
2.170000000000155, -0.5524825955345362 
2.180000000000176, -0.5520884694823659 
2.190000000000197, -0.5516750100557235 
2.2000000000002182, -0.5512594376976834 
2.2100000000002393, -0.5508680601696414 
2.2200000000002604, -0.5505420869438906 
2.2300000000002815, -0.5503458922813435 
2.2400000000003026, -0.5503770147481799 
2.2500000000003237, -0.550774782078233 
2.260000000000345, -0.551719261696303 
2.270000000000366, -0.553404368646994 
2.280000000000387, -0.5559652728829725 
2.290000000000408, -0.559361674388424 
2.3000000000004293, -0.5632849270592307 
2.3100000000004504, -0.56721493026426 
2.3200000000004715, -0.5706562848459229 
2.3300000000004926, -0.5733627932456725 
2.3400000000005137, -0.57535359693296 
2.3500000000005348, -0.5767759938334044 
2.360000000000556, -0.5777834207796462 
2.370000000000577, -0.5784904224992052 
2.380000000000598, -0.5789737287855943 
2.390000000000619, -0.5792840481678571 
2.4000000000006403, -0.5794550336379284 
2.4100000000006614, -0.5795081060452276 
2.4200000000006825, -0.5794547018400189 
2.4300000000007036, -0.5792972988128331 
2.4400000000007247, -0.5790301522122411 
2.450000000000746, -0.5786406616621883 
2.460000000000767, -0.5781125211395663 
2.470000000000788, -0.5774317121589626 
2.480000000000809, -0.576595117624721 
2.49000000000083, -0.5756187621067111 
2.5000000000008513, -0.5745403301894529 
2.5100000000008724, -0.5734123265034163 
2.5200000000008935, -0.5722884749140744 
2.5300000000009146, -0.5712109880390417 
2.5400000000009357, -0.570204892987173 
2.550000000000957, -0.569279945991229 
2.560000000000978, -0.5684366204346258 
2.570000000000999, -0.5676723803187075 
2.58000000000102, -0.5669862639636853 
2.5900000000010412, -0.5663815758329138 
2.6000000000010624, -0.5658673407425127 
2.6100000000010835, -0.5654592471949528 
2.6200000000011046, -0.5651805433896387 
2.6300000000011257, -0.5650630727452304 
2.6400000000011468, -0.5651484401594933 
2.650000000001168, -0.5654891229665621 
2.660000000001189, -0.5661490362205847 
2.67000000000121, -0.5672024394155647 
2.680000000001231, -0.5687289626003287 
2.6900000000012523, -0.5708010565665432 
2.7000000000012734, -0.5734594652678895 
2.7100000000012945, -0.5766755837879335 
2.7200000000013156, -0.5803114183160013 
2.7300000000013367, -0.584106678784585 
2.740000000001358, -0.5877271887447375 
2.750000000001379, -0.5908703075518271 
2.7600000000014, -0.5933631078721613 
2.770000000001421, -0.5951864994522011 
2.780000000001442, -0.5964269864257067 
2.7900000000014633, -0.5972090572415494 
2.8000000000014844, -0.5976487065224692 
2.8100000000015055, -0.5978342501287777 
2.8200000000015266, -0.597823669216403 
2.8300000000015477, -0.5976478068645312 
2.840000000001569, -0.5973135811777849 
2.85000000000159, -0.5968050078137164 
2.860000000001611, -0.596081804955273 
2.870000000001632, -0.5950769506766876 
2.8800000000016532, -0.5936971067382497 
2.8900000000016743, -0.5918336829852644 
2.9000000000016954, -0.589394423315721 
2.9100000000017165, -0.5863569547338325 
2.9200000000017377, -0.5828206660639449 
2.9300000000017588, -0.5790117935257209 
2.94000000000178, -0.5752198557601161 
2.950000000001801, -0.5717035661697474 
2.960000000001822, -0.5686281945639076 
2.970000000001843, -0.5660580672679953 
2.9800000000018643, -0.563984088938983 
2.9900000000018854, -0.5623576680921317 
3.0000000000019065, -0.5611159918051898 
3.0100000000019276, -0.5601964079523766 
3.0200000000019487, -0.5595429509605874 
3.03000000000197, -0.5591084886426101 
3.040000000001991, -0.5588548663233086 
3.050000000002012, -0.5587523326109106 
3.060000000002033, -0.5587788296454221 
3.070000000002054, -0.5589193580636669 
3.0800000000020753, -0.5591654253964042 
3.0900000000020964, -0.5595144102125806 
3.1000000000021175, -0.559968427983228 
3.1100000000021386, -0.5605319856210705 
3.1200000000021597, -0.5612075862919408 
3.130000000002181, -0.5619889627937034 
3.140000000002202, -0.5628532441650586 
3.150000000002223, -0.5637558381651282 
3.160000000002244, -0.5646332035265976 
3.1700000000022652, -0.5654158723167865 
3.1800000000022863, -0.5660468191596524 
3.1900000000023074, -0.5664948660308619 
3.2000000000023285, -0.5667560956080681 
3.2100000000023496, -0.566845165568185 
3.2200000000023707, -0.5667836026974497 
3.230000000002392, -0.5665905308509388 
3.240000000002413, -0.5662771942755862 
3.250000000002434, -0.5658440644279066 
3.260000000002455, -0.5652787147079483 
3.2700000000024763, -0.5645528881137973 
3.2800000000024974, -0.563617438522502 
3.2900000000025185, -0.5623940345218569 
3.3000000000025396, -0.5607636336408175 
3.3100000000025607, -0.5585565619943698 
3.3200000000025818, -0.5555618842230783 
3.330000000002603, -0.5515911392442366 
3.340000000002624, -0.546618926775676 
3.350000000002645, -0.5409302700836867 
3.360000000002666, -0.5351053935008678 
3.3700000000026873, -0.529781558826089 
3.3800000000027084, -0.5253845638935486 
3.3900000000027295, -0.522038958908768 
3.4000000000027506, -0.5196486367061467 
3.4100000000027717, -0.5180213101254382 
3.420000000002793, -0.5169561416055368 
3.430000000002814, -0.5162837620549875 
3.440000000002835, -0.5158758292377241 
3.450000000002856, -0.5156409084058465 
3.460000000002877, -0.5155163439155259 
3.4700000000028983, -0.5154603634632591 
3.4800000000029194, -0.5154458313960117 
3.4900000000029405, -0.5154558861064088 
3.5000000000029616, -0.5154812776403664 
3.5100000000029827, -0.5155190282934583 
3.520000000003004, -0.5155717905928056 
3.530000000003025, -0.5156469383939689 
3.540000000003046, -0.5157542707813672 
3.550000000003067, -0.5159017000991085 
3.5600000000030882, -0.5160896220842169 
3.5700000000031094, -0.5163062686995712 
3.5800000000031305, -0.5165270180539531 
3.5900000000031516, -0.5167192551613218 
3.6000000000031727, -0.5168511010434212 
3.6100000000031938, -0.5168995021177392 
3.620000000003215, -0.5168536370018973 
3.630000000003236, -0.5167130500506175 
3.640000000003257, -0.516482950541058 
3.650000000003278, -0.5161694971157327 
3.6600000000032993, -0.5157764931569692 
3.6700000000033204, -0.5153035307618304 
3.6800000000033415, -0.514744945469766 
3.6900000000033626, -0.5140886986692486 
3.7000000000033837, -0.5133139490872443 
3.710000000003405, -0.5123852128114074 
3.720000000003426, -0.5112398835335892 
3.730000000003447, -0.5097670562340191 
3.740000000003468, -0.5077868041034371 
3.750000000003489, -0.5050684381535862 
3.7600000000035103, -0.5014478177647359 
3.7700000000035314, -0.49702661589954716 
3.7800000000035525, -0.4922609439611262 
3.7900000000035736, -0.48776938092153854 
3.8000000000035947, -0.4840185226134972 
3.810000000003616, -0.48117552124657664 
3.820000000003637, -0.4791713324773356 
3.830000000003658, -0.4778318497302648 
3.840000000003679, -0.4769726061243567 
3.8500000000037002, -0.4764405987830386 
3.8600000000037213, -0.4761229602587453 
3.8700000000037424, -0.4759417137682009 
3.8800000000037635, -0.4758451306533372 
3.8900000000037847, -0.47579991792010556 
3.9000000000038058, -0.47578541522629125 
3.910000000003827, -0.47578982640172524 
3.920000000003848, -0.4758081558077317 
3.930000000003869, -0.4758413550076369 
3.94000000000389, -0.47589593385284623 
3.9500000000039113, -0.4759829677062114 
3.9600000000039324, -0.476115364886617 
3.9700000000039535, -0.4763028918493995 
3.9800000000039746, -0.47654588552457555 
3.9900000000039957, -0.47683022226648913 
4.000000000004016, -0.47712680268389 
4.010000000003993, -0.47739732949373215 
4.02000000000397, -0.47760447210161255 
4.030000000003946, -0.47772120657240347 
4.040000000003923, -0.4777346282597308 
4.0500000000039, -0.4776435875453181 
4.0600000000038765, -0.47745301339872104 
4.070000000003853, -0.4771681285323176 
4.08000000000383, -0.47679002839019236 
4.090000000003807, -0.4763124042608176 
4.100000000003783, -0.47571832278598014 
4.11000000000376, -0.474975608305429 
4.120000000003737, -0.4740290819760514 
4.130000000003713, -0.4727878926761121 
4.14000000000369, -0.4711082364731646 
4.150000000003667, -0.4687807073016936 
4.1600000000036434, -0.46555241590110824 
4.17000000000362, -0.4612318571998591 
4.180000000003597, -0.4558763831479665 
4.1900000000035735, -0.4499168694255862 
4.20000000000355, -0.44402919814678815 
4.210000000003527, -0.4388169631069313 
4.220000000003504, -0.43459111488373675 
4.23000000000348, -0.4313753783283227 
4.240000000003457, -0.4290304252121798 
4.250000000003434, -0.4273682659246781 
4.26000000000341, -0.4262146109218792 
4.270000000003387, -0.4254305592073928 
4.280000000003364, -0.4249138319526177 
4.2900000000033405, -0.4245927846642149 
4.300000000003317, -0.4244193829314448 
4.310000000003294, -0.42436336402921804 
4.320000000003271, -0.42440807346389836 
4.330000000003247, -0.424547826639979 
4.340000000003224, -0.4247864016755035 
4.350000000003201, -0.42513605962195944 
4.360000000003177, -0.425616158408413 
4.370000000003154, -0.426250007320501 
4.380000000003131, -0.42705838482741765 
4.390000000003107, -0.42804875293696404 
4.400000000003084, -0.42920158338811765 
4.410000000003061, -0.43045968651637806 
4.4200000000030375, -0.4317302326880245 
4.430000000003014, -0.4329055231264977 
4.440000000002991, -0.43389485815891043 
4.450000000002968, -0.43464831719626396 
4.460000000002944, -0.43515929364225575 
4.470000000002921, -0.43544991897429197 
4.480000000002898, -0.435552453499795 
4.490000000002874, -0.4354955643454839 
4.500000000002851, -0.43529690795318504 
4.510000000002828, -0.4349595977704365 
4.520000000002804, -0.43446987188677355 
4.530000000002781, -0.43379446866927723 
4.540000000002758, -0.43287796615523744 
4.5500000000027345, -0.43164299113012977 
4.560000000002711, -0.429999991874711 
4.570000000002688, -0.4278754926891765 
4.580000000002665, -0.4252600538311759 
4.590000000002641, -0.422253244853695 
4.600000000002618, -0.41906265599803383 
4.610000000002595, -0.41593891767356184 
4.620000000002571, -0.41308857123190207 
4.630000000002548, -0.410624826234692 
4.640000000002525, -0.4085722163829753 
4.6500000000025015, -0.4068994406399469 
4.660000000002478, -0.40555229624990863 
4.670000000002455, -0.40447511880942033 
4.6800000000024315, -0.4036212235207695 
4.690000000002408, -0.40295652603613935 
4.700000000002385, -0.4024600126675345 
4.710000000002362, -0.40212333628154573 
4.720000000002338, -0.40195073355044164 
4.730000000002315, -0.40195983826621806 
4.740000000002292, -0.4021836380065881 
4.750000000002268, -0.402673554554411 
4.760000000002245, -0.40350312736957095 
4.770000000002222, -0.40477060303283424 
4.7800000000021985, -0.40659626587708936 
4.790000000002175, -0.4091062551908463 
4.800000000002152, -0.4123908969445029 
4.810000000002129, -0.4164309345314187 
4.820000000002105, -0.4210150539910488 
4.830000000002082, -0.4257226755305446 
4.840000000002059, -0.43004604043304734 
4.850000000002035, -0.4336018837579088 
4.860000000002012, -0.43626154074295587 
4.870000000001989, -0.43811218532083335 
4.880000000001965, -0.4393341797101568 
4.890000000001942, -0.4401053827932267 
4.900000000001919, -0.44056254457953753 
4.9100000000018955, -0.44079842649044343 
