t, s[1].omega / s[0].omega 
0, -0.7499976720820387 
0.009999999999999995, -0.7497422512464181 
0.019999999999999934, -0.74944091142693 
0.029999999999999874, -0.7490915118179413 
0.04000000000000012, -0.748693657214105 
0.050000000000000405, -0.7482513163879894 
0.06000000000000069, -0.7477742235704568 
0.07000000000000098, -0.747278328772569 
0.08000000000000126, -0.7467861934669445 
0.09000000000000155, -0.7463278943615698 
0.10000000000000184, -0.7459422345868691 
0.11000000000000212, -0.7456774328558505 
0.12000000000000241, -0.7455902530037167 
0.130000000000002, -0.7457428370509979 
0.1400000000000009, -0.7461972030383646 
0.1499999999999998, -0.7470080683536225 
0.1599999999999987, -0.7482148290675429 
0.1699999999999976, -0.7498329710441338 
0.1799999999999965, -0.7518444989016577 
0.1899999999999954, -0.7541875009086556 
0.1999999999999943, -0.7567480411415285 
0.2099999999999932, -0.7593624790036162 
0.2199999999999921, -0.7618398551182978 
0.229999999999991, -0.7640045845856168 
0.2399999999999899, -0.7657413929727543 
0.2499999999999888, -0.7670163122761469 
0.2599999999999877, -0.7678638070225274 
0.2699999999999866, -0.768354384746701 
0.2799999999999855, -0.7685639529376315 
0.2899999999999844, -0.768555670874039 
0.2999999999999833, -0.7683734928647279 
0.3099999999999822, -0.7680423988898625 
0.3199999999999811, -0.767571359071163 
0.32999999999998, -0.7669574974362963 
0.3399999999999789, -0.7661920013862192 
0.3499999999999778, -0.7652698149355778 
0.35999999999997667, -0.764205727498042 
0.36999999999997557, -0.7630576324465979 
0.37999999999997447, -0.7619507620977453 
0.38999999999997337, -0.7610839616620545 
0.39999999999997227, -0.7606907883294041 
0.40999999999997117, -0.7609489169843305 
0.41999999999997006, -0.761886640310088 
0.42999999999996896, -0.7633625925760319 
0.43999999999996786, -0.7651326601604412 
0.44999999999996676, -0.7669426994374499 
0.45999999999996566, -0.7685938852095138 
0.46999999999996456, -0.769969588147256 
0.47999999999996346, -0.7710302428050396 
0.48999999999996235, -0.7717892356319453 
0.49999999999996125, -0.7722853800264182 
0.5099999999999602, -0.7725619917006873 
0.519999999999959, -0.7726546159988384 
0.529999999999958, -0.7725849707448447 
0.5399999999999568, -0.7723578394374312 
0.5499999999999557, -0.7719585026476301 
0.5599999999999546, -0.77134960452886 
0.5699999999999535, -0.770468033029031 
0.5799999999999524, -0.7692249343495188 
0.5899999999999513, -0.7675153173460789 
0.5999999999999502, -0.7652451398443011 
0.6099999999999491, -0.7623768831273567 
0.619999999999948, -0.7589760029052816 
0.6299999999999469, -0.7552247160407837 
0.6399999999999458, -0.7513831155893498 
0.6499999999999447, -0.747717373542913 
0.6599999999999436, -0.7444372711911528 
0.6699999999999425, -0.7416683548920034 
0.6799999999999414, -0.7394550973450211 
0.6899999999999403, -0.737779174257436 
0.6999999999999392, -0.7365806546951699 
0.7099999999999381, -0.7357769388536446 
0.719999999999937, -0.7352781259514336 
0.7299999999999359, -0.7349984158176002 
0.7399999999999348, -0.7348632402594248 
0.7499999999999337, -0.7348122469714309 
0.7599999999999326, -0.7347989800932114 
0.7699999999999315, -0.7347886419336175 
0.7799999999999304, -0.7347554143553835 
0.7899999999999293, -0.7346805022054891 
0.7999999999999282, -0.7345514389491903 
0.8099999999999271, -0.734362335517215 
0.819999999999926, -0.7341139234333696 
0.8299999999999249, -0.7338121038602248 
0.8399999999999238, -0.7334647887762874 
0.8499999999999227, -0.7330784762287064 
0.8599999999999216, -0.7326566216124507 
0.8699999999999205, -0.7322006781240422 
0.8799999999999194, -0.7317128330525454 
0.8899999999999183, -0.7311987096107538 
0.8999999999999172, -0.7306690421641083 
0.9099999999999161, -0.7301404958877064 
0.919999999999915, -0.7296362921935297 
0.9299999999999139, -0.7291869845151429 
0.9399999999999128, -0.7288311204445826 
0.9499999999999117, -0.7286151116874866 
0.9599999999999106, -0.7285916269638546 
0.9699999999999095, -0.7288162089605106 
0.9799999999999084, -0.7293423669516368 
0.9899999999999073, -0.7302157166569175 
0.9999999999999062, -0.7314674984093527 
1.0099999999999052, -0.7331070944028182 
1.019999999999904, -0.7351127260711807 
1.029999999999903, -0.7374206236380992 
1.039999999999902, -0.7399166606274228 
1.0499999999999008, -0.7424394780217481 
1.0599999999998997, -0.7448045962887838 
1.0699999999998986, -0.7468477600159102 
1.0799999999998975, -0.7484673272972685 
1.0899999999998964, -0.7496404887056258 
1.0999999999998953, -0.7504070263550637 
1.1099999999998942, -0.7508370185616968 
1.119999999999893, -0.7510024994535682 
1.129999999999892, -0.7509616238213311 
1.1399999999998909, -0.7507534760058665 
1.1499999999998898, -0.7503985612094011 
1.1599999999998887, -0.7499013750975898 
1.1699999999998876, -0.7492537082682612 
1.1799999999998865, -0.7484391578770927 
1.1899999999998854, -0.7474405715109343 
1.1999999999998843, -0.7462525949354663 
1.2099999999998832, -0.7448999500039309 
1.219999999999882, -0.7434566665476574 
1.229999999999881, -0.742052905383688 
1.2399999999998799, -0.7408536219925773 
1.2499999999998788, -0.7400113966206897 
1.2599999999998777, -0.7396228314246781 
1.2699999999998766, -0.7397099310922995 
1.2799999999998755, -0.7402149820537496 
1.2899999999998744, -0.7410072003790635 
1.2999999999998733, -0.7419191793715563 
1.3099999999998722, -0.7428004707539267 
1.319999999999871, -0.7435523632391451 
1.32999999999987, -0.7441306145101918 
1.3399999999998689, -0.744528969998764 
1.3499999999998678, -0.7447596346684496 
1.3599999999998666, -0.7448385320227571 
1.3699999999998655, -0.7447761882865708 
1.3799999999998644, -0.7445723575137435 
1.3899999999998633, -0.7442124406195788 
1.3999999999998622, -0.7436647913954573 
1.4099999999998611, -0.7428796139320732 
1.41999999999986, -0.741792235465607 
1.429999999999859, -0.7403352183969462 
1.4399999999998578, -0.7384622354565848 
1.4499999999998567, -0.7361785487832764 
1.4599999999998556, -0.7335614138642855 
1.4699999999998545, -0.7307525347900599 
1.4799999999998534, -0.7279226391121707 
1.4899999999998523, -0.7252292083080181 
1.4999999999998512, -0.7227892861073839 
1.5099999999998501, -0.7206730570585849 
1.519999999999849, -0.7189105543944625 
1.529999999999848, -0.7175020319841481 
1.5399999999998468, -0.7164269435773233 
1.5499999999998457, -0.7156506371882525 
1.5599999999998446, -0.715129639550271 
1.5699999999998435, -0.7148163661868626 
1.5799999999998424, -0.7146634011382698 
1.5899999999998413, -0.7146269703626913 
1.5999999999998402, -0.7146691989685705 
1.6099999999998391, -0.7147590822136465 
1.619999999999838, -0.714872494491526 
1.629999999999837, -0.7149917193883095 
1.6399999999998358, -0.7151047835662883 
1.6499999999998347, -0.7152044272440728 
1.6599999999998336, -0.7152862324271154 
1.6699999999998325, -0.7153457639630355 
1.6799999999998314, -0.7153756215815944 
1.6899999999998303, -0.7153641916523038 
1.6999999999998292, -0.7152974092881903 
1.709999999999828, -0.715162905882597 
1.719999999999827, -0.7149541622806009 
1.729999999999826, -0.714672492786176 
1.7399999999998248, -0.714326620576261 
1.7499999999998237, -0.7139313453139522 
1.7599999999998226, -0.7135070919602783 
1.7699999999998215, -0.713081363382907 
1.7799999999998204, -0.7126922124558851 
1.7899999999998193, -0.7123931679110659 
1.7999999999998182, -0.7122584576269161 
1.809999999999817, -0.7123867123094194 
1.819999999999816, -0.7129006579294159 
1.8299999999998149, -0.7139398145181353 
1.8399999999998138, -0.7156430740261319 
1.8499999999998127, -0.7181185197333949 
1.8599999999998116, -0.7214002755334474 
1.8699999999998105, -0.7253996607552387 
1.8799999999998094, -0.7298726901203413 
1.8899999999998083, -0.734439383110349 
1.8999999999998072, -0.7386765350877705 
1.909999999999806, -0.7422504270725712 
1.919999999999805, -0.7450077049705616 
1.9299999999998039, -0.7469716077079578 
1.9399999999998028, -0.7482701671713061 
1.9499999999998017, -0.7490588643665594 
1.9599999999998006, -0.7494736578463507 
1.9699999999997995, -0.7496143233014904 
1.9799999999997984, -0.74954430825219 
1.9899999999997973, -0.7492956182617331 
1.9999999999997962, -0.7488728405444947 
2.0099999999998173, -0.7482540821563427 
2.0199999999998384, -0.7473882799444872 
2.0299999999998595, -0.7461892956016725 
2.0399999999998806, -0.7445288762793438 
2.0499999999999017, -0.7422346637182008 
2.059999999999923, -0.7391074345264045 
2.069999999999944, -0.7349804053532705 
2.079999999999965, -0.7298347385035722 
2.089999999999986, -0.7239302395822913 
2.100000000000007, -0.7178308527582661 
2.1100000000000283, -0.7122302937459228 
2.1200000000000494, -0.707669826480376 
2.1300000000000705, -0.7043623355769533 
2.1400000000000916, -0.702216150242939 
2.1500000000001127, -0.7009735938083015 
2.160000000000134, -0.7003449967968984 
2.170000000000155, -0.7000851352460179 
2.180000000000176, -0.700016851753541 
2.190000000000197, -0.700024991001549 
2.2000000000002182, -0.7000397737159021 
2.2100000000002393, -0.7000199359952101 
2.2200000000002604, -0.6999394763741742 
2.2300000000002815, -0.6997785999527754 
2.2400000000003026, -0.6995184473616374 
2.2500000000003237, -0.699139344281676 
2.260000000000345, -0.6986226801599279 
2.270000000000366, -0.6979562268905353 
2.280000000000387, -0.697141124314224 
2.290000000000408, -0.6961966186460258 
2.3000000000004293, -0.6951585073134863 
2.3100000000004504, -0.6940709100169439 
2.3200000000004715, -0.692975838119698 
2.3300000000004926, -0.6919061986115517 
2.3400000000005137, -0.6908845694356044 
2.3500000000005348, -0.6899261789850801 
2.360000000000556, -0.6890431262141391 
2.370000000000577, -0.6882477373265165 
2.380000000000598, -0.6875543419316076 
2.390000000000619, -0.6869795990391151 
2.4000000000006403, -0.6865417615918112 
2.4100000000006614, -0.6862592886014977 
2.4200000000006825, -0.6861492283027613 
2.4300000000007036, -0.6862258048866094 
2.4400000000007247, -0.6864995413386972 
2.450000000000746, -0.6869769786539879 
2.460000000000767, -0.6876606443175428 
2.470000000000788, -0.6885484957791842 
2.480000000000809, -0.689631793091085 
2.49000000000083, -0.6908905386305024 
2.5000000000008513, -0.6922867472926393 
2.5100000000008724, -0.6937582341872367 
2.5200000000008935, -0.695218446998461 
2.5300000000009146, -0.6965678978424645 
2.5400000000009357, -0.6977164760679809 
2.550000000000957, -0.6986061423923247 
2.560000000000978, -0.6992206831107058 
2.570000000000999, -0.699578482780771 
2.58000000000102, -0.6997159378308866 
2.5900000000010412, -0.6996718178473151 
2.6000000000010624, -0.6994777383814219 
2.6100000000010835, -0.6991545540857107 
2.6200000000011046, -0.6987125303287431 
2.6300000000011257, -0.6981536743139916 
2.6400000000011468, -0.6974758635024629 
2.650000000001168, -0.6966794699127298 
2.660000000001189, -0.6957775267625446 
2.67000000000121, -0.6948092392238118 
2.680000000001231, -0.6938524034543119 
2.6900000000012523, -0.6930230559303469 
2.7000000000012734, -0.692447300546224 
2.7100000000012945, -0.692207100972112 
2.7200000000013156, -0.6923007594634761 
2.7300000000013367, -0.6926652872565555 
2.740000000001358, -0.693234090857094 
2.750000000001379, -0.6939540366742523 
2.7600000000014, -0.6947607276463481 
2.770000000001421, -0.6955712317635586 
2.780000000001442, -0.6963067781960703 
2.7900000000014633, -0.6969147837931261 
2.8000000000014844, -0.6973730039913477 
2.8100000000015055, -0.6976808935667999 
2.8200000000015266, -0.6978480250842064 
2.8300000000015477, -0.6978847917748426 
2.840000000001569, -0.6977962749010767 
2.85000000000159, -0.6975783990315095 
2.860000000001611, -0.6972154988697388 
2.870000000001632, -0.6966792822832777 
2.8800000000016532, -0.6959304680319647 
2.8900000000016743, -0.6949255600260568 
2.9000000000016954, -0.6936308276108095 
2.9100000000017165, -0.6920415269451892 
2.9200000000017377, -0.6901973821639478 
2.9300000000017588, -0.688182370954086 
2.94000000000178, -0.6861053713060576 
2.950000000001801, -0.6840725191036271 
2.960000000001822, -0.6821668055813875 
2.970000000001843, -0.680441845502024 
2.9800000000018643, -0.6789262801977549 
2.9900000000018854, -0.6776317928771424 
3.0000000000019065, -0.6765599247987661 
3.0100000000019276, -0.6757061625097457 
3.0200000000019487, -0.6750617604761432 
3.03000000000197, -0.6746143916272195 
3.040000000001991, -0.6743485868603505 
3.050000000002012, -0.6742465117782622 
3.060000000002033, -0.6742891956362259 
3.070000000002054, -0.6744580113594278 
3.0800000000020753, -0.6747360580555275 
3.0900000000020964, -0.6751090762840455 
3.1000000000021175, -0.6755655253979329 
3.1100000000021386, -0.6760954108097674 
3.1200000000021597, -0.6766874982716371 
3.130000000002181, -0.6773250480591523 
3.140000000002202, -0.6779814169851904 
3.150000000002223, -0.6786183340269136 
3.160000000002244, -0.6791897619004861 
3.1700000000022652, -0.6796514735996195 
3.1800000000022863, -0.6799719914812558 
3.1900000000023074, -0.6801387099379732 
3.2000000000023285, -0.680156409604005 
3.2100000000023496, -0.6800406313526037 
3.2200000000023707, -0.679810542517583 
3.230000000002392, -0.679484455686581 
3.240000000002413, -0.6790788850047655 
3.250000000002434, -0.6786109392035817 
3.260000000002455, -0.6781039731242218 
3.2700000000024763, -0.6775969519410644 
3.2800000000024974, -0.6771580879665065 
3.2900000000025185, -0.6769020160326924 
3.3000000000025396, -0.6770057008391072 
3.3100000000025607, -0.677710204093114 
3.3200000000025818, -0.6792854325774023 
3.330000000002603, -0.6819351775067805 
3.340000000002624, -0.6856548122759142 
3.350000000002645, -0.6901300017095391 
3.360000000002666, -0.694801621644519 
3.3700000000026873, -0.6991005252606377 
3.3800000000027084, -0.7026698785010435 
3.3900000000027295, -0.7054144222917602 
3.4000000000027506, -0.7074112245064473 
3.4100000000027717, -0.7088023676122052 
3.420000000002793, -0.7097300199616148 
3.430000000002814, -0.7103108823318566 
3.440000000002835, -0.7106311294149815 
3.450000000002856, -0.7107488528926326 
3.460000000002877, -0.7106978760687024 
3.4700000000028983, -0.7104904936203683 
3.4800000000029194, -0.7101183408382681 
3.4900000000029405, -0.7095515254402632 
3.5000000000029616, -0.7087372574498199 
3.5100000000029827, -0.707601115001738 
3.520000000003004, -0.7060566234162009 
3.530000000003025, -0.7040295028979507 
3.540000000003046, -0.7014963223096158 
3.550000000003067, -0.6985212777622192 
3.5600000000030882, -0.695262879177543 
3.5700000000031094, -0.6919366366434081 
3.5800000000031305, -0.6887542916038096 
3.5900000000031516, -0.685876078789811 
3.6000000000031727, -0.6833944433816134 
3.6100000000031938, -0.6813424190923432 
3.620000000003215, -0.6797111935783724 
3.630000000003236, -0.6784664225784736 
3.640000000003257, -0.6775600160554879 
3.650000000003278, -0.6769379859149817 
3.6600000000032993, -0.6765457820201293 
3.6700000000033204, -0.6763320624702259 
3.6800000000033415, -0.6762512406073846 
3.6900000000033626, -0.6762648851700898 
3.7000000000033837, -0.676342108670698 
3.710000000003405, -0.6764592513545061 
3.720000000003426, -0.6765992348470627 
3.730000000003447, -0.6767507906746214 
3.740000000003468, -0.6769073862135981 
3.750000000003489, -0.6770653314673043 
3.7600000000035103, -0.6772207187245951 
3.7700000000035314, -0.6773657966979032 
3.7800000000035525, -0.6774865889064159 
3.7900000000035736, -0.6775637540371058 
3.8000000000035947, -0.6775770207024188 
3.810000000003616, -0.6775109945946681 
3.820000000003637, -0.6773590956545863 
3.830000000003658, -0.6771239849494826 
3.840000000003679, -0.6768154688378609 
3.8500000000037002, -0.6764481850816839 
3.8600000000037213, -0.6760409532467079 
3.8700000000037424, -0.6756186590205735 
3.8800000000037635, -0.6752168652125767 
3.8900000000037847, -0.6748890365113975 
3.9000000000038058, -0.6747158825151789 
3.910000000003827, -0.6748153645238595 
3.920000000003848, -0.6753499740844755 
3.930000000003869, -0.676524777099106 
3.94000000000389, -0.6785659027960207 
3.9500000000039113, -0.6816672623233743 
3.9600000000039324, -0.6859006285690221 
3.9700000000039535, -0.6911119202539602 
3.9800000000039746, -0.6968719382539657 
3.9900000000039957, -0.702563602794153 
4.000000000004016, -0.7076004061223803 
4.010000000003993, -0.7116340160692397 
4.02000000000397, -0.7146066834949236 
4.030000000003946, -0.7166574311306385 
4.040000000003923, -0.7179946119525576 
4.0500000000039, -0.7188127632154904 
4.0600000000038765, -0.7192610588041319 
4.070000000003853, -0.7194410440516795 
4.08000000000383, -0.7194142274945995 
4.090000000003807, -0.7192098032563321 
4.100000000003783, -0.7188290511135083 
4.11000000000376, -0.7182456430811006 
4.120000000003737, -0.717402180149747 
4.130000000003713, -0.7162045832500491 
4.14000000000369, -0.7145190642081181 
4.150000000003667, -0.7121822033394082 
4.1600000000036434, -0.7090400682602758 
4.17000000000362, -0.7050250753899514 
4.180000000003597, -0.7002449459957344 
4.1900000000035735, -0.6950155056726092 
4.20000000000355, -0.6897842030435396 
4.210000000003527, -0.6849813915860444 
4.220000000003504, -0.6808987675858781 
4.23000000000348, -0.6776537875944812 
4.240000000003457, -0.6752231712023297 
4.250000000003434, -0.6734999547792577 
4.26000000000341, -0.6723432977658725 
4.270000000003387, -0.6716114511112719 
4.280000000003364, -0.671179477408421 
4.2900000000033405, -0.670946209858838 
4.300000000003317, -0.6708345524852704 
4.310000000003294, -0.6707882165247856 
4.320000000003271, -0.6707670961062268 
4.330000000003247, -0.6707427784914277 
4.340000000003224, -0.6706951285688413 
4.350000000003201, -0.6706104150131457 
4.360000000003177, -0.6704809116448393 
4.370000000003154, -0.6703052121372709 
4.380000000003131, -0.6700878881217609 
4.390000000003107, -0.6698372801431081 
4.400000000003084, -0.6695615553065035 
4.410000000003061, -0.6692648818247231 
4.4200000000030375, -0.6689460128726202 
4.430000000003014, -0.6686000978967889 
4.440000000002991, -0.6682224158375422 
4.450000000002968, -0.6678118254193542 
4.460000000002944, -0.6673726161375889 
4.470000000002921, -0.666915008653649 
4.480000000002898, -0.6664554305674906 
4.490000000002874, -0.6660175624775749 
4.500000000002851, -0.6656345344490193 
4.510000000002828, -0.6653520592657577 
4.520000000002804, -0.6652318500230106 
4.530000000002781, -0.6653543156008263 
4.540000000002758, -0.6658191714481497 
4.5500000000027345, -0.6667421524423248 
4.560000000002711, -0.6682453400394184 
4.570000000002688, -0.6704377692716468 
4.580000000002665, -0.6733829607742974 
4.590000000002641, -0.67705388282899 
4.600000000002618, -0.6812880177240072 
4.610000000002595, -0.6857741213438668 
4.620000000002571, -0.6901074025228244 
4.630000000002548, -0.6939109928790324 
4.640000000002525, -0.6969556728814728 
4.6500000000025015, -0.6991985596428818 
4.660000000002478, -0.7007330217484512 
4.670000000002455, -0.7017076299426099 
4.6800000000024315, -0.7022661022405291 
4.690000000002408, -0.7025204926054112 
4.700000000002385, -0.7025463314753886 
4.710000000002362, -0.7023863640592238 
4.720000000002338, -0.7020549840210062 
4.730000000002315, -0.7015399965099214 
4.740000000002292, -0.7008005806812757 
4.750000000002268, -0.6997613956168631 
4.760000000002245, -0.6983042855535636 
4.770000000002222, -0.6962629359863719 
4.7800000000021985, -0.6934338261872485 
4.790000000002175, -0.6896259149760747 
4.800000000002152, -0.6847645803781952 
4.810000000002129, -0.6790163687371573 
4.820000000002105, -0.6728315061708463 
4.830000000002082, -0.666819812438957 
4.840000000002059, -0.6615236730964698 
4.850000000002035, -0.6572523406463217 
4.860000000002012, -0.6540615827212072 
4.870000000001989, -0.6518325753381089 
4.880000000001965, -0.6503684797129311 
4.890000000001942, -0.6494639651460552 
4.900000000001919, -0.6489411957304446 
4.9100000000018955, -0.6486617167725436 
4.920000000001872, -0.6485250501839579 
