t, s[1].omega / s[0].omega 
0, -0.5799977332775437 
0.009999999999999995, -0.579774717690284 
0.019999999999999934, -0.5795540754448388 
0.029999999999999874, -0.5793234802545426 
0.04000000000000012, -0.5790684370193822 
0.050000000000000405, -0.5787776548125906 
0.06000000000000069, -0.5784461164420152 
0.07000000000000098, -0.5780755067822768 
0.08000000000000126, -0.577673356180034 
0.09000000000000155, -0.577252614382305 
0.10000000000000184, -0.5768328468277935 
0.11000000000000212, -0.5764436825960287 
0.12000000000000241, -0.5761308900389251 
0.130000000000002, -0.5759653344334833 
0.1400000000000009, -0.5760546121388839 
0.1499999999999998, -0.5765556091312465 
0.1599999999999987, -0.5776824300793358 
0.1699999999999976, -0.5796968451653968 
0.1799999999999965, -0.5828589084990982 
0.1899999999999954, -0.5873150503279105 
0.1999999999999943, -0.5929379859816468 
0.2099999999999932, -0.5992232699021158 
0.2199999999999921, -0.6054015165313698 
0.229999999999991, -0.6107690187777365 
0.2399999999999899, -0.6149737653819943 
0.2499999999999888, -0.6180311366628695 
0.2599999999999877, -0.6201512465665828 
0.2699999999999866, -0.6215764960260062 
0.2799999999999855, -0.6225066484272864 
0.2899999999999844, -0.623085208764639 
0.2999999999999833, -0.6234083850796911 
0.3099999999999822, -0.6235369986325331 
0.3199999999999811, -0.6235054690968712 
0.32999999999998, -0.6233272872301985 
0.3399999999999789, -0.6229977964746987 
0.3499999999999778, -0.6224955822238295 
0.35999999999997667, -0.6217844751863363 
0.36999999999997557, -0.6208192549109876 
0.37999999999997447, -0.6195585240348274 
0.38999999999997337, -0.6179853611196813 
0.39999999999997227, -0.6161286016719378 
0.40999999999997117, -0.6140701403515484 
0.41999999999997006, -0.6119281402035609 
0.42999999999996896, -0.6098238263949813 
0.43999999999996786, -0.607852193378679 
0.44999999999996676, -0.6060704589189252 
0.45999999999996566, -0.6045028453316394 
0.46999999999996456, -0.6031523893392843 
0.47999999999996346, -0.6020120831926347 
0.48999999999996235, -0.6010722627461537 
0.49999999999996125, -0.6003243320134966 
0.5099999999999602, -0.5997620476789456 
0.519999999999959, -0.5993815753021352 
0.529999999999958, -0.5991811639716045 
0.5399999999999568, -0.599160924543003 
0.5499999999999557, -0.5993229124630826 
0.5599999999999546, -0.5996714781651773 
0.5699999999999535, -0.6002136029421622 
0.5799999999999524, -0.6009586336226674 
0.5899999999999513, -0.6019164481857304 
0.5999999999999502, -0.603092758522972 
0.6099999999999491, -0.6044804638264709 
0.619999999999948, -0.6060476192256112 
0.6299999999999469, -0.6077264043151273 
0.6399999999999458, -0.6094119711106116 
0.6499999999999447, -0.6109795541635217 
0.6599999999999436, -0.6123172278197917 
0.6699999999999425, -0.613356710388576 
0.6799999999999414, -0.6140834188443482 
0.6899999999999403, -0.6145235903347915 
0.6999999999999392, -0.6147217104942587 
0.7099999999999381, -0.6147215882456927 
0.719999999999937, -0.6145556797931643 
0.7299999999999359, -0.6142407030684384 
0.7399999999999348, -0.6137759157485158 
0.7499999999999337, -0.61314119722727 
0.7599999999999326, -0.6122930655922737 
0.7699999999999315, -0.6111573391069636 
0.7799999999999304, -0.6096178475689273 
0.7899999999999293, -0.6075032698625964 
0.7999999999999282, -0.6045827877026582 
0.8099999999999271, -0.6005992257512721 
0.819999999999926, -0.5953817461718275 
0.8299999999999249, -0.5890346322925196 
0.8399999999999238, -0.5820639348923662 
0.8499999999999227, -0.5752493802096896 
0.8599999999999216, -0.5693022343380375 
0.8699999999999205, -0.5645995790910175 
0.8799999999999194, -0.5611662181934819 
0.8899999999999183, -0.5588132563917594 
0.8999999999999172, -0.5572825867350082 
0.9099999999999161, -0.5563326943078998 
0.919999999999915, -0.5557711993109995 
0.9299999999999139, -0.5554577896168272 
0.9399999999999128, -0.5552954655755136 
0.9499999999999117, -0.55521937905215 
0.9599999999999106, -0.5551870054518033 
0.9699999999999095, -0.5551707293482921 
0.9799999999999084, -0.5551528967917568 
0.9899999999999073, -0.5551230636315186 
0.9999999999999062, -0.5550769897203498 
1.0099999999999052, -0.5550165883788145 
1.019999999999904, -0.5549495575168619 
1.029999999999903, -0.5548872652437743 
1.039999999999902, -0.5548402826659883 
1.0499999999999008, -0.5548127245915144 
1.0599999999998997, -0.5547981226927214 
1.0699999999998986, -0.5547794762711139 
1.0799999999998975, -0.5547340148846368 
1.0899999999998964, -0.5546403123838382 
1.0999999999998953, -0.5544839891124977 
1.1099999999998942, -0.5542596118719275 
1.119999999999893, -0.5539691998140539 
1.129999999999892, -0.5536194917946731 
1.1399999999998909, -0.5532200134199672 
1.1499999999998898, -0.5527830266179008 
1.1599999999998887, -0.5523257594545086 
1.1699999999998876, -0.5518751605597287 
1.1799999999998865, -0.5514754476702189 
1.1899999999998854, -0.5511982584263777 
1.1999999999998843, -0.5511531802218539 
1.2099999999998832, -0.5514912025012241 
1.219999999999882, -0.5523843893781788 
1.229999999999881, -0.5539581449461694 
1.2399999999998799, -0.5561726814022137 
1.2499999999998788, -0.5587281590200114 
1.2599999999998777, -0.5611434226402053 
1.2699999999998766, -0.5630331151380996 
1.2799999999998755, -0.5643221710215078 
1.2899999999998744, -0.565176028001842 
1.2999999999998733, -0.5657927909734669 
1.3099999999998722, -0.566289295880866 
1.319999999999871, -0.5667055195738863 
1.32999999999987, -0.5670451004999337 
1.3399999999998689, -0.5673033052030843 
1.3499999999998678, -0.5674773241096861 
1.3599999999998666, -0.5675670433904165 
1.3699999999998655, -0.5675727551398106 
1.3799999999998644, -0.567492733950868 
1.3899999999998633, -0.5673216858751998 
1.3999999999998622, -0.5670505366035947 
1.4099999999998611, -0.5666681066650895 
1.41999999999986, -0.5661652005030883 
1.429999999999859, -0.5655407879763663 
1.4399999999998578, -0.5648080232744264 
1.4499999999998567, -0.5639961146681002 
1.4599999999998556, -0.5631451495412263 
1.4699999999998545, -0.5622955156407743 
1.4799999999998534, -0.5614776674252844 
1.4899999999998523, -0.560707429714468 
1.4999999999998512, -0.559987786127126 
1.5099999999998501, -0.5593144636326663 
1.519999999999849, -0.5586818894050881 
1.529999999999848, -0.5580874942906747 
1.5399999999998468, -0.5575341302285831 
1.5499999999998457, -0.5570314283511253 
1.5599999999998446, -0.5565970885859642 
1.5699999999998435, -0.5562587752532548 
1.5799999999998424, -0.5560569192592156 
1.5899999999998413, -0.5560484514650278 
1.5999999999998402, -0.5563112341517547 
1.6099999999998391, -0.5569484915650349 
1.619999999999838, -0.5580914970397067 
1.629999999999837, -0.5598966399635835 
1.6399999999998358, -0.5625294452879595 
1.6499999999998347, -0.5661244533094485 
1.6599999999998336, -0.5707123229919832 
1.6699999999998325, -0.5761272154099629 
1.6799999999998314, -0.5819539634624573 
1.6899999999998303, -0.5876023391991391 
1.6999999999998292, -0.5925185396113447 
1.709999999999828, -0.5963926409034376 
1.719999999999827, -0.5992048955504191 
1.729999999999826, -0.6011208500295221 
1.7399999999998248, -0.6023593708690169 
1.7499999999998237, -0.6031135028200592 
1.7599999999998226, -0.6035254268856739 
1.7699999999998215, -0.6036888530091484 
1.7799999999998204, -0.6036588269442443 
1.7899999999998193, -0.6034602457563809 
1.7999999999998182, -0.6030927868260167 
1.809999999999817, -0.6025325578461554 
1.819999999999816, -0.6017321212782984 
1.8299999999998149, -0.6006222983737715 
1.8399999999998138, -0.5991216663160951 
1.8499999999998127, -0.5971606459397106 
1.8599999999998116, -0.5947206340802003 
1.8699999999998105, -0.5918713910951652 
1.8799999999998094, -0.5887758436382138 
1.8899999999998083, -0.5856471243374185 
1.8999999999998072, -0.5826826614545878 
1.909999999999806, -0.5800175482069547 
1.919999999999805, -0.5777155644987303 
1.9299999999998039, -0.5757861348037971 
1.9399999999998028, -0.5742076822032312 
1.9499999999998017, -0.5729459423059143 
1.9599999999998006, -0.5719647559121608 
1.9699999999997995, -0.5712310906968148 
1.9799999999997984, -0.5707167578611293 
1.9899999999997973, -0.5703986621798951 
1.9999999999997962, -0.5702586384744832 
2.0099999999998173, -0.5702833535484487 
2.0199999999998384, -0.5704644025658171 
2.0299999999998595, -0.5707985113450459 
2.0399999999998806, -0.5712875618180272 
2.0499999999999017, -0.5719378919941878 
2.059999999999923, -0.5727579653691478 
2.069999999999944, -0.573753246137813 
2.079999999999965, -0.5749175012436917 
2.089999999999986, -0.5762216099861076 
2.100000000000007, -0.5776046038524342 
2.1100000000000283, -0.5789750014070278 
2.1200000000000494, -0.5802282553305746 
2.1300000000000705, -0.5812752531041409 
2.1400000000000916, -0.5820656778432541 
2.1500000000001127, -0.582592629263097 
2.160000000000134, -0.5828797833251855 
2.170000000000155, -0.5829627807129918 
2.180000000000176, -0.5828745560439366 
2.190000000000197, -0.5826371476000438 
2.2000000000002182, -0.5822579415550846 
2.2100000000002393, -0.5817273534264952 
2.2200000000002604, -0.581015541322399 
2.2300000000002815, -0.5800663665638538 
2.2400000000003026, -0.578787267369558 
2.2500000000003237, -0.5770350741290131 
2.260000000000345, -0.5746031179655157 
2.270000000000366, -0.5712291764035846 
2.280000000000387, -0.5666646415645898 
2.290000000000408, -0.5608372623411807 
2.3000000000004293, -0.5540399015516331 
2.3100000000004504, -0.5469455828528325 
2.3200000000004715, -0.5403428943865494 
2.3300000000004926, -0.5347967699009487 
2.3400000000005137, -0.5305085440622253 
2.3500000000005348, -0.5273957004534624 
2.360000000000556, -0.5252416001560108 
2.370000000000577, -0.5238072683843813 
2.380000000000598, -0.5228854054097608 
2.390000000000619, -0.522315645411519 
2.4000000000006403, -0.5219816611191348 
2.4100000000006614, -0.5218023859278454 
2.4200000000006825, -0.5217228980579521 
2.4300000000007036, -0.5217069244657242 
2.4400000000007247, -0.5217313860794389 
2.450000000000746, -0.521782852533927 
2.460000000000767, -0.5218555557039178 
2.470000000000788, -0.5219503781085765 
2.480000000000809, -0.5220738761014597 
2.49000000000083, -0.5222361177748598 
2.5000000000008513, -0.5224463911959207 
2.5100000000008724, -0.5227070407661711 
2.5200000000008935, -0.523007514263967 
2.5300000000009146, -0.523322011422813 
2.5400000000009357, -0.5236134180016051 
2.550000000000957, -0.5238428522358947 
2.560000000000978, -0.5239800973652955 
2.570000000000999, -0.5240093444621828 
2.58000000000102, -0.5239282426584067 
2.5900000000010412, -0.5237425996731905 
2.6000000000010624, -0.5234604053356688 
2.6100000000010835, -0.5230873947836322 
2.6200000000011046, -0.5226244779413194 
2.6300000000011257, -0.5220663421270438 
2.6400000000011468, -0.5214002167642512 
2.650000000001168, -0.5206034952632148 
2.660000000001189, -0.5196380445892307 
2.67000000000121, -0.518437469084714 
2.680000000001231, -0.5168831995628131 
2.6900000000012523, -0.5147738612713384 
2.7000000000012734, -0.5118240777800245 
2.7100000000012945, -0.5077723932654656 
2.7200000000013156, -0.5026292817943309 
2.7300000000013367, -0.4968684651764545 
2.740000000001358, -0.4912678975307818 
2.750000000001379, -0.4864926036935401 
2.7600000000014, -0.4828316014137882 
2.770000000001421, -0.4802390497595293 
2.780000000001442, -0.4785060362025095 
2.7900000000014633, -0.4773970349530166 
2.8000000000014844, -0.47671325684648097 
2.8100000000015055, -0.4763075007774164 
2.8200000000015266, -0.4760782036766824 
2.8300000000015477, -0.4759581774779482 
2.840000000001569, -0.4759042417412571 
2.85000000000159, -0.47588945715053343 
2.860000000001611, -0.4758979897817729 
2.870000000001632, -0.47592216953093447 
2.8800000000016532, -0.47596117449124353 
2.8900000000016743, -0.47602057073564186 
2.9000000000016954, -0.47611159081048315 
2.9100000000017165, -0.4762488235068699 
2.9200000000017377, -0.4764454214286816 
2.9300000000017588, -0.47670628571917495 
2.94000000000178, -0.4770215466244248 
2.950000000001801, -0.4773639456353201 
2.960000000001822, -0.47769302381759926 
2.970000000001843, -0.4779655312077201 
2.9800000000018643, -0.4781470211446419 
2.9900000000018854, -0.47821844634240307 
3.0000000000019065, -0.47817535787999266 
3.0100000000019276, -0.4780221264968779 
3.0200000000019487, -0.4777651435296342 
3.03000000000197, -0.4774073507426914 
3.040000000001991, -0.47694427804913786 
3.050000000002012, -0.4763604900313343 
3.060000000002033, -0.47562479347356834 
3.070000000002054, -0.47468212631557566 
3.0800000000020753, -0.47343962162837805 
3.0900000000020964, -0.47174536027218006 
3.1000000000021175, -0.4693658727141031 
3.1100000000021386, -0.4659914105492594 
3.1200000000021597, -0.46133111613203964 
3.130000000002181, -0.4553363926766837 
3.140000000002202, -0.4484190575368167 
3.150000000002223, -0.4413816270620588 
3.160000000002244, -0.43502987884124156 
3.1700000000022652, -0.42982926718168224 
3.1800000000022863, -0.42586025075938966 
3.1900000000023074, -0.4229691306126445 
3.2000000000023285, -0.42092526866654467 
3.2100000000023496, -0.4195101104129432 
3.2200000000023707, -0.4185489082229531 
3.230000000002392, -0.4179132905040982 
3.240000000002413, -0.41751358366997293 
3.250000000002434, -0.4172896364108415 
3.260000000002455, -0.41720320502470293 
3.2700000000024763, -0.41723253276952726 
3.2800000000024974, -0.41736891620893973 
3.2900000000025185, -0.41761479481312797 
3.3000000000025396, -0.4179827315996686 
3.3100000000025607, -0.41849434559140375 
3.3200000000025818, -0.41917776895208325 
3.330000000002603, -0.42006172659900753 
3.340000000002624, -0.4211644577238407 
3.350000000002645, -0.42247756563997 
3.360000000002666, -0.4239497307436202 
3.3700000000026873, -0.42548164949292494 
3.3800000000027084, -0.4269438692823767 
3.3900000000027295, -0.4282149971029896 
3.4000000000027506, -0.4292180908390817 
3.4100000000027717, -0.4299324225616508 
3.420000000002793, -0.4303793589629068 
3.430000000002814, -0.43059851643054603 
3.440000000002835, -0.4306285463680758 
3.450000000002856, -0.43049652330264854 
3.460000000002877, -0.43021333931310846 
3.4700000000028983, -0.42977141899333154 
3.4800000000029194, -0.42914244275762436 
3.4900000000029405, -0.42827477778221174 
3.5000000000029616, -0.4270930398280461 
3.5100000000029827, -0.42550611826163254 
3.520000000003004, -0.4234330873361694 
3.530000000003025, -0.4208507848761075 
3.540000000003046, -0.4178439169524051 
3.550000000003067, -0.41461355010301804 
3.5600000000030882, -0.4114173988535244 
3.5700000000031094, -0.4084778689868146 
3.5800000000031305, -0.40592338130471195 
3.5900000000031516, -0.403787460627015 
3.6000000000031727, -0.40204156019955634 
3.6100000000031938, -0.400630472718721 
3.620000000003215, -0.3994961326951333 
3.630000000003236, -0.3985894900654635 
3.640000000003257, -0.3978747816957121 
3.650000000003278, -0.3973302283938147 
3.6600000000032993, -0.39694772694988506 
3.6700000000033204, -0.39673292940666477 
3.6800000000033415, -0.3967064261152746 
3.6900000000033626, -0.39690642288112565 
3.7000000000033837, -0.39739308668402684 
3.710000000003405, -0.39825430619811747 
3.720000000003426, -0.39961143017981965 
3.730000000003447, -0.40162067645000954 
3.740000000003468, -0.4044602475232977 
3.750000000003489, -0.408285613675573 
3.7600000000035103, -0.41313545777335114 
3.7700000000035314, -0.41880364243865625 
3.7800000000035525, -0.42477274003596044 
3.7900000000035736, -0.4303458041091276 
3.8000000000035947, -0.4349547139255546 
3.810000000003616, -0.4383878047167932 
3.820000000003637, -0.4407559713635865 
3.830000000003658, -0.44231021651457925 
3.840000000003679, -0.4432959214115134 
3.8500000000037002, -0.4438972728137453 
3.8600000000037213, -0.44423629941708953 
3.8700000000037424, -0.4443883922625692 
3.8800000000037635, -0.4443971891110362 
3.8900000000037847, -0.44428493601509594 
3.9000000000038058, -0.4440591572359323 
3.910000000003827, -0.44371752105859824 
3.920000000003848, -0.44325282060359905 
3.930000000003869, -0.44265953410921205 
3.94000000000389, -0.4419420037286237 
3.9500000000039113, -0.4411216440179735 
3.9600000000039324, -0.44023842242872585 
3.9700000000039535, -0.4393434327031538 
3.9800000000039746, -0.43848520414953074 
3.9900000000039957, -0.4376971708110994 
4.000000000004016, -0.4369923885536512 
4.010000000003993, -0.436366171830015 
4.02000000000397, -0.435803267051533 
4.030000000003946, -0.4352855264742702 
4.040000000003923, -0.43479749229979514 
4.0500000000039, -0.43432921970875216 
4.0600000000038765, -0.43387709822206244 
4.070000000003853, -0.43344398865257067 
4.08000000000383, -0.43303985763154856 
4.090000000003807, -0.4326837320490404 
4.100000000003783, -0.4324075338284298 
4.11000000000376, -0.43226216651922594 
4.120000000003737, -0.4323257051208823 
4.130000000003713, -0.43271174411936153 
4.14000000000369, -0.43357110006025995 
4.150000000003667, -0.4350701393550801 
4.1600000000036434, -0.437317330898659 
4.17000000000362, -0.4402211241650308 
4.180000000003597, -0.44334981540928037 
4.1900000000035735, -0.4460039723017637 
4.20000000000355, -0.4476200485333498 
4.210000000003527, -0.44815649388856854 
4.220000000003504, -0.4480096666048293 
4.23000000000348, -0.44762878151496527 
4.240000000003457, -0.44728033700930514 
4.250000000003434, -0.44705045245791875 
4.26000000000341, -0.4469307425752767 
4.270000000003387, -0.44688401309573544 
4.280000000003364, -0.44687416009587866 
4.2900000000033405, -0.44687450080601987 
4.300000000003317, -0.44686739498312306 
4.310000000003294, -0.44684167346337594 
4.320000000003271, -0.44679039892875216 
4.330000000003247, -0.446709755532955 
4.340000000003224, -0.4465992233367304 
4.350000000003201, -0.44646280634681756 
4.360000000003177, -0.44631053695358797 
4.370000000003154, -0.446158849127575 
4.380000000003131, -0.44602830494312257 
4.390000000003107, -0.44593821115405374 
4.400000000003084, -0.44589959799582246 
4.410000000003061, -0.4459095677050722 
4.4200000000030375, -0.4459500265896157 
4.430000000003014, -0.4459920639457639 
4.440000000002991, -0.4460043122034924 
4.450000000002968, -0.4459612017211376 
4.460000000002944, -0.44584725590582186 
4.470000000002921, -0.44565644293664386 
4.480000000002898, -0.4453884148705004 
4.490000000002874, -0.44504409994659155 
4.500000000002851, -0.4446220152228241 
4.510000000002828, -0.444115312925622 
4.520000000002804, -0.443508660654173 
4.530000000002781, -0.44277336467462397 
4.540000000002758, -0.44185819727315223 
4.5500000000027345, -0.4406721862075704 
4.560000000002711, -0.439056283306257 
4.570000000002688, -0.43675119342694335 
4.580000000002665, -0.4334022951382212 
4.590000000002641, -0.4286874823603708 
4.600000000002618, -0.4226015472180323 
4.610000000002595, -0.4156804639586971 
4.620000000002571, -0.40882785856779885 
4.630000000002548, -0.402835471373807 
4.640000000002525, -0.39807269254013045 
4.6500000000025015, -0.3945262498445417 
4.660000000002478, -0.39199140468998955 
4.670000000002455, -0.3902243625446994 
4.6800000000024315, -0.38901383147991775 
4.690000000002408, -0.38819958985068326 
4.700000000002385, -0.3876684032417415 
4.710000000002362, -0.38734390696565396 
4.720000000002338, -0.38717705042282297 
4.730000000002315, -0.3871389429036222 
4.740000000002292, -0.3872161727865181 
4.750000000002268, -0.387408154185248 
4.760000000002245, -0.3877259002025052 
4.770000000002222, -0.3881914209881899 
4.7800000000021985, -0.38883651828205357 
4.790000000002175, -0.3896990910681654 
4.800000000002152, -0.3908144674115592 
4.810000000002129, -0.3921996588965545 
4.820000000002105, -0.393831706039106 
4.830000000002082, -0.3956290519388349 
4.840000000002059, -0.39745306221995697 
4.850000000002035, -0.39914182353360694 
4.860000000002012, -0.4005630134249286 
4.870000000001989, -0.40165110556998285 
4.880000000001965, -0.4024073465463182 
4.890000000001942, -0.4028733178511118 
