t, s[1].omega / s[0].omega 
0, -1.7099970494748262 
0.009999999999999995, -1.7095687064084675 
0.019999999999999934, -1.7088754338843146 
0.029999999999999874, -1.7079206921357308 
0.04000000000000012, -1.7067340117009362 
0.050000000000000405, -1.705410240817653 
0.06000000000000069, -1.7041465170872196 
0.07000000000000098, -1.7031991481531388 
0.08000000000000126, -1.7027048956748572 
0.09000000000000155, -1.7025523658820085 
0.10000000000000184, -1.702506849938167 
0.11000000000000212, -1.7023920636333423 
0.12000000000000241, -1.7021203230927007 
0.130000000000002, -1.7016373366277215 
0.1400000000000009, -1.7008806742464333 
0.1499999999999998, -1.6997965753407591 
0.1599999999999987, -1.6984769288962798 
0.1699999999999976, -1.6974332459580144 
0.1799999999999965, -1.6975906633877815 
0.1899999999999954, -1.6993950597609264 
0.1999999999999943, -1.7021137409041844 
0.2099999999999932, -1.704657120415817 
0.2199999999999921, -1.706481280085389 
0.229999999999991, -1.707558938353739 
0.2399999999999899, -1.7080536789817546 
0.2499999999999888, -1.7081355597483239 
0.2599999999999877, -1.7079309505905826 
0.2699999999999866, -1.7075290386479438 
0.2799999999999855, -1.7070045791057893 
0.2899999999999844, -1.7064371043610282 
0.2999999999999833, -1.7059115464954382 
0.3099999999999822, -1.7054990388694449 
0.3199999999999811, -1.7052318001358606 
0.32999999999998, -1.7050836577675277 
0.3399999999999789, -1.704975697724916 
0.3499999999999778, -1.7048120601315424 
0.35999999999997667, -1.7045054540394056 
0.36999999999997557, -1.7039661265428259 
0.37999999999997447, -1.7030691813107837 
0.38999999999997337, -1.70162499966573 
0.39999999999997227, -1.6993949789623433 
0.40999999999997117, -1.696260702455275 
0.41999999999997006, -1.6926651584512538 
0.42999999999996896, -1.689933645537214 
0.43999999999996786, -1.689313719311874 
0.44999999999996676, -1.6904484535886486 
0.45999999999996566, -1.6919944966146108 
0.46999999999996456, -1.6931269328343101 
0.47999999999996346, -1.693712600205325 
0.48999999999996235, -1.6938741821185652 
0.49999999999996125, -1.6937444283508536 
0.5099999999999602, -1.6934165883599654 
0.519999999999959, -1.6929692450065477 
0.529999999999958, -1.692509444272487 
0.5399999999999568, -1.6921871817283165 
0.5499999999999557, -1.6921274819715006 
0.5599999999999546, -1.692329495148504 
0.5699999999999535, -1.692671658702351 
0.5799999999999524, -1.6930078472279164 
0.5899999999999513, -1.6932304439754708 
0.5999999999999502, -1.693274737883166 
0.6099999999999491, -1.693100721681711 
0.619999999999948, -1.6926747832946194 
0.6299999999999469, -1.6919590171870962 
0.6399999999999458, -1.6909118380290729 
0.6499999999999447, -1.689506238342807 
0.6599999999999436, -1.687778182271969 
0.6699999999999425, -1.6859081766590702 
0.6799999999999414, -1.684264052645079 
0.6899999999999403, -1.6832303966667266 
0.6999999999999392, -1.6828696418653233 
0.7099999999999381, -1.6828857479275083 
0.719999999999937, -1.6829480828351435 
0.7299999999999359, -1.682884665337971 
0.7399999999999348, -1.6826397148432783 
0.7499999999999337, -1.6821903486468988 
0.7599999999999326, -1.6815146057984087 
0.7699999999999315, -1.6806299715099295 
0.7799999999999304, -1.6797262664586246 
0.7899999999999293, -1.6793067102004655 
0.7999999999999282, -1.6799573484584787 
0.8099999999999271, -1.681691713138918 
0.819999999999926, -1.6838494610304804 
0.8299999999999249, -1.6857544024723334 
0.8399999999999238, -1.6871096033336266 
0.8499999999999227, -1.6879068655798595 
0.8599999999999216, -1.6882454927319042 
0.8699999999999205, -1.6882337612238114 
0.8799999999999194, -1.6879584844495645 
0.8899999999999183, -1.687486840939022 
0.8999999999999172, -1.6868809484193275 
0.9099999999999161, -1.6862130960926567 
0.919999999999915, -1.6855703632951808 
0.9299999999999139, -1.685041702056655 
0.9399999999999128, -1.6846847214233527 
0.9499999999999117, -1.6844852860782118 
0.9599999999999106, -1.6843571802040258 
0.9699999999999095, -1.6841923124359208 
0.9799999999999084, -1.683898050166808 
0.9899999999999073, -1.6833869839106288 
0.9999999999999062, -1.6825412146785084 
1.0099999999999052, -1.6811804332281006 
1.019999999999904, -1.6790781310006921 
1.029999999999903, -1.6761418174543163 
1.039999999999902, -1.672878521892633 
1.0499999999999008, -1.670689797410836 
1.0599999999998997, -1.6707752133229157 
1.0699999999998986, -1.6725910616179778 
1.0799999999998975, -1.6746583144216551 
1.0899999999998964, -1.6761365417357457 
1.0999999999998953, -1.6769353191839014 
1.1099999999998942, -1.6772262504207525 
1.119999999999893, -1.677178878804872 
1.129999999999892, -1.676908381406945 
1.1399999999998909, -1.6764990310309895 
1.1499999999998898, -1.6760439396482365 
1.1599999999998887, -1.675666187026732 
1.1699999999998876, -1.6754811920234058 
1.1799999999998865, -1.6755197404274882 
1.1899999999998854, -1.6757097893403565 
1.1999999999998843, -1.675936046112022 
1.2099999999998832, -1.67609595221477 
1.219999999999882, -1.6761159265117578 
1.229999999999881, -1.675943761685619 
1.2399999999998799, -1.6755336511617773 
1.2499999999998788, -1.674833778324782 
1.2599999999998777, -1.6737832787023872 
1.2699999999998766, -1.6723265297350622 
1.2799999999998755, -1.6704598138894333 
1.2899999999998744, -1.6683243530354086 
1.2999999999998733, -1.6662961345010683 
1.3099999999998722, -1.6648759566792013 
1.319999999999871, -1.6642887339955377 
1.32999999999987, -1.6642767044168945 
1.3399999999998689, -1.664421793867205 
1.3499999999998678, -1.66446983961946 
1.3599999999998666, -1.6643377579622007 
1.3699999999998655, -1.664009260645448 
1.3799999999998644, -1.6634752687319154 
1.3899999999998633, -1.66273976172658 
1.3999999999998622, -1.6619002192505152 
1.4099999999998611, -1.6612831371762238 
1.41999999999986, -1.6614169813937187 
1.429999999999859, -1.6625824201096584 
1.4399999999998578, -1.6644299716297524 
1.4499999999998567, -1.6663181659729307 
1.4599999999998556, -1.6678196388390323 
1.4699999999998545, -1.6688105354721305 
1.4799999999998534, -1.6693320665977915 
1.4899999999998523, -1.669472986364637 
1.4999999999998512, -1.6693174295523434 
1.5099999999998501, -1.6689326735022547 
1.519999999999849, -1.6683758403226014 
1.529999999999848, -1.6677081347249458 
1.5399999999998468, -1.6670066901501701 
1.5499999999998457, -1.6663640981711019 
1.5599999999998446, -1.6658678964017564 
1.5699999999998435, -1.665557625281139 
1.5799999999998424, -1.665389973465254 
1.5899999999998413, -1.665261930349128 
1.5999999999998402, -1.665067577960217 
1.6099999999998391, -1.664720033355105 
1.619999999999838, -1.6641291467070165 
1.629999999999837, -1.6631645749163895 
1.6399999999998358, -1.6616324206536757 
1.6499999999998347, -1.6593220003387554 
1.6599999999998336, -1.6562541934225599 
1.6699999999998325, -1.6531716530730407 
1.6799999999998314, -1.651562376978763 
1.6899999999998303, -1.6522417017757918 
1.6999999999998292, -1.6542839413760846 
1.709999999999828, -1.6562916188509136 
1.719999999999827, -1.6576401090057107 
1.729999999999826, -1.6583349772147806 
1.7399999999998248, -1.6585587748739616 
1.7499999999998237, -1.6584699559558498 
1.7599999999998226, -1.6581743055591853 
1.7699999999998215, -1.6577531399341385 
1.7799999999998204, -1.65730183717957 
1.7899999999998193, -1.6569452767976465 
1.7999999999998182, -1.656793283965208 
1.809999999999817, -1.6568655245624044 
1.819999999999816, -1.6570821682442964 
1.8299999999998149, -1.657326348446719 
1.8399999999998138, -1.657497337000303 
1.8499999999998127, -1.657524332059106 
1.8599999999998116, -1.657358004580826 
1.8699999999998105, -1.656956035891358 
1.8799999999998094, -1.6562719732158189 
1.8899999999998083, -1.655253245767246 
1.8999999999998072, -1.653854813279498 
1.909999999999806, -1.6520804236100326 
1.919999999999805, -1.650061727567125 
1.9299999999998039, -1.6481334296635382 
1.9399999999998028, -1.6467437520512536 
1.9499999999998017, -1.6461154759157839 
1.9599999999998006, -1.646043486535795 
1.9699999999997995, -1.6461492868211873 
1.9799999999997984, -1.6461820146667914 
1.9899999999997973, -1.6460484321128583 
1.9999999999997962, -1.6457231629656817 
2.0099999999998173, -1.6451886217836453 
2.0199999999998384, -1.6444331723940528 
2.0299999999998595, -1.643522038395825 
2.0399999999998806, -1.6427458226050025 
2.0499999999999017, -1.6426703788981587 
2.059999999999923, -1.6437353275469717 
2.069999999999944, -1.6457066342250415 
2.079999999999965, -1.647873883848889 
2.089999999999986, -1.649675238634901 
2.100000000000007, -1.6509122407523613 
2.1100000000000283, -1.6516144952208567 
2.1200000000000494, -1.6518862992890795 
2.1300000000000705, -1.6518314204277158 
2.1400000000000916, -1.6515321753651815 
2.1500000000001127, -1.6510540378095253 
2.160000000000134, -1.6504600687014073 
2.170000000000155, -1.6498236319180073 
2.180000000000176, -1.6492285733138328 
2.190000000000197, -1.6487529150727418 
2.2000000000002182, -1.6484389491704863 
2.2100000000002393, -1.6482639730325577 
2.2200000000002604, -1.6481458367927917 
2.2300000000002815, -1.6479854565139918 
2.2400000000003026, -1.647696072343021 
2.2500000000003237, -1.6471934370797485 
2.260000000000345, -1.6463644524058156 
2.270000000000366, -1.6450375573990879 
2.280000000000387, -1.6429879558901697 
2.290000000000408, -1.6400630453590679 
2.3000000000004293, -1.6365452594419554 
2.3100000000004504, -1.6335369500612391 
2.3200000000004715, -1.632399089271803 
2.3300000000004926, -1.63324299788555 
2.3400000000005137, -1.6348811005576838 
2.3500000000005348, -1.6362772098222507 
2.360000000000556, -1.6371165362286466 
2.370000000000577, -1.637470200757312 
2.380000000000598, -1.6374794175926144 
2.390000000000619, -1.6372522752076324 
2.4000000000006403, -1.6368650275607515 
2.4100000000006614, -1.6363976920961463 
2.4200000000006825, -1.6359715844921578 
2.4300000000007036, -1.6357408510042266 
2.4400000000007247, -1.6358040798559972 
2.450000000000746, -1.6361217317368588 
2.460000000000767, -1.6365526951738083 
2.470000000000788, -1.6369514755408248 
2.480000000000809, -1.6372183418978832 
2.49000000000083, -1.6372972628853866 
2.5000000000008513, -1.637157225328945 
2.5100000000008724, -1.6367760850905904 
2.5200000000008935, -1.6361323910974832 
2.5300000000009146, -1.6352066506897032 
2.5400000000009357, -1.6339947787751217 
2.550000000000957, -1.632539161591053 
2.560000000000978, -1.6309763309091305 
2.570000000000999, -1.6295616638747092 
2.58000000000102, -1.6285762546957223 
2.5900000000010412, -1.628115148889809 
2.6000000000010624, -1.6280087598367785 
2.6100000000010835, -1.6280003326188672 
2.6200000000011046, -1.6279172607255128 
2.6300000000011257, -1.6276806420522505 
2.6400000000011468, -1.627246207912492 
2.650000000001168, -1.6265630049806679 
2.660000000001189, -1.6255782436854342 
2.67000000000121, -1.6243283480622974 
2.680000000001231, -1.6231549070505171 
2.6900000000012523, -1.6228361911690563 
2.7000000000012734, -1.6240685184081365 
2.7100000000012945, -1.626591985636992 
2.7200000000013156, -1.629393706680501 
2.7300000000013367, -1.6316743526034159 
2.740000000001358, -1.6331924801406816 
2.750000000001379, -1.634035872092662 
2.7600000000014, -1.6343770277147478 
2.770000000001421, -1.6343666229132872 
2.780000000001442, -1.634113327526876 
2.7900000000014633, -1.633697299239513 
2.8000000000014844, -1.6331919038712979 
2.8100000000015055, -1.6326774636508545 
2.8200000000015266, -1.6322336965197366 
2.8300000000015477, -1.6319152529696215 
2.840000000001569, -1.6317317771471853 
2.85000000000159, -1.6316437709307732 
2.860000000001611, -1.6315765846125927 
2.870000000001632, -1.6314470079857304 
2.8800000000016532, -1.631179069099796 
2.8900000000016743, -1.6306958420244797 
2.9000000000016954, -1.6298975578767603 
2.9100000000017165, -1.6286424447077448 
2.9200000000017377, -1.6267517713806867 
2.9300000000017588, -1.624084855564862 
2.94000000000178, -1.6207506670474328 
2.950000000001801, -1.6173966961500377 
2.960000000001822, -1.6150970167196999 
2.970000000001843, -1.6144431668780066 
2.9800000000018643, -1.614940097582302 
2.9900000000018854, -1.615710615747955 
3.0000000000019065, -1.6162619472542885 
3.0100000000019276, -1.6164920205105833 
3.0200000000019487, -1.6164465264817462 
3.03000000000197, -1.6161850582343358 
3.040000000001991, -1.6157536679858733 
3.050000000002012, -1.6152115109511964 
3.060000000002033, -1.6146863872544508 
3.070000000002054, -1.614404938811132 
3.0800000000020753, -1.614591321911922 
3.0900000000020964, -1.6152664006566735 
3.1000000000021175, -1.6162114961574947 
3.1100000000021386, -1.6171502532593025 
3.1200000000021597, -1.6178983668891047 
3.130000000002181, -1.6183783165759185 
3.140000000002202, -1.6185768197190247 
3.150000000002223, -1.6185074582362806 
3.160000000002244, -1.6181909042217566 
3.1700000000022652, -1.6176486443833256 
3.1800000000022863, -1.6169064032084097 
3.1900000000023074, -1.6160056527107725 
3.2000000000023285, -1.615020427935186 
3.2100000000023496, -1.6140693476548922 
3.2200000000023707, -1.6132973931073558 
3.230000000002392, -1.6128036171722244 
3.240000000002413, -1.6125635067595816 
3.250000000002434, -1.6124480300413897 
3.260000000002455, -1.612317607434298 
3.2700000000024763, -1.6120740518522978 
3.2800000000024974, -1.6116444516637596 
3.2900000000025185, -1.610942449579253 
3.3000000000025396, -1.6098403205229357 
3.3100000000025607, -1.60818543865166 
3.3200000000025818, -1.6059458220701988 
3.330000000002603, -1.6035692538119573 
3.340000000002624, -1.6022192329663596 
3.350000000002645, -1.6029570238416855 
3.360000000002666, -1.6054069308167371 
3.3700000000026873, -1.6081816345872462 
3.3800000000027084, -1.6103187934680687 
3.3900000000027295, -1.611625139163444 
3.4000000000027506, -1.6122676357563623 
3.4100000000027717, -1.6124569396910313 
3.420000000002793, -1.612348498980199 
3.430000000002814, -1.6120447329384597 
3.440000000002835, -1.6116255968230555 
3.450000000002856, -1.6111797663888574 
3.460000000002877, -1.6108127025319934 
3.4700000000028983, -1.6106114262198061 
3.4800000000029194, -1.610594276812435 
3.4900000000029405, -1.6107057866745176 
3.5000000000029616, -1.610855923825055 
3.5100000000029827, -1.6109569611055818 
3.520000000003004, -1.6109387592829438 
3.530000000003025, -1.61074689818116 
3.540000000003046, -1.6103320470292481 
3.550000000003067, -1.6096396854813648 
3.5600000000030882, -1.6086075168309921 
3.5700000000031094, -1.6071775844479395 
3.5800000000031305, -1.6053344261618203 
3.5900000000031516, -1.6031808658670375 
3.6000000000031727, -1.6010238453659582 
3.6100000000031938, -1.599333086368444 
3.620000000003215, -1.598438200959365 
3.630000000003236, -1.598237158286931 
3.640000000003257, -1.5983471016055777 
3.650000000003278, -1.5984517644762193 
3.6600000000032993, -1.5984115411995021 
3.6700000000033204, -1.598188744615939 
3.6800000000033415, -1.5977697445901649 
3.6900000000033626, -1.597137344237803 
3.7000000000033837, -1.5962978040595888 
3.710000000003405, -1.5953812644792362 
3.720000000003426, -1.5947817064187206 
3.730000000003447, -1.5950830332637689 
3.740000000003468, -1.5965486009372842 
3.750000000003489, -1.5987542995756727 
3.7600000000035103, -1.600981491175539 
3.7700000000035314, -1.6027561552670122 
3.7800000000035525, -1.6039454100283699 
3.7900000000035736, -1.6046060427240747 
3.8000000000035947, -1.6048500558019079 
3.810000000003616, -1.60478248435434 
3.820000000003637, -1.604485830820615 
3.830000000003658, -1.6040264774406037 
3.840000000003679, -1.6034690019597715 
3.8500000000037002, -1.6028867850150958 
3.8600000000037213, -1.6023583026687855 
3.8700000000037424, -1.601948558887252 
3.8800000000037635, -1.6016852844462022 
3.8900000000037847, -1.6015420802833678 
3.9000000000038058, -1.6014460111355082 
3.910000000003827, -1.6013092367485604 
3.920000000003848, -1.601052070469094 
3.930000000003869, -1.6005974202444648 
3.94000000000389, -1.599847276449987 
3.9500000000039113, -1.598658860513462 
3.9600000000039324, -1.5968410418788168 
3.9700000000039535, -1.594216925911057 
3.9800000000039746, -1.5908305443980546 
3.9900000000039957, -1.5872765515989369 
4.000000000004016, -1.5846981338248787 
4.010000000003993, -1.5838950248464925 
4.02000000000397, -1.5844843564417725 
4.030000000003946, -1.5854872166769607 
4.040000000003923, -1.5862732083632636 
4.0500000000039, -1.5866848642981524 
4.0600000000038765, -1.5867712669406417 
4.070000000003853, -1.586611355696725 
4.08000000000383, -1.5862644304238513 
4.090000000003807, -1.5857827718963131 
4.100000000003783, -1.5852545153310613 
4.11000000000376, -1.5848481328277253 
4.120000000003737, -1.58478341677166 
4.130000000003713, -1.5851811933123714 
4.14000000000369, -1.5859427576091412 
4.150000000003667, -1.5868301553648725 
4.1600000000036434, -1.5876283401131863 
4.17000000000362, -1.5882150848646555 
4.180000000003597, -1.5885448284065968 
4.1900000000035735, -1.5886133210109314 
4.20000000000355, -1.5884327952168231 
4.210000000003527, -1.5880201779601373 
4.220000000003504, -1.587395105940357 
4.23000000000348, -1.586585856944417 
4.240000000003457, -1.5856420516897411 
4.250000000003434, -1.5846499401350238 
4.26000000000341, -1.5837367879949569 
4.270000000003387, -1.5830380379402675 
4.280000000003364, -1.582619557569317 
4.2900000000033405, -1.5824240631948683 
4.300000000003317, -1.5823165113913997 
4.310000000003294, -1.5821701698181205 
4.320000000003271, -1.581897845347383 
4.330000000003247, -1.5814283484392095 
4.340000000003224, -1.580669873913097 
4.350000000003201, -1.5794858145093746 
4.360000000003177, -1.5777157666542532 
4.370000000003154, -1.5753253002551306 
4.380000000003131, -1.572758475500377 
4.390000000003107, -1.5711609046173254 
4.400000000003084, -1.5716046001968196 
4.410000000003061, -1.573800415380998 
4.4200000000030375, -1.5764281694226587 
4.430000000003014, -1.578508657771989 
4.440000000002991, -1.5798046888311785 
4.450000000002968, -1.5804550151818049 
4.460000000002944, -1.5806582489253767 
4.470000000002921, -1.5805651594097778 
4.480000000002898, -1.5802752314778645 
4.490000000002874, -1.5798649268598888 
4.500000000002851, -1.5794203789437042 
4.510000000002828, -1.579051989553925 
4.520000000002804, -1.5788635755387628 
4.530000000002781, -1.5788911103552883 
4.540000000002758, -1.5790813614661343 
4.5500000000027345, -1.5793331595500364 
4.560000000002711, -1.5795472604644858 
4.570000000002688, -1.5796483657102287 
4.580000000002665, -1.579584432634948 
4.590000000002641, -1.5793166586081107 
4.600000000002618, -1.578809628993377 
4.610000000002595, -1.5780271676386808 
4.620000000002571, -1.5769371536018233 
4.630000000002548, -1.5755295738281716 
4.640000000002525, -1.5738537652091986 
4.6500000000025015, -1.5720706709534922 
4.660000000002478, -1.5704714831246893 
4.670000000002455, -1.5693647575308334 
4.6800000000024315, -1.5688501672983164 
4.690000000002408, -1.5687441235705855 
4.700000000002385, -1.568768697186905 
4.710000000002362, -1.5687344943952977 
4.720000000002338, -1.5685570041712031 
4.730000000002315, -1.568197075882834 
4.740000000002292, -1.5676145202489118 
4.750000000002268, -1.566758165526359 
4.760000000002245, -1.565613884893934 
4.770000000002222, -1.5643543807428748 
4.7800000000021985, -1.5635378333456216 
4.790000000002175, -1.5639673631837938 
4.800000000002152, -1.565932625477193 
4.810000000002129, -1.5687650286631734 
4.820000000002105, -1.5714892392912105 
4.830000000002082, -1.5735496978632448 
4.840000000002059, -1.5748604441809078 
4.850000000002035, -1.5755542685515063 
4.860000000002012, -1.5758000825339342 
4.870000000001989, -1.575734520939315 
4.880000000001965, -1.575455168421409 
4.890000000001942, -1.575036926332708 
4.900000000001919, -1.5745526643633665 
4.9100000000018955, -1.5740833794961644 
4.920000000001872, -1.5737055480906579 
4.930000000001849, -1.5734635199763842 
4.940000000001826, -1.573352990101691 
