t, s[1].omega / s[0].omega 
0, -0.6399977133657921 
0.009999999999999995, -0.6397632011693755 
0.019999999999999934, -0.6395135871868771 
0.029999999999999874, -0.6392402164120745 
0.04000000000000012, -0.6389337048278219 
0.050000000000000405, -0.6385882788659183 
0.06000000000000069, -0.6382041561774916 
0.07000000000000098, -0.6377879439137932 
0.08000000000000126, -0.6373523670612731 
0.09000000000000155, -0.6369167569653524 
0.10000000000000184, -0.6365091404232739 
0.11000000000000212, -0.6361701564606642 
0.12000000000000241, -0.6359585987295491 
0.130000000000002, -0.6359579683860225 
0.1400000000000009, -0.6362827541958682 
0.1499999999999998, -0.6370819551665632 
0.1599999999999987, -0.6385353378738154 
0.1699999999999976, -0.6408350269139651 
0.1799999999999965, -0.6441426151463979 
0.1899999999999954, -0.6485153675635531 
0.1999999999999943, -0.6538147525823222 
0.2099999999999932, -0.6596505265463771 
0.2199999999999921, -0.6654395861582973 
0.229999999999991, -0.6705989653220639 
0.2399999999999899, -0.6747580719578051 
0.2499999999999888, -0.6778358926391184 
0.2599999999999877, -0.6799624138791556 
0.2699999999999866, -0.6813491058371843 
0.2799999999999855, -0.6821979477811311 
0.2899999999999844, -0.6826648723350263 
0.2999999999999833, -0.6828560516905936 
0.3099999999999822, -0.6828357304792358 
0.3199999999999811, -0.6826345529752091 
0.32999999999998, -0.6822544554837445 
0.3399999999999789, -0.681669313450054 
0.3499999999999778, -0.6808218149211778 
0.35999999999997667, -0.6796184981520466 
0.36999999999997557, -0.677928218666665 
0.37999999999997447, -0.6755951045289492 
0.38999999999997337, -0.6724811883004346 
0.39999999999997227, -0.6685431749593236 
0.40999999999997117, -0.6639110994855904 
0.41999999999997006, -0.6589017292089375 
0.42999999999996896, -0.6539301365420684 
0.43999999999996786, -0.6493720364264045 
0.44999999999996676, -0.6454684707434991 
0.45999999999996566, -0.6423103586856059 
0.46999999999996456, -0.639875768891629 
0.47999999999996346, -0.6380789567551489 
0.48999999999996235, -0.6368088647908097 
0.49999999999996125, -0.635952870598034 
0.5099999999999602, -0.6354091482922561 
0.519999999999959, -0.63509187033448 
0.529999999999958, -0.6349322684956981 
0.5399999999999568, -0.6348774158901176 
0.5499999999999557, -0.6348879169588151 
0.5599999999999546, -0.6349353446171258 
0.5699999999999535, -0.6350000276598193 
0.5799999999999524, -0.6350695111329249 
0.5899999999999513, -0.6351375908045565 
0.5999999999999502, -0.6352032928521145 
0.6099999999999491, -0.635268842789676 
0.619999999999948, -0.6353360705147656 
0.6299999999999469, -0.6354020089980824 
0.6399999999999458, -0.6354558665766684 
0.6499999999999447, -0.6354796484381663 
0.6599999999999436, -0.6354527852727332 
0.6699999999999425, -0.6353584091137299 
0.6799999999999414, -0.6351878279193608 
0.6899999999999403, -0.6349413904775573 
0.6999999999999392, -0.634626633947375 
0.7099999999999381, -0.634255999578204 
0.719999999999937, -0.6338460413332782 
0.7299999999999359, -0.6334190916998885 
0.7399999999999348, -0.6330077489142064 
0.7499999999999337, -0.6326623890552596 
0.7599999999999326, -0.6324617431972998 
0.7699999999999315, -0.6325257971262523 
0.7799999999999304, -0.6330280936517356 
0.7899999999999293, -0.6342000203405496 
0.7999999999999282, -0.6363125386207005 
0.8099999999999271, -0.6396143870628381 
0.819999999999926, -0.6442131170510912 
0.8299999999999249, -0.6499291486853652 
0.8399999999999238, -0.6562302677268053 
0.8499999999999227, -0.6623698520566685 
0.8599999999999216, -0.6676918706618813 
0.8699999999999205, -0.6718691321146895 
0.8799999999999194, -0.6749089841900208 
0.8899999999999183, -0.6770042880465108 
0.8999999999999172, -0.6783886986646681 
0.9099999999999161, -0.6792624504409619 
0.919999999999915, -0.6797729621639713 
0.9299999999999139, -0.6800193979887398 
0.9399999999999128, -0.6800626855489087 
0.9499999999999117, -0.679933824248205 
0.9599999999999106, -0.6796386915545428 
0.9699999999999095, -0.6791594868500319 
0.9799999999999084, -0.678453859567169 
0.9899999999999073, -0.677454099495955 
0.9999999999999062, -0.6760712314856796 
1.0099999999999052, -0.6742115495288679 
1.019999999999904, -0.6718115306204526 
1.029999999999903, -0.6688844030513454 
1.039999999999902, -0.6655510928332348 
1.0499999999999008, -0.6620244771290682 
1.0599999999998997, -0.6585479475169944 
1.0699999999998986, -0.6553273866578654 
1.0799999999998975, -0.6524943965334685 
1.0899999999998964, -0.6501063513312789 
1.0999999999998953, -0.6481660554494535 
1.1099999999998942, -0.6466436974483891 
1.119999999999893, -0.6454932172703169 
1.129999999999892, -0.6446623834847806 
1.1399999999998909, -0.6440985202808462 
1.1499999999998898, -0.643751821351594 
1.1599999999998887, -0.6435774000007821 
1.1699999999998876, -0.6435365527493875 
1.1799999999998865, -0.6435973917029447 
1.1899999999998854, -0.643734950628078 
1.1999999999998843, -0.6439309082222145 
1.2099999999998832, -0.6441730233042261 
1.219999999999882, -0.6444541487607436 
1.229999999999881, -0.6447703714216948 
1.2399999999998799, -0.64511775711638 
1.2499999999998788, -0.6454878195505118 
1.2599999999998777, -0.6458632224381186 
1.2699999999998766, -0.6462164489372846 
1.2799999999998755, -0.6465136294615406 
1.2899999999998744, -0.6467227339224042 
1.2999999999998733, -0.6468219093408779 
1.3099999999998722, -0.6468033783208222 
1.319999999999871, -0.6466716971767393 
1.32999999999987, -0.6464388827602308 
1.3399999999998689, -0.6461198602503131 
1.3499999999998678, -0.6457303486767163 
1.3599999999998666, -0.6452878205939161 
1.3699999999998655, -0.6448156332729408 
1.3799999999998644, -0.644350614334129 
1.3899999999998633, -0.643954603261247 
1.3999999999998622, -0.6437298762882795 
1.4099999999998611, -0.643835863463661 
1.41999999999986, -0.6444985707146751 
1.429999999999859, -0.6459941246701851 
1.4399999999998578, -0.6485795369450758 
1.4499999999998567, -0.6523575734844623 
1.4599999999998556, -0.6571264420581561 
1.4699999999998545, -0.6623510599105562 
1.4799999999998534, -0.6673578475665461 
1.4899999999998523, -0.6716333146723057 
1.4999999999998512, -0.6749764977704726 
1.5099999999998501, -0.6774365929851873 
1.519999999999849, -0.6791729848056871 
1.529999999999848, -0.6803567483086421 
1.5399999999998468, -0.6811304603361287 
1.5499999999998457, -0.6816004750136683 
1.5599999999998446, -0.6818405785081534 
1.5699999999998435, -0.6818975912088276 
1.5799999999998424, -0.6817957713895051 
1.5899999999998413, -0.6815392359371253 
1.5999999999998402, -0.6811125223325228 
1.6099999999998391, -0.6804801814011902 
1.619999999999838, -0.6795875795581349 
1.629999999999837, -0.6783669917822619 
1.6399999999998358, -0.6767541728612393 
1.6499999999998347, -0.6747171105163756 
1.6599999999998336, -0.6722875513813891 
1.6699999999998325, -0.6695741113226172 
1.6799999999998314, -0.6667409806097396 
1.6899999999998303, -0.6639617531275638 
1.6999999999998292, -0.6613769880346513 
1.709999999999828, -0.6590755796784988 
1.719999999999827, -0.6570986069149025 
1.729999999999826, -0.655453256049302 
1.7399999999998248, -0.6541265568858157 
1.7499999999998237, -0.6530948872012992 
1.7599999999998226, -0.6523293869827074 
1.7699999999998215, -0.6517988375832937 
1.7799999999998204, -0.6514714249584863 
1.7899999999998193, -0.6513161894817558 
1.7999999999998182, -0.6513044051049688 
1.809999999999817, -0.6514108113444481 
1.819999999999816, -0.6516145340479556 
1.8299999999998149, -0.651899558635815 
1.8399999999998138, -0.6522546091581727 
1.8499999999998127, -0.6526721467018513 
1.8599999999998116, -0.6531460291064304 
1.8699999999998105, -0.6536675278556257 
1.8799999999998094, -0.6542203019272054 
1.8899999999998083, -0.654776494637041 
1.8999999999998072, -0.6552971648325612 
1.909999999999806, -0.655738938607574 
1.919999999999805, -0.6560647243527278 
1.9299999999998039, -0.6562527113438185 
1.9399999999998028, -0.656298776344356 
1.9499999999998017, -0.656212308513658 
1.9599999999998006, -0.6560093651254032 
1.9699999999997995, -0.6557071201311204 
1.9799999999997984, -0.6553214514932031 
1.9899999999997973, -0.6548678648250147 
1.9999999999997962, -0.6543656037410785 
2.0099999999998173, -0.6538452232196388 
2.0199999999998384, -0.6533602877002658 
2.0299999999998595, -0.6530033116133449 
2.0399999999998806, -0.652923276978025 
2.0499999999999017, -0.6533353020864427 
2.059999999999923, -0.6545021081002279 
2.069999999999944, -0.6566597633960314 
2.079999999999965, -0.6598812111014123 
2.089999999999986, -0.6639443606495694 
2.100000000000007, -0.66834386944553 
2.1100000000000283, -0.6725050337340379 
2.1200000000000494, -0.6760359915901722 
2.1300000000000705, -0.678809610829793 
2.1400000000000916, -0.680879701812416 
2.1500000000001127, -0.6823689949858209 
2.160000000000134, -0.6834038823355713 
2.170000000000155, -0.684090750458539 
2.180000000000176, -0.6845112971616876 
2.190000000000197, -0.6847238773832707 
2.2000000000002182, -0.6847660298300564 
2.2100000000002393, -0.6846565217415636 
2.2200000000002604, -0.6843963050283552 
2.2300000000002815, -0.6839683791306166 
2.2400000000003026, -0.6833373709210879 
2.2500000000003237, -0.682451006748025 
2.260000000000345, -0.6812473815817199 
2.270000000000366, -0.6796723312949606 
2.280000000000387, -0.6777067342340028 
2.290000000000408, -0.6753928186216797 
2.3000000000004293, -0.6728402144831661 
2.3100000000004504, -0.6702014122377118 
2.3200000000004715, -0.6676296722002815 
2.3300000000004926, -0.6652447546185918 
2.3400000000005137, -0.6631205775897798 
2.3500000000005348, -0.6612909092434214 
2.360000000000556, -0.6597619623152154 
2.370000000000577, -0.6585238054677847 
2.380000000000598, -0.6575578353979006 
2.390000000000619, -0.6568408039696711 
2.4000000000006403, -0.656346869549257 
2.4100000000006614, -0.6560489192601181 
2.4200000000006825, -0.6559198331277176 
2.4300000000007036, -0.6559338489478937 
2.4400000000007247, -0.6560678885075877 
2.450000000000746, -0.6563026185152891 
2.460000000000767, -0.6566230394510634 
2.470000000000788, -0.6570183795798139 
2.480000000000809, -0.6574809447912429 
2.49000000000083, -0.6580034669234862 
2.5000000000008513, -0.6585747876178288 
2.5100000000008724, -0.659174796485955 
2.5200000000008935, -0.6597711599245624 
2.5300000000009146, -0.6603211169501428 
2.5400000000009357, -0.6607796342863246 
2.550000000000957, -0.6611107360470456 
2.560000000000978, -0.6612957166005682 
2.570000000000999, -0.6613339807981391 
2.58000000000102, -0.6612376203584519 
2.5900000000010412, -0.6610241721481285 
2.6000000000010624, -0.6607113249718958 
2.6100000000010835, -0.6603150193818657 
2.6200000000011046, -0.6598509206484992 
2.6300000000011257, -0.65933911553176 
2.6400000000011468, -0.6588124043442357 
2.650000000001168, -0.6583288928606114 
2.660000000001189, -0.6579887924058434 
2.67000000000121, -0.6579519853564761 
2.680000000001231, -0.6584452765072748 
2.6900000000012523, -0.6597368944438957 
2.7000000000012734, -0.6620510633628572 
2.7100000000012945, -0.6654243509595069 
2.7200000000013156, -0.6695858418212801 
2.7300000000013367, -0.6740013535159269 
2.740000000001358, -0.6781083005969625 
2.750000000001379, -0.6815512250509236 
2.7600000000014, -0.6842335013339039 
2.770000000001421, -0.6862227397225993 
2.780000000001442, -0.6876445512948343 
2.7900000000014633, -0.6886241880939703 
2.8000000000014844, -0.689265892159699 
2.8100000000015055, -0.6896489741651917 
2.8200000000015266, -0.6898292807599521 
2.8300000000015477, -0.6898417014689172 
2.840000000001569, -0.689702104167833 
2.85000000000159, -0.6894080953402091 
2.860000000001611, -0.6889386645689407 
2.870000000001632, -0.6882537004510696 
2.8800000000016532, -0.6872958949362633 
2.8900000000016743, -0.6859993808821695 
2.9000000000016954, -0.6843095039612533 
2.9100000000017165, -0.6822125067855833 
2.9200000000017377, -0.6797619579705927 
2.9300000000017588, -0.6770813307999475 
2.94000000000178, -0.6743343866535221 
2.950000000001801, -0.6716801386727579 
2.960000000001822, -0.6692390721996069 
2.970000000001843, -0.6670829575343704 
2.9800000000018643, -0.6652423122598979 
2.9900000000018854, -0.6637197522141096 
3.0000000000019065, -0.6625015039954799 
3.0100000000019276, -0.661564821479842 
3.0200000000019487, -0.6608820793076072 
3.03000000000197, -0.6604230672898432 
3.040000000001991, -0.6601566530686221 
3.050000000002012, -0.6600523570473853 
3.060000000002033, -0.6600818939396743 
3.070000000002054, -0.6602205038848893 
3.0800000000020753, -0.6604478810479841 
3.0900000000020964, -0.6607485677715453 
3.1000000000021175, -0.6611116604893702 
3.1100000000021386, -0.6615295156665308 
3.1200000000021597, -0.6619950273831092 
3.130000000002181, -0.6624973897699933 
3.140000000002202, -0.66301738502089 
3.150000000002223, -0.6635247376293126 
3.160000000002244, -0.663980458097425 
3.1700000000022652, -0.6643448268109279 
3.1800000000022863, -0.6645875285033019 
3.1900000000023074, -0.6646942481730249 
3.2000000000023285, -0.6646665534240991 
3.2100000000023496, -0.664516686980783 
3.2200000000023707, -0.66426136005181 
3.230000000002392, -0.6639177027088837 
3.240000000002413, -0.6635025203253366 
3.250000000002434, -0.6630349044789944 
3.260000000002455, -0.6625422566925989 
3.2700000000024763, -0.6620702112442325 
3.2800000000024974, -0.6616969588087352 
3.2900000000025185, -0.661551068634875 
3.3000000000025396, -0.6618276337643672 
3.3100000000025607, -0.6627890395702469 
3.3200000000025818, -0.6647257121593566 
3.330000000002603, -0.6678514906175164 
3.340000000002624, -0.6721456375162838 
3.350000000002645, -0.6772395457697313 
3.360000000002666, -0.6824929786330356 
3.3700000000026873, -0.687266946481863 
3.3800000000027084, -0.6911786000651848 
3.3900000000027295, -0.6941482819802747 
3.4000000000027506, -0.6962859061629436 
3.4100000000027717, -0.6977639983369452 
3.420000000002793, -0.6987461000807327 
3.430000000002814, -0.699362071162292 
3.440000000002835, -0.6997057228003764 
3.450000000002856, -0.6998394812100827 
3.460000000002877, -0.6997995982307368 
3.4700000000028983, -0.699599679182531 
3.4800000000029194, -0.6992319887162696 
3.4900000000029405, -0.6986668688972443 
3.5000000000029616, -0.6978516863642178 
3.5100000000029827, -0.696712642238171 
3.520000000003004, -0.6951652515047045 
3.530000000003025, -0.6931395837779103 
3.540000000003046, -0.6906189499172705 
3.550000000003067, -0.687674400224313 
3.5600000000030882, -0.6844671741224001 
3.5700000000031094, -0.6812083267151464 
3.5800000000031305, -0.6780990154852916 
3.5900000000031516, -0.675287120904251 
3.6000000000031727, -0.6728553425758941 
3.6100000000031938, -0.6708318285602156 
3.620000000003215, -0.6692078604049805 
3.630000000003236, -0.667953069889148 
3.640000000003257, -0.6670256968736269 
3.650000000003278, -0.6663789256534827 
3.6600000000032993, -0.6659649775658665 
3.6700000000033204, -0.6657380631698162 
3.6800000000033415, -0.6656566002398004 
3.6900000000033626, -0.6656847190186271 
3.7000000000033837, -0.6657930316857429 
3.710000000003405, -0.6659587698152609 
3.720000000003426, -0.6661654761165277 
3.730000000003447, -0.6664023207956846 
3.740000000003468, -0.6666628019765806 
3.750000000003489, -0.6669423411803874 
3.7600000000035103, -0.6672345671296264 
3.7700000000035314, -0.6675271603346572 
3.7800000000035525, -0.6677994483341346 
3.7900000000035736, -0.6680240868181586 
3.8000000000035947, -0.6681731058561464 
3.810000000003616, -0.6682254270892458 
3.820000000003637, -0.6681716488456161 
3.830000000003658, -0.6680140339134002 
3.840000000003679, -0.667763092493016 
3.8500000000037002, -0.6674337882459954 
3.8600000000037213, -0.6670437148702724 
3.8700000000037424, -0.6666142437181046 
3.8800000000037635, -0.6661749018891886 
3.8900000000037847, -0.6657711492383693 
3.9000000000038058, -0.6654756864220288 
3.910000000003827, -0.6654027090161162 
3.920000000003848, -0.6657222989444996 
3.930000000003869, -0.6666675333999506 
3.94000000000389, -0.6685197148932543 
3.9500000000039113, -0.6715506231252625 
3.9600000000039324, -0.6759068010865634 
3.9700000000039535, -0.6814606435850667 
3.9800000000039746, -0.687726876512184 
3.9900000000039957, -0.6939701434252457 
4.000000000004016, -0.699494457768417 
4.010000000003993, -0.7039044846904947 
4.02000000000397, -0.7071511307731069 
4.030000000003946, -0.7094018018058161 
4.040000000003923, -0.7108896071528301 
4.0500000000039, -0.7118253750099646 
4.0600000000038765, -0.7123686842189018 
4.070000000003853, -0.7126284371604092 
4.08000000000383, -0.712672078350725 
4.090000000003807, -0.7125342093854063 
4.100000000003783, -0.712221703730059 
4.11000000000376, -0.7117149033023284 
4.120000000003737, -0.7109655028976334 
4.130000000003713, -0.7098930232640288 
4.14000000000369, -0.7083846034623102 
4.150000000003667, -0.7063073758183072 
4.1600000000036434, -0.703545134817677 
4.17000000000362, -0.7000612020273282 
4.180000000003597, -0.6959607959012164 
4.1900000000035735, -0.6915018391441332 
4.20000000000355, -0.6870278075873291 
4.210000000003527, -0.6828612916868952 
4.220000000003504, -0.6792256474789112 
4.23000000000348, -0.6762251105449048 
4.240000000003457, -0.6738669605432565 
4.250000000003434, -0.6720966599200306 
4.26000000000341, -0.6708283553498166 
4.270000000003387, -0.6699660006054857 
4.280000000003364, -0.6694163893103046 
4.2900000000033405, -0.6690964676294551 
4.300000000003317, -0.6689367065734693 
4.310000000003294, -0.6688817284069667 
4.320000000003271, -0.6688891500729979 
4.330000000003247, -0.6689275534800625 
4.340000000003224, -0.668974404813556 
4.350000000003201, -0.6690145021356526 
4.360000000003177, -0.6690390770778565 
4.370000000003154, -0.6690450610526326 
4.380000000003131, -0.6690335634840177 
4.390000000003107, -0.6690068657278184 
4.400000000003084, -0.6689644586118022 
4.410000000003061, -0.6689000673731298 
4.4200000000030375, -0.6688017590187652 
4.430000000003014, -0.6686555018368114 
4.440000000002991, -0.6684501993401214 
4.450000000002968, -0.6681813920298573 
4.460000000002944, -0.6678522480122814 
4.470000000002921, -0.6674726398559647 
4.480000000002898, -0.6670581680040342 
4.490000000002874, -0.6666306591626319 
4.500000000002851, -0.6662208338213145 
4.510000000002828, -0.6658731883006815 
4.520000000002804, -0.6656526948887217 
4.530000000002781, -0.6656523801762966 
4.540000000002758, -0.6659998984798875 
4.5500000000027345, -0.6668596798947217 
4.560000000002711, -0.6684250273045493 
4.570000000002688, -0.6708920469653534 
4.580000000002665, -0.6744066717194803 
4.590000000002641, -0.6789834749176562 
4.600000000002618, -0.6844196611052797 
4.610000000002595, -0.6902657763498977 
4.620000000002571, -0.6959217323446412 
4.630000000002548, -0.7008441689206417 
4.640000000002525, -0.7047313782246496 
4.6500000000025015, -0.7075588828413756 
4.660000000002478, -0.70948212581957 
4.670000000002455, -0.7107136572922022 
4.6800000000024315, -0.7114457148622957 
4.690000000002408, -0.7118225166777694 
4.700000000002385, -0.7119398502193612 
4.710000000002362, -0.7118531890132691 
4.720000000002338, -0.7115851383375811 
4.730000000002315, -0.711129012452297 
4.740000000002292, -0.7104478320947913 
4.750000000002268, -0.7094690869985015 
4.760000000002245, -0.7080771969823535 
4.770000000002222, -0.7061096825524626 
4.7800000000021985, -0.7033707767087699 
4.790000000002175, -0.699683143746437 
4.800000000002152, -0.6949871803370922 
4.810000000002129, -0.6894490922314299 
4.820000000002105, -0.6834852452618522 
4.830000000002082, -0.6776440522699361 
4.840000000002059, -0.6724134495937238 
4.850000000002035, -0.6680866035139593 
4.860000000002012, -0.6647437891476341 
4.870000000001989, -0.6623114184648408 
4.880000000001965, -0.6606370339196721 
4.890000000001942, -0.6595467360616358 
4.900000000001919, -0.6588787545632775 
4.9100000000018955, -0.6584984693744457 
4.920000000001872, -0.6583018234886053 
