t, s[1].omega / s[0].omega 
0, -0.13999781814690074 
0.009999999999999995, -0.1398117180433966 
0.019999999999999934, -0.13968377879408747 
0.029999999999999874, -0.13959926706571155 
0.04000000000000012, -0.13953761987370042 
0.050000000000000405, -0.13947709448634632 
0.06000000000000069, -0.1393988939619129 
0.07000000000000098, -0.13928934867574294 
0.08000000000000126, -0.13913980247267718 
0.09000000000000155, -0.13894490350139482 
0.10000000000000184, -0.1387003394603292 
0.11000000000000212, -0.1384007877314311 
0.12000000000000241, -0.13803848656092593 
0.130000000000002, -0.1376027299410329 
0.1400000000000009, -0.13708078228236947 
0.1499999999999998, -0.13646094362686004 
0.1599999999999987, -0.13573819235376033 
0.1699999999999976, -0.13492128746060097 
0.1799999999999965, -0.13403766543358514 
0.1899999999999954, -0.13313138476468306 
0.1999999999999943, -0.13225276046326012 
0.2099999999999932, -0.1314445727276491 
0.2199999999999921, -0.1307323534009185 
0.229999999999991, -0.13012246068590388 
0.2399999999999899, -0.1296062058304673 
0.2499999999999888, -0.1291661690501628 
0.2599999999999877, -0.12878186230325478 
0.2699999999999866, -0.12843357226530233 
0.2799999999999855, -0.12810426368474723 
0.2899999999999844, -0.12777987699469665 
0.2999999999999833, -0.12744849251047582 
0.3099999999999822, -0.12709877608806736 
0.3199999999999811, -0.12671794103389997 
0.32999999999998, -0.126289282452623 
0.3399999999999789, -0.1257893455599808 
0.3499999999999778, -0.12518525143649523 
0.35999999999997667, -0.12443397488793431 
0.36999999999997557, -0.12348740881643985 
0.37999999999997447, -0.1223079514817326 
0.38999999999997337, -0.12089425653174206 
0.39999999999997227, -0.1193033001738274 
0.40999999999997117, -0.11764589914274406 
0.41999999999997006, -0.11604935688751616 
0.42999999999996896, -0.1146122857638812 
0.43999999999996786, -0.1133821413650766 
0.44999999999996676, -0.11236078996300533 
0.45999999999996566, -0.11152306983391935 
0.46999999999996456, -0.11083395629084267 
0.47999999999996346, -0.1102591003932653 
0.48999999999996235, -0.10976950701286337 
0.49999999999996125, -0.10934264885741489 
0.5099999999999602, -0.10896183754820081 
0.519999999999959, -0.10861486004604685 
0.529999999999958, -0.10829223801864489 
0.5399999999999568, -0.1079849709515355 
0.5499999999999557, -0.10768117470521821 
0.5599999999999546, -0.10736062435205299 
0.5699999999999535, -0.1069862551699928 
0.5799999999999524, -0.10649353787663247 
0.5899999999999513, -0.10578474451011181 
0.5999999999999502, -0.10474504669204757 
0.6099999999999491, -0.10329700248577442 
0.619999999999948, -0.10147405755877856 
0.6299999999999469, -0.09944293981736445 
0.6399999999999458, -0.09743160415011803 
0.6499999999999447, -0.09562302666747675 
0.6599999999999436, -0.0941033508260167 
0.6699999999999425, -0.0928765825516206 
0.6799999999999414, -0.09190375358169092 
0.6899999999999403, -0.09113420825349845 
0.6999999999999392, -0.09052185023002707 
0.7099999999999381, -0.09003085734413102 
0.719999999999937, -0.08963630515409143 
0.7299999999999359, -0.08932304087827005 
0.7399999999999348, -0.08908432994998133 
0.7499999999999337, -0.08892071788699134 
0.7599999999999326, -0.08883885994891709 
0.7699999999999315, -0.08884934098617345 
0.7799999999999304, -0.08896139160188246 
0.7899999999999293, -0.08917097602453405 
0.7999999999999282, -0.08943874204656047 
0.8099999999999271, -0.08966147499095525 
0.819999999999926, -0.08966198454824945 
0.8299999999999249, -0.08924309965670556 
0.8399999999999238, -0.08831187407698904 
0.8499999999999227, -0.08696984038555447 
0.8599999999999216, -0.08545640016259437 
0.8699999999999205, -0.08400323805435295 
0.8799999999999194, -0.08274370901218103 
0.8899999999999183, -0.08171496831681854 
0.8999999999999172, -0.0808995595684471 
0.9099999999999161, -0.08026140215156821 
0.919999999999915, -0.07976516495208395 
0.9299999999999139, -0.07938375772599755 
0.9399999999999128, -0.07910012173737184 
0.9499999999999117, -0.0789071126656342 
0.9599999999999106, -0.07880723331815717 
0.9699999999999095, -0.07881281111106113 
0.9799999999999084, -0.07894648158405701 
0.9899999999999073, -0.07924098298953812 
0.9999999999999062, -0.0797357396021501 
1.0099999999999052, -0.08046526247795066 
1.019999999999904, -0.08143262512649056 
1.029999999999903, -0.0825671098267932 
1.039999999999902, -0.08368999797676044 
1.0499999999999008, -0.08454594742411778 
1.0599999999998997, -0.08492967831994831 
1.0699999999998986, -0.08481443642874399 
1.0799999999998975, -0.08434551396712556 
1.0899999999998964, -0.08371983957020822 
1.0999999999998953, -0.08308539212526518 
1.1099999999998942, -0.08251780417981425 
1.119999999999893, -0.08204143011282587 
1.129999999999892, -0.08165564333011674 
1.1399999999998909, -0.08135206263840676 
1.1499999999998898, -0.08112319248920032 
1.1599999999998887, -0.08096620177061893 
1.1699999999998876, -0.08088467196494582 
1.1799999999998865, -0.08088984341691109 
1.1899999999998854, -0.0810019868029804 
1.1999999999998843, -0.08125184977744213 
1.2099999999998832, -0.0816812740811284 
1.219999999999882, -0.0823406000542819 
1.229999999999881, -0.08327824106564233 
1.2399999999998799, -0.08451641104531991 
1.2499999999998788, -0.08601235083480453 
1.2599999999998777, -0.08762479227510288 
1.2699999999998766, -0.08913052832244243 
1.2799999999998755, -0.09031552195767775 
1.2899999999998744, -0.09107999591604758 
1.2999999999998733, -0.09146159082431456 
1.3099999999998722, -0.09157239161199263 
1.319999999999871, -0.09152631875947306 
1.32999999999987, -0.09140530227643437 
1.3399999999998689, -0.09125821465588582 
1.3499999999998678, -0.0911115590964289 
1.3599999999998666, -0.09097988118470354 
1.3699999999998655, -0.09087285179123661 
1.3799999999998644, -0.09079960260814039 
1.3899999999998633, -0.09077149615511838 
1.3999999999998622, -0.09080417759554996 
1.4099999999998611, -0.09091927923861097 
1.41999999999986, -0.09114564115646975 
1.429999999999859, -0.09151924811204411 
1.4399999999998578, -0.09208012819883771 
1.4499999999998567, -0.09286342461035618 
1.4599999999998556, -0.09388212568708307 
1.4699999999998545, -0.09510372795563839 
1.4799999999998534, -0.09643432578536561 
1.4899999999998523, -0.09773201238187665 
1.4999999999998512, -0.0988559850001938 
1.5099999999998501, -0.09972092129333657 
1.519999999999849, -0.10031556318255774 
1.529999999999848, -0.10068075882301852 
1.5399999999998468, -0.1008753276914667 
1.5499999999998457, -0.10095318552178281 
1.5599999999998446, -0.10095531278251521 
1.5699999999998435, -0.10091039168457683 
1.5799999999998424, -0.10083835015114298 
1.5899999999998413, -0.10075403868343624 
1.5999999999998402, -0.10067026506550118 
1.6099999999998391, -0.10060018759515792 
1.619999999999838, -0.10055917038195258 
1.629999999999837, -0.10056602990591298 
1.6399999999998358, -0.10064333797872778 
1.6499999999998347, -0.10081617547778879 
1.6599999999998336, -0.10110852544713977 
1.6699999999998325, -0.10153659585126247 
1.6799999999998314, -0.10209943460556334 
1.6899999999998303, -0.1027699854060847 
1.6999999999998292, -0.10349315619697567 
1.709999999999828, -0.10419687033791825 
1.719999999999827, -0.10481361388583295 
1.729999999999826, -0.10530003804815273 
1.7399999999998248, -0.10564316539090543 
1.7499999999998237, -0.10585325655374511 
1.7599999999998226, -0.10595180653938188 
1.7699999999998215, -0.10596200181679934 
1.7799999999998204, -0.10590384155100105 
1.7899999999998193, -0.10579288125048389 
1.7999999999998182, -0.10564095718436181 
1.809999999999817, -0.10545778200086968 
1.819999999999816, -0.10525284783862363 
1.8299999999998149, -0.10503728539602467 
1.8399999999998138, -0.10482525766066908 
1.8499999999998127, -0.1046343339916808 
1.8599999999998116, -0.10448435442791322 
1.8699999999998105, -0.10439466350283859 
1.8799999999998094, -0.10438009762545737 
1.8899999999998083, -0.10444653483831337 
1.8999999999998072, -0.10458723940210399 
1.909999999999806, -0.10478173693907314 
1.919999999999805, -0.10499886646263792 
1.9299999999998039, -0.10520393031582505 
1.9399999999998028, -0.10536707819838757 
1.9499999999998017, -0.10546889743117649 
1.9599999999998006, -0.10550117154334496 
1.9699999999997995, -0.105463909422986 
1.9799999999997984, -0.10536119646691433 
1.9899999999997973, -0.10519780717553559 
1.9999999999997962, -0.10497729359070532 
2.0099999999998173, -0.10470151692267231 
2.0199999999998384, -0.10437142245333922 
2.0299999999998595, -0.10398889702075528 
2.0399999999998806, -0.10355940779961112 
2.0499999999999017, -0.10309462382813676 
2.059999999999923, -0.10261362278684785 
2.069999999999944, -0.10214132047142783 
2.079999999999965, -0.10170398137073891 
2.089999999999986, -0.10132342301267835 
2.100000000000007, -0.10101227315118644 
2.1100000000000283, -0.10077180759242928 
2.1200000000000494, -0.10059255718550278 
2.1300000000000705, -0.10045710814424576 
2.1400000000000916, -0.10034422269683954 
2.1500000000001127, -0.10023310322382524 
2.160000000000134, -0.10010650017056796 
2.170000000000155, -0.09995185930207488 
2.180000000000176, -0.09976061705941583 
2.190000000000197, -0.09952641147579412 
2.2000000000002182, -0.0992430552829099 
2.2100000000002393, -0.09890286413001584 
2.2200000000002604, -0.09849574623222022 
2.2300000000002815, -0.09800953119750479 
2.2400000000003026, -0.09743222939155945 
2.2500000000003237, -0.09675680680188363 
2.260000000000345, -0.095987918331646 
2.270000000000366, -0.09514768654182365 
2.280000000000387, -0.09427582641125282 
2.290000000000408, -0.09342142949242051 
2.3000000000004293, -0.09262960497581471 
2.3100000000004504, -0.09193028151250505 
2.3200000000004715, -0.0913342139567369 
2.3300000000004926, -0.09083570614502198 
2.3400000000005137, -0.09041847160283069 
2.3500000000005348, -0.0900615146630413 
2.360000000000556, -0.08974354895621511 
2.370000000000577, -0.08944558344094297 
2.380000000000598, -0.08915180260183965 
2.390000000000619, -0.08884909897066096 
2.4000000000006403, -0.08852570290118512 
2.4100000000006614, -0.08816929378349445 
2.4200000000006825, -0.08776485272590348 
2.4300000000007036, -0.0872925150621108 
2.4400000000007247, -0.08672602827462592 
2.450000000000746, -0.0860332863077532 
2.460000000000767, -0.08518153176550189 
2.470000000000788, -0.08414967693866478 
2.480000000000809, -0.08294596335197264 
2.49000000000083, -0.081620699099385 
2.5000000000008513, -0.0802600160138425 
2.5100000000008724, -0.0789586567482952 
2.5200000000008935, -0.07778893633315337 
2.5300000000009146, -0.0767853609007693 
2.5400000000009357, -0.07594829853491526 
2.550000000000957, -0.07525698521127125 
2.560000000000978, -0.07468211364279013 
2.570000000000999, -0.07419403924408988 
2.58000000000102, -0.07376674187195868 
2.5900000000010412, -0.0733789190280304 
2.6000000000010624, -0.07301342231935763 
2.6100000000010835, -0.07265578131916911 
2.6200000000011046, -0.07229213945867215 
2.6300000000011257, -0.07190660056315064 
2.6400000000011468, -0.07147779319728623 
2.650000000001168, -0.07097459549875965 
2.660000000001189, -0.07035191351769746 
2.67000000000121, -0.06954987819684613 
2.680000000001231, -0.06850348200450343 
2.6900000000012523, -0.06716979468283105 
2.7000000000012734, -0.06556698475538587 
2.7100000000012945, -0.06379556415580942 
2.7200000000013156, -0.062010939301022326 
2.7300000000013367, -0.060359975552697745 
2.740000000001358, -0.058931405661071315 
2.750000000001379, -0.05774843708126185 
2.7600000000014, -0.05679002897991038 
2.770000000001421, -0.05601606887680297 
2.780000000001442, -0.05538416206648685 
2.7900000000014633, -0.054857461594362625 
2.8000000000014844, -0.0544068461350272 
2.8100000000015055, -0.05401035341027285 
2.8200000000015266, -0.05365149781595798 
2.8300000000015477, -0.053317104904330725 
2.840000000001569, -0.052994642551450144 
2.85000000000159, -0.0526685549466124 
2.860000000001611, -0.05231477860849977 
2.870000000001632, -0.05189282738086894 
2.8800000000016532, -0.05133683536652532 
2.8900000000016743, -0.05055273857527294 
2.9000000000016954, -0.0494372080291656 
2.9100000000017165, -0.04793120295228191 
2.9200000000017377, -0.046085670905244305 
2.9300000000017588, -0.04407338016743473 
2.94000000000178, -0.042113580187908776 
2.950000000001801, -0.04037272360680544 
2.960000000001822, -0.038921775513532576 
2.970000000001843, -0.037755170701361286 
2.9800000000018643, -0.0368294526835832 
2.9900000000018854, -0.036092368934202756 
3.0000000000019065, -0.035497221274124156 
3.0100000000019276, -0.035007384023033904 
3.0200000000019487, -0.03459616971087017 
3.03000000000197, -0.03424503075710579 
3.040000000001991, -0.033941321920482936 
3.050000000002012, -0.03367579438825351 
3.060000000002033, -0.03343929075134127 
3.070000000002054, -0.03321747145332151 
3.0800000000020753, -0.032981920192360556 
3.0900000000020964, -0.03267675373061349 
3.1000000000021175, -0.03220494387724788 
3.1100000000021386, -0.03143110280371307 
3.1200000000021597, -0.030228340331410707 
3.130000000002181, -0.02857048424957114 
3.140000000002202, -0.026596064961421122 
3.150000000002223, -0.024555598907172748 
3.160000000002244, -0.022679501435195124 
3.1700000000022652, -0.021091403233446146 
3.1800000000022863, -0.019811524239502228 
3.1900000000023074, -0.018802292990244236 
3.2000000000023285, -0.018008354230916464 
3.2100000000023496, -0.01737774611243873 
3.2200000000023707, -0.01686928075503514 
3.230000000002392, -0.01645321671269576 
3.240000000002413, -0.016109537104236227 
3.250000000002434, -0.015825678084508625 
3.260000000002455, -0.015594111929429092 
3.2700000000024763, -0.0154093061965636 
3.2800000000024974, -0.015262781068952366 
3.2900000000025185, -0.015134156591320785 
3.3000000000025396, -0.014976114849406853 
3.3100000000025607, -0.014695389262572151 
3.3200000000025818, -0.014145543976156546 
3.330000000002603, -0.013165492457948982 
3.340000000002624, -0.0116809666267457 
3.350000000002645, -0.009799141235967146 
3.360000000002666, -0.007777327102628767 
3.3700000000026873, -0.005877615418974514 
3.3800000000027084, -0.004253534110160561 
3.3900000000027295, -0.002941497847870641 
3.4000000000027506, -0.0019090001912853215 
3.4100000000027717, -0.0011004665245301875 
3.420000000002793, -0.0004622103648434854 
3.430000000002814, 0.000004281045301034359 
3.440000000002835, 7.129829192838953e-7 
3.450000000002856, 4.2318700727519975e-7 
3.460000000002877, -6.028521056024803e-7 
3.4700000000028983, 5.439553867792093e-7 
3.4800000000029194, 1.1305217407233476e-7 
3.4900000000029405, -0.0000013632305303001613 
3.5000000000029616, -0.0000012821037305004683 
3.5100000000029827, -4.712635109828657e-8 
3.520000000003004, 4.08629763489242e-7 
3.530000000003025, 0.0001001944816545829 
3.540000000003046, 0.0006312949900200348 
3.550000000003067, 0.0016796579929521066 
3.5600000000030882, 0.003129160461503169 
3.5700000000031094, 0.004712228292592726 
3.5800000000031305, 0.006163655550007611 
3.5900000000031516, 0.007333391668983662 
3.6000000000031727, 0.008189871353566698 
3.6100000000031938, 0.008768760939133955 
3.620000000003215, 0.009126884017181302 
3.630000000003236, 0.009318044071884211 
3.640000000003257, 0.009384758748744353 
3.650000000003278, 0.009357552369483947 
3.6600000000032993, 0.00925686593174209 
3.6700000000033204, 0.009095552292007803 
3.6800000000033415, 0.008881564493842342 
3.6900000000033626, 0.008621426156249046 
3.7000000000033837, 0.00832593971235519 
3.710000000003405, 0.008020392971513326 
3.720000000003426, 0.007761032000936895 
3.730000000003447, 0.0076538028079053185 
3.740000000003468, 0.00785527294007438 
3.750000000003489, 0.008519560474670427 
3.7600000000035103, 0.009686670451716551 
3.7700000000035314, 0.011204907158112601 
3.7800000000035525, 0.012796958656129209 
3.7900000000035736, 0.014215460670295405 
3.8000000000035947, 0.015335583146955632 
3.810000000003616, 0.01614317848682307 
3.820000000003637, 0.016681534464782433 
3.830000000003658, 0.01700907954206743 
3.840000000003679, 0.017178758815927835 
3.8500000000037002, 0.0172317193870598 
3.8600000000037213, 0.017197435161363524 
3.8700000000037424, 0.017095951416907264 
3.8800000000037635, 0.01694060305158224 
3.8900000000037847, 0.01674103311015397 
3.9000000000038058, 0.01650724313027715 
3.910000000003827, 0.0162561832221765 
3.920000000003848, 0.016022844695467112 
3.930000000003869, 0.015876250719423737 
3.94000000000389, 0.01593299184982006 
3.9500000000039113, 0.01634467736736747 
3.9600000000039324, 0.017229260630152215 
3.9700000000039535, 0.01856564300005314 
3.9800000000039746, 0.020156309780756762 
3.9900000000039957, 0.02172713019324029 
4.000000000004016, 0.023069781295329828 
4.010000000003993, 0.024099478660826644 
4.02000000000397, 0.024825420760354704 
4.030000000003946, 0.02529917535626554 
4.040000000003923, 0.025579539651848858 
4.0500000000039, 0.025717154351002462 
4.0600000000038765, 0.025750730922731786 
4.070000000003853, 0.0257081521916012 
4.08000000000383, 0.02560908574800456 
4.090000000003807, 0.0254679883757495 
4.100000000003783, 0.025297589467624792 
4.11000000000376, 0.025113694028692467 
4.120000000003737, 0.02494266539426719 
4.130000000003713, 0.024832653804899945 
4.14000000000369, 0.024866380653820665 
4.150000000003667, 0.0251637937112703 
4.1600000000036434, 0.025850594091804725 
4.17000000000362, 0.02697962512468734 
4.180000000003597, 0.02845386654497146 
4.1900000000035735, 0.03004482955153216 
4.20000000000355, 0.03151157523816131 
4.210000000003527, 0.032706237020623204 
4.220000000003504, 0.03359073806746903 
4.23000000000348, 0.03419600600114066 
4.240000000003457, 0.03457818456593563 
4.250000000003434, 0.03479324571547905 
4.26000000000341, 0.034887373656939336 
4.270000000003387, 0.03489561881340952 
4.280000000003364, 0.0348437899760255 
4.2900000000033405, 0.03475133409655153 
4.300000000003317, 0.03463460871495101 
4.310000000003294, 0.03451082688729238 
4.320000000003271, 0.03440343265930459 
4.330000000003247, 0.03434965320998918 
4.340000000003224, 0.034409512736782694 
4.350000000003201, 0.03467074320819463 
4.360000000003177, 0.035235589083124394 
4.370000000003154, 0.03617404456350395 
4.380000000003131, 0.037456673345194785 
4.390000000003107, 0.03892893985630886 
4.400000000003084, 0.04037479180553355 
4.410000000003061, 0.041619660712612666 
4.4200000000030375, 0.04258382322822819 
4.430000000003014, 0.04326862635325223 
4.440000000002991, 0.04371722439687541 
4.450000000002968, 0.04398354758798838 
4.460000000002944, 0.044116814867971414 
4.470000000002921, 0.04415670840314322 
4.480000000002898, 0.04413366660139319 
4.490000000002874, 0.0440711231661841 
4.500000000002851, 0.04398841811090744 
4.510000000002828, 0.043904143704335895 
4.520000000002804, 0.04384017849512467 
4.530000000002781, 0.04382672034598638 
4.540000000002758, 0.04390789304773113 
4.5500000000027345, 0.044145090812983456 
4.560000000002711, 0.044610768344235864 
4.570000000002688, 0.04536285700003473 
4.580000000002665, 0.04640102518186115 
4.590000000002641, 0.04763477010967561 
4.600000000002618, 0.048904638746899334 
4.610000000002595, 0.05005165163773474 
4.620000000002571, 0.050977363128639354 
4.630000000002548, 0.051655485651560806 
4.640000000002525, 0.05210864409419904 
4.6500000000025015, 0.05238019908219619 
4.660000000002478, 0.052515926346253225 
4.670000000002455, 0.05255588980050966 
4.6800000000024315, 0.052532458782531065 
4.690000000002408, 0.05247120448766979 
4.700000000002385, 0.05239298557546144 
4.710000000002362, 0.052316566168073994 
4.720000000002338, 0.052261607788511556 
4.730000000002315, 0.052251992227428434 
4.740000000002292, 0.05231908551184631 
4.750000000002268, 0.05250342877612578 
4.760000000002245, 0.0528513315934761 
4.770000000002222, 0.05340148248612806 
4.7800000000021985, 0.054160718029048746 
4.790000000002175, 0.05508115141905094 
4.800000000002152, 0.05606184401248178 
