t, s[1].omega / s[0].omega 
0, -0.24999780936296573 
0.009999999999999995, -0.24983389433660105 
0.019999999999999934, -0.24976877957840782 
0.029999999999999874, -0.2497740162483877 
0.04000000000000012, -0.24981031805775927 
0.050000000000000405, -0.24983724426414616 
0.06000000000000069, -0.24982158139565058 
0.07000000000000098, -0.24974104548471981 
0.08000000000000126, -0.24958272715977697 
0.09000000000000155, -0.2493382213621675 
0.10000000000000184, -0.24899769927526064 
0.11000000000000212, -0.24854393832445845 
0.12000000000000241, -0.24794607326352186 
0.130000000000002, -0.24715251476982186 
0.1400000000000009, -0.2460837675479588 
0.1499999999999998, -0.2446299424506186 
0.1599999999999987, -0.24266521707732785 
0.1699999999999976, -0.24009634242992628 
0.1799999999999965, -0.23694449366595877 
0.1899999999999954, -0.2334072011815659 
0.1999999999999943, -0.2298187714096656 
0.2099999999999932, -0.22651105447906783 
0.2199999999999921, -0.2236886327219622 
0.229999999999991, -0.2214040714054105 
0.2399999999999899, -0.21960786326956402 
0.2499999999999888, -0.21820911452226227 
0.2599999999999877, -0.21711483280915728 
0.2699999999999866, -0.21624725397064468 
0.2799999999999855, -0.21554825873698338 
0.2899999999999844, -0.21497828317627285 
0.2999999999999833, -0.2145138059515471 
0.3099999999999822, -0.21414532527240016 
0.3199999999999811, -0.2138766498638487 
0.32999999999998, -0.2137257748198078 
0.3399999999999789, -0.21372705469751666 
0.3499999999999778, -0.21393300834712745 
0.35999999999997667, -0.2144102096962735 
0.36999999999997557, -0.2152143732138375 
0.37999999999997447, -0.21631394221514944 
0.38999999999997337, -0.21742958183740826 
0.39999999999997227, -0.2178520511177724 
0.40999999999997117, -0.21656300602036774 
0.41999999999997006, -0.21298606235684595 
0.42999999999996896, -0.20772480947897418 
0.43999999999996786, -0.20214551777047146 
0.44999999999996676, -0.19732128303385194 
0.45999999999996566, -0.1936226416704489 
0.46999999999996456, -0.190959608574435 
0.47999999999996346, -0.1890944505488143 
0.48999999999996235, -0.18780099557206958 
0.49999999999996125, -0.18690988742240194 
0.5099999999999602, -0.18630757145157578 
0.519999999999959, -0.1859241764194772 
0.529999999999958, -0.18572258221802557 
0.5399999999999568, -0.18569160205752552 
0.5499999999999557, -0.18584342893473285 
0.5599999999999546, -0.1862150577858584 
0.5699999999999535, -0.18687349553104823 
0.5799999999999524, -0.1879242826350423 
0.5899999999999513, -0.18952098296861203 
0.5999999999999502, -0.1918674942637901 
0.6099999999999491, -0.19519206352705007 
0.619999999999948, -0.19965493318718353 
0.6299999999999469, -0.20516418455271737 
0.6399999999999458, -0.2111900393401127 
0.6499999999999447, -0.21684294512721292 
0.6599999999999436, -0.2213353346236817 
0.6699999999999425, -0.22440858283652734 
0.6799999999999414, -0.22628857977402322 
0.6899999999999403, -0.22736277835145366 
0.6999999999999392, -0.22795510715922368 
0.7099999999999381, -0.2282733496275328 
0.719999999999937, -0.22843548911985967 
0.7299999999999359, -0.22850561866210822 
0.7399999999999348, -0.22851896011491965 
0.7499999999999337, -0.22849637436585518 
0.7599999999999326, -0.2284525749414965 
0.7699999999999315, -0.2284012541294304 
0.7799999999999304, -0.22835883736496365 
0.7899999999999293, -0.22834738800042867 
0.7999999999999282, -0.2283962818345416 
0.8099999999999271, -0.22854172085520824 
0.819999999999926, -0.22882306875883543 
0.8299999999999249, -0.22927526756353456 
0.8399999999999238, -0.22991722222666175 
0.8499999999999227, -0.230737926438716 
0.8599999999999216, -0.23168631976423412 
0.8699999999999205, -0.2326746816930471 
0.8799999999999194, -0.23360085820428883 
0.8899999999999183, -0.23437977533724955 
0.8999999999999172, -0.23496463253734096 
0.9099999999999161, -0.23534709722328992 
0.919999999999915, -0.23554285852565524 
0.9299999999999139, -0.23557507941610883 
0.9399999999999128, -0.23546294098434767 
0.9499999999999117, -0.2352159376336736 
0.9599999999999106, -0.23483207293906389 
0.9699999999999095, -0.23429869860812153 
0.9799999999999084, -0.2335963712736872 
0.9899999999999073, -0.23270731239430154 
0.9999999999999062, -0.231629211966551 
1.0099999999999052, -0.23039059283909627 
1.019999999999904, -0.22905766476024833 
1.029999999999903, -0.2277228688939214 
1.039999999999902, -0.22647783623294826 
1.0499999999999008, -0.22538710023894395 
1.0599999999998997, -0.22447697407068956 
1.0699999999998986, -0.2237402193157087 
1.0799999999998975, -0.22314820053213422 
1.0899999999998964, -0.2226631355069118 
1.0999999999998953, -0.22224723361069437 
1.1099999999998942, -0.2218680598652024 
1.119999999999893, -0.22150040103562957 
1.129999999999892, -0.22112539835091974 
1.1399999999998909, -0.2207279276294929 
1.1499999999998898, -0.22029291344275914 
1.1599999999998887, -0.21980049631787874 
1.1699999999998876, -0.21921891744541955 
1.1799999999998865, -0.218492760738788 
1.1899999999998854, -0.21752331473852943 
1.1999999999998843, -0.21614003358356038 
1.2099999999998832, -0.21407561840059525 
1.219999999999882, -0.21099265403120054 
1.229999999999881, -0.20664166256141953 
1.2399999999998799, -0.20113870847064647 
1.2499999999998788, -0.19509467816322804 
1.2599999999998777, -0.18933348428814065 
1.2699999999998766, -0.18444494790837207 
1.2799999999998755, -0.18061326152935758 
1.2899999999998744, -0.1777398217793906 
1.2999999999998733, -0.17562256881383737 
1.3099999999998722, -0.17406335983671556 
1.319999999999871, -0.17290598733530044 
1.32999999999987, -0.17203973430922165 
1.3399999999998689, -0.17139194662314838 
1.3499999999998678, -0.1709197969324261 
1.3599999999998666, -0.17060456719351066 
1.3699999999998655, -0.17044926178412514 
1.3799999999998644, -0.17047974176094566 
1.3899999999998633, -0.17074948897789347 
1.3999999999998622, -0.17134758060690564 
1.4099999999998611, -0.17240676369149868 
1.41999999999986, -0.17409971274045438 
1.429999999999859, -0.17659011428791643 
1.4399999999998578, -0.17987472087927264 
1.4499999999998567, -0.18348294370194854 
1.4599999999998556, -0.18627323244159924 
1.4699999999998545, -0.1869387448317592 
1.4799999999998534, -0.1851634519753528 
1.4899999999998523, -0.18193054609016118 
1.4999999999998512, -0.17851481111462403 
1.5099999999998501, -0.17564311732217058 
1.519999999999849, -0.1734848788353427 
1.529999999999848, -0.1719464047414017 
1.5399999999998468, -0.17087536615636478 
1.5499999999998457, -0.1701407718864486 
1.5599999999998446, -0.16964996745011152 
1.5699999999998435, -0.16934489019413734 
1.5799999999998424, -0.16919497623974572 
1.5899999999998413, -0.1691920930230976 
1.5999999999998402, -0.1693486676091183 
1.6099999999998391, -0.16969909091617474 
1.619999999999838, -0.17030427721994934 
1.629999999999837, -0.1712588603588224 
1.6399999999998358, -0.17269880683402436 
1.6499999999998347, -0.1748022740240176 
1.6599999999998336, -0.17776593712644445 
1.6699999999998325, -0.1817260757649425 
1.6799999999998314, -0.18660609594613078 
1.6899999999998303, -0.19196552314986948 
1.6999999999998292, -0.19705993880746783 
1.709999999999828, -0.20120737590614374 
1.719999999999827, -0.20414327712553404 
1.729999999999826, -0.20601346489096234 
1.7399999999998248, -0.2071271012740678 
1.7499999999998237, -0.20776368312790555 
1.7599999999998226, -0.20811422813543237 
1.7699999999998215, -0.2082937237608232 
1.7799999999998204, -0.20836807694296935 
1.7899999999998193, -0.20837523042563624 
1.7999999999998182, -0.20833848672594518 
1.809999999999817, -0.20827466731380917 
1.819999999999816, -0.20819955874000126 
1.8299999999998149, -0.20813199599179608 
1.8399999999998138, -0.2080968624269397 
1.8499999999998127, -0.20812645973287677 
1.8599999999998116, -0.20825931661778158 
1.8699999999998105, -0.20853561891903563 
1.8799999999998094, -0.2089887938023995 
1.8899999999998083, -0.20963340907108347 
1.8999999999998072, -0.2104516707799639 
1.909999999999806, -0.21138528964040412 
1.919999999999805, -0.21234243477823708 
1.9299999999998039, -0.21322276516474062 
1.9399999999998028, -0.21394813229846674 
1.9499999999998017, -0.21447977510838517 
1.9599999999998006, -0.21481484164836276 
1.9699999999997995, -0.21497088972714126 
1.9799999999997984, -0.21497029993754327 
1.9899999999997973, -0.21483026173307812 
1.9999999999997962, -0.2145582158469524 
2.0099999999998173, -0.21415095295390754 
2.0199999999998384, -0.21359647638436155 
2.0299999999998595, -0.2128792261612542 
2.0399999999998806, -0.21198983068151014 
2.0499999999999017, -0.21093861647634587 
2.059999999999923, -0.2097671444805 
2.069999999999944, -0.20854807206470558 
2.079999999999965, -0.20736831776164344 
2.089999999999986, -0.2063034842340568 
2.100000000000007, -0.2053988392759598 
2.1100000000000283, -0.20466507215629676 
2.1200000000000494, -0.20408549300383722 
2.1300000000000705, -0.20362725339969528 
2.1400000000000916, -0.2032517055609445 
2.1500000000001127, -0.20292203732120884 
2.160000000000134, -0.202607590871219 
2.170000000000155, -0.20228485618695222 
2.180000000000176, -0.20193576346435055 
2.190000000000197, -0.20154421189663568 
2.2000000000002182, -0.20109140922238317 
2.2100000000002393, -0.20054974231734918 
2.2200000000002604, -0.19987394480439574 
2.2300000000002815, -0.1989877899222166 
2.2400000000003026, -0.1977659320645944 
2.2500000000003237, -0.19601804424189587 
2.260000000000345, -0.19350187136073 
2.270000000000366, -0.19001372375994469 
2.280000000000387, -0.18556965419492097 
2.290000000000408, -0.1805435005438526 
2.3000000000004293, -0.1755520219850292 
2.3100000000004504, -0.17113703017763734 
2.3200000000004715, -0.16755335020916876 
2.3300000000004926, -0.16479388428811964 
2.3400000000005137, -0.1627207852622075 
2.3500000000005348, -0.16117009405582702 
2.360000000000556, -0.16000038193843585 
2.370000000000577, -0.1591053134574938 
2.380000000000598, -0.1584112309530533 
2.390000000000619, -0.15787101011797447 
2.4000000000006403, -0.15745861976094636 
2.4100000000006614, -0.1571657513608149 
2.4200000000006825, -0.15700076960546075 
2.4300000000007036, -0.15698974373589156 
2.4400000000007247, -0.15717846276006808 
2.450000000000746, -0.15763165706832688 
2.460000000000767, -0.1584182452578888 
2.470000000000788, -0.15955557089650188 
2.480000000000809, -0.16086865134736134 
2.49000000000083, -0.1617655002006522 
2.5000000000008513, -0.16117397052754706 
2.5100000000008724, -0.15814625429060836 
2.5200000000008935, -0.15290463823812445 
2.5300000000009146, -0.14685788575055425 
2.5400000000009357, -0.1413997995483225 
2.550000000000957, -0.13713693499375673 
2.560000000000978, -0.13404850907837423 
2.570000000000999, -0.1318805644780894 
2.58000000000102, -0.13037166112395682 
2.5900000000010412, -0.1293226870713455 
2.6000000000010624, -0.1285998935309444 
2.6100000000010835, -0.1281210361453179 
2.6200000000011046, -0.1278422599814023 
2.6300000000011257, -0.12774998464263057 
2.6400000000011468, -0.12785816543616185 
2.650000000001168, -0.1282108012638192 
2.660000000001189, -0.128889887293369 
2.67000000000121, -0.13002884808378362 
2.680000000001231, -0.13182879604538017 
2.6900000000012523, -0.13456484515924932 
2.7000000000012734, -0.13854369945177172 
2.7100000000012945, -0.14393493187186962 
2.7200000000013156, -0.150426940088176 
2.7300000000013367, -0.15694790465505726 
2.740000000001358, -0.16206012390892272 
2.750000000001379, -0.1649949121569058 
2.7600000000014, -0.16607854381941883 
2.770000000001421, -0.16611933991748756 
2.780000000001442, -0.1657613858150629 
2.7900000000014633, -0.16533553305923954 
2.8000000000014844, -0.16496493985491217 
2.8100000000015055, -0.16467837591967088 
2.8200000000015266, -0.1644726587673748 
2.8300000000015477, -0.16433909365259133 
2.840000000001569, -0.16427310992442598 
2.85000000000159, -0.16427772033652283 
2.860000000001611, -0.16436545103280786 
2.870000000001632, -0.16456054600534592 
2.8800000000016532, -0.1649019850773433 
2.8900000000016743, -0.16544707439519518 
2.9000000000016954, -0.1662743407495674 
2.9100000000017165, -0.16748241451702972 
2.9200000000017377, -0.16917781927044367 
2.9300000000017588, -0.17144051178144298 
2.94000000000178, -0.1742603890157949 
2.950000000001801, -0.17746740911224385 
2.960000000001822, -0.1807257020504885 
2.970000000001843, -0.18365044543968598 
2.9800000000018643, -0.18598073789272865 
2.9900000000018854, -0.18765873078252973 
3.0000000000019065, -0.1887748190222687 
3.0100000000019276, -0.18946944066458604 
3.0200000000019487, -0.18986937811051335 
3.03000000000197, -0.1900673660833828 
3.040000000001991, -0.19012445994135693 
3.050000000002012, -0.19007883140142615 
3.060000000002033, -0.18995432398416484 
3.070000000002054, -0.1897674746981348 
3.0800000000020753, -0.1895333978921036 
3.0900000000020964, -0.18927079345248365 
3.1000000000021175, -0.18900549540781975 
3.1100000000021386, -0.18877128064595422 
3.1200000000021597, -0.18860693906615356 
3.130000000002181, -0.18854992214539662 
3.140000000002202, -0.18862809631062977 
3.150000000002223, -0.18885133718160302 
3.160000000002244, -0.1892048544926703 
3.1700000000022652, -0.18964741945828661 
3.1800000000022863, -0.1901182200045888 
3.1900000000023074, -0.19055222327676247 
3.2000000000023285, -0.1908970435470491 
3.2100000000023496, -0.19112216169276564 
3.2200000000023707, -0.1912173002474779 
3.230000000002392, -0.1911840198693708 
3.240000000002413, -0.191026375126201 
3.250000000002434, -0.19074384038860573 
3.260000000002455, -0.1903270148642118 
3.2700000000024763, -0.1897558680036923 
3.2800000000024974, -0.18900122423307014 
3.2900000000025185, -0.18803174509366477 
3.3000000000025396, -0.18682890526643284 
3.3100000000025607, -0.18540820296038157 
3.3200000000025818, -0.18383531232065944 
3.330000000002603, -0.1822202630827992 
3.340000000002624, -0.18068521930376819 
3.350000000002645, -0.17932513323100147 
3.360000000002666, -0.17818632150893315 
3.3700000000026873, -0.1772692575484953 
3.3800000000027084, -0.1765443203956203 
3.3900000000027295, -0.17596819775283257 
3.4000000000027506, -0.1754956842730157 
3.4100000000027717, -0.17508652180213163 
3.420000000002793, -0.1747082371200972 
3.430000000002814, -0.17433594178956208 
3.440000000002835, -0.17395001490590228 
3.450000000002856, -0.17353239866399645 
3.460000000002877, -0.17306165766050013 
3.4700000000028983, -0.17250604542156936 
3.4800000000029194, -0.17181280168966545 
3.4900000000029405, -0.17089138389379982 
3.5000000000029616, -0.16959068460919086 
3.5100000000029827, -0.16768185904455032 
3.520000000003004, -0.1648860955448474 
3.530000000003025, -0.16100825795316792 
3.540000000003046, -0.15616090234481625 
3.550000000003067, -0.15086431619728555 
3.5600000000030882, -0.14581530060234282 
3.5700000000031094, -0.1415180391662097 
3.5800000000031305, -0.13813527509811813 
3.5900000000031516, -0.13558585670089368 
3.6000000000031727, -0.13369582336789868 
3.6100000000031938, -0.1322917173928561 
3.620000000003215, -0.1312348992883919 
3.630000000003236, -0.13042557589693177 
3.640000000003257, -0.12979668736706457 
3.650000000003278, -0.1293065664079049 
3.6600000000032993, -0.12893329792290936 
3.6700000000033204, -0.12867136225885958 
3.6800000000033415, -0.12853028982195952 
3.6900000000033626, -0.12853433779295304 
3.7000000000033837, -0.12872038603723118 
3.710000000003405, -0.1291262687878178 
3.720000000003426, -0.12975051065302978 
3.730000000003447, -0.1304488575891215 
3.740000000003468, -0.13074944488125276 
3.750000000003489, -0.12973021726241987 
3.7600000000035103, -0.12640139100403175 
3.7700000000035314, -0.1207071088154158 
3.7800000000035525, -0.11392348066846825 
3.7900000000035736, -0.10762042815685993 
3.8000000000035947, -0.1026166909986074 
3.810000000003616, -0.09896873668894485 
3.820000000003637, -0.0964040212811025 
3.830000000003658, -0.09461566877047187 
3.840000000003679, -0.09336386796000805 
3.8500000000037002, -0.09248545090857586 
3.8600000000037213, -0.09187814852580627 
3.8700000000037424, -0.09148426532233861 
3.8800000000037635, -0.0912799175589565 
3.8900000000037847, -0.09127037407123294 
3.9000000000038058, -0.09149115334656828 
3.910000000003827, -0.09201483118911861 
3.920000000003848, -0.09296326156763854 
3.930000000003869, -0.09452156214246452 
3.94000000000389, -0.09693748286705016 
3.9500000000039113, -0.10045641652838182 
3.9600000000039324, -0.10509403397043116 
3.9700000000039535, -0.11020927542552779 
3.9800000000039746, -0.11429656359373115 
3.9900000000039957, -0.1158445977348872 
4.000000000004016, -0.11474805432522997 
4.010000000003993, -0.1122368932100836 
4.02000000000397, -0.10956635396759758 
4.030000000003946, -0.10734277058501081 
4.040000000003923, -0.10567825179626397 
4.0500000000039, -0.10448866037934415 
4.0600000000038765, -0.10365690215555516 
4.070000000003853, -0.10308817551798792 
4.08000000000383, -0.10271955789274986 
4.090000000003807, -0.10251670404556404 
4.100000000003783, -0.10246968363531217 
4.11000000000376, -0.10259154956142376 
4.120000000003737, -0.10292067677135594 
4.130000000003713, -0.10352741700021036 
4.14000000000369, -0.1045253355581516 
4.150000000003667, -0.10608550476436643 
4.1600000000036434, -0.108445550651957 
4.17000000000362, -0.11188712785061064 
4.180000000003597, -0.11662536077071295 
4.1900000000035735, -0.12255657331070924 
4.20000000000355, -0.12898068259647605 
4.210000000003527, -0.13472471946787268 
4.220000000003504, -0.13885950058899582 
4.23000000000348, -0.14126666838086505 
4.240000000003457, -0.14242044671337506 
4.250000000003434, -0.14286965551081737 
4.26000000000341, -0.1429864441939856 
4.270000000003387, -0.1429674360652224 
4.280000000003364, -0.14290360006783123 
4.2900000000033405, -0.14283491071120558 
4.300000000003317, -0.14278033343990065 
4.310000000003294, -0.14275240492834615 
4.320000000003271, -0.1427644964515633 
4.330000000003247, -0.1428352248736045 
4.340000000003224, -0.14299207834492017 
4.350000000003201, -0.1432749794565929 
4.360000000003177, -0.1437395923770942 
4.370000000003154, -0.1444591233592218 
4.380000000003131, -0.14552149973505896 
4.390000000003107, -0.14701569491289115 
4.400000000003084, -0.14899854824546022 
4.410000000003061, -0.15144014226945712 
4.4200000000030375, -0.15417325705377521 
4.430000000003014, -0.15690556476538875 
4.440000000002991, -0.1593268128989211 
4.450000000002968, -0.16124109713012427 
4.460000000002944, -0.16261420351531922 
4.470000000002921, -0.16352310414254537 
4.480000000002898, -0.16408039951329084 
4.490000000002874, -0.1643871179046371 
4.500000000002851, -0.16451763774247546 
4.510000000002828, -0.16452145612768806 
4.520000000002804, -0.1644300521488863 
4.530000000002781, -0.16426398975488887 
4.540000000002758, -0.1640392314719492 
4.5500000000027345, -0.16377273811054194 
4.560000000002711, -0.1634870837808623 
4.570000000002688, -0.16321302030112905 
4.580000000002665, -0.16298866863805933 
4.590000000002641, -0.16285492393081236 
4.600000000002618, -0.16284811807265476 
4.610000000002595, -0.16299159226919033 
4.620000000002571, -0.163287553625469 
4.630000000002548, -0.16371120816618245 
4.640000000002525, -0.16421110592578775 
4.6500000000025015, -0.16471938269090272 
4.660000000002478, -0.1651697388706186 
4.670000000002455, -0.1655138825483654 
4.6800000000024315, -0.16572767216608203 
4.690000000002408, -0.16580633847056248 
4.700000000002385, -0.16575465227896286 
4.710000000002362, -0.165577789373966 
4.720000000002338, -0.16527527841032796 
4.730000000002315, -0.16483809685585837 
4.740000000002292, -0.16424879012172344 
4.750000000002268, -0.1634855397675739 
4.760000000002245, -0.16253187245013795 
4.770000000002222, -0.16139200484038346 
4.7800000000021985, -0.16010605517554194 
4.790000000002175, -0.1587531225498641 
4.800000000002152, -0.1574336846557536 
4.810000000002129, -0.15623879564839005 
4.820000000002105, -0.15522543792165228 
4.830000000002082, -0.15441008610423093 
