t, s[1].omega / s[0].omega 
0, -0.9199975964745187 
0.009999999999999995, -0.919713923355656 
0.019999999999999934, -0.9193466104435757 
0.029999999999999874, -0.9189022061903556 
0.04000000000000012, -0.9183921452984449 
0.050000000000000405, -0.9178332117974849 
0.06000000000000069, -0.9172478112514119 
0.07000000000000098, -0.9166639862498227 
0.08000000000000126, -0.9161147943145957 
0.09000000000000155, -0.9156362839547757 
0.10000000000000184, -0.9152634668513191 
0.11000000000000212, -0.915024660836897 
0.12000000000000241, -0.9149358612336315 
0.130000000000002, -0.9149973476555457 
0.1400000000000009, -0.9151939199523396 
0.1499999999999998, -0.9154984640304553 
0.1599999999999987, -0.9158771538373612 
0.1699999999999976, -0.9162943123157966 
0.1799999999999965, -0.9167156818495592 
0.1899999999999954, -0.9171099231229001 
0.1999999999999943, -0.917448993714838 
0.2099999999999932, -0.9177084388291679 
0.2199999999999921, -0.917868468685001 
0.229999999999991, -0.9179159284544639 
0.2399999999999899, -0.9178462414430838 
0.2499999999999888, -0.9176640510226604 
0.2599999999999877, -0.9173821463414289 
0.2699999999999866, -0.9170195900111476 
0.2799999999999855, -0.9166005141493697 
0.2899999999999844, -0.9161544331317719 
0.2999999999999833, -0.915717694123329 
0.3099999999999822, -0.9153345227331855 
0.3199999999999811, -0.9150555492579471 
0.32999999999998, -0.9149322983702481 
0.3399999999999789, -0.9150081435106117 
0.3499999999999778, -0.9153087063095606 
0.35999999999997667, -0.9158356221270771 
0.36999999999997557, -0.9165659082334141 
0.37999999999997447, -0.9174561618712774 
0.38999999999997337, -0.9184489069098672 
0.39999999999997227, -0.9194787514791004 
0.40999999999997117, -0.9204778271178927 
0.41999999999997006, -0.9213815565356303 
0.42999999999996896, -0.9221356981962364 
0.43999999999996786, -0.9227036423961599 
0.44999999999996676, -0.9230708617467467 
0.45999999999996566, -0.9232438368655927 
0.46999999999996456, -0.9232439264657752 
0.47999999999996346, -0.9230996061584532 
0.48999999999996235, -0.9228407641482654 
0.49999999999996125, -0.9224969468160197 
0.5099999999999602, -0.9220996151444529 
0.519999999999959, -0.9216874303242347 
0.529999999999958, -0.9213127688523652 
0.5399999999999568, -0.921046413416895 
0.5499999999999557, -0.9209761273398327 
0.5599999999999546, -0.9211954415911328 
0.5699999999999535, -0.9217830878896042 
0.5799999999999524, -0.9227795381543681 
0.5899999999999513, -0.9241701490104152 
0.5999999999999502, -0.9258813772926215 
0.6099999999999491, -0.9277904520168235 
0.619999999999948, -0.9297451677424053 
0.6299999999999469, -0.9315900719743995 
0.6399999999999458, -0.933194562892744 
0.6499999999999447, -0.9344754181114521 
0.6599999999999436, -0.9354051981092892 
0.6699999999999425, -0.9360036198102983 
0.6799999999999414, -0.9363181485435614 
0.6899999999999403, -0.936404230692524 
0.6999999999999392, -0.9363122525791352 
0.7099999999999381, -0.9360826132015362 
0.719999999999937, -0.9357471506686531 
0.7299999999999359, -0.9353350613384078 
0.7399999999999348, -0.9348824966078355 
0.7499999999999337, -0.9344453070033829 
0.7599999999999326, -0.9341125920120449 
0.7699999999999315, -0.934014522754419 
0.7799999999999304, -0.9343137653831693 
0.7899999999999293, -0.9351717034565518 
0.7999999999999282, -0.9366932365803505 
0.8099999999999271, -0.9388717380229851 
0.819999999999926, -0.9415636994064128 
0.8299999999999249, -0.9445115846867986 
0.8399999999999238, -0.9474102025205571 
0.8499999999999227, -0.9499898917785321 
0.8599999999999216, -0.9520801171550302 
0.8699999999999205, -0.9536277903232714 
0.8799999999999194, -0.9546719006916444 
0.8899999999999183, -0.9552986986615387 
0.8999999999999172, -0.9556026806748195 
0.9099999999999161, -0.9556643840761199 
0.919999999999915, -0.9555431630585056 
0.9299999999999139, -0.9552788761333663 
0.9399999999999128, -0.954898015182442 
0.9499999999999117, -0.9544229029194152 
0.9599999999999106, -0.9538849401074556 
0.9699999999999095, -0.9533433795633106 
0.9799999999999084, -0.9529081392328165 
0.9899999999999073, -0.9527570744819391 
0.9999999999999062, -0.9531273655878726 
1.0099999999999052, -0.9542592454197418 
1.019999999999904, -0.9562941630738507 
1.029999999999903, -0.9591740079471291 
1.039999999999902, -0.9626130680957582 
1.0499999999999008, -0.9661801979165556 
1.0599999999998997, -0.9694516066969106 
1.0699999999998986, -0.9721432214207143 
1.0799999999998975, -0.9741550133432886 
1.0899999999998964, -0.9755308547238762 
1.0999999999998953, -0.9763855062830823 
1.1099999999998942, -0.9768447344122247 
1.119999999999893, -0.9770138539185798 
1.129999999999892, -0.9769685983293458 
1.1399999999998909, -0.9767575092698071 
1.1499999999998898, -0.9764086947894487 
1.1599999999998887, -0.9759385897910626 
1.1699999999998876, -0.9753638759784531 
1.1799999999998865, -0.9747196676258596 
1.1899999999998854, -0.9740862838063397 
1.1999999999998843, -0.9736202009389314 
1.2099999999998832, -0.9735696556416121 
1.219999999999882, -0.9742398598255635 
1.229999999999881, -0.9758832134717004 
1.2399999999998799, -0.9785480251094022 
1.2499999999998788, -0.9819883595347582 
1.2599999999998777, -0.9857270095122411 
1.2699999999998766, -0.9892476439911775 
1.2799999999998755, -0.9921840122863894 
1.2899999999998744, -0.9943932823257432 
1.2999999999998733, -0.9959113541634494 
1.3099999999998722, -0.996862483580693 
1.319999999999871, -0.9973858438165799 
1.32999999999987, -0.9975979290428784 
1.3399999999998689, -0.9975819835437211 
1.3499999999998678, -0.9973906946955813 
1.3599999999998666, -0.9970534359784603 
1.3699999999998655, -0.9965851586833214 
1.3799999999998644, -0.9959981339224508 
1.3899999999998633, -0.9953202204069547 
1.3999999999998622, -0.9946232342816034 
1.4099999999998611, -0.9940585947618331 
1.41999999999986, -0.9938805340973712 
1.429999999999859, -0.9944165621286436 
1.4399999999998578, -0.9959514148232026 
1.4499999999998567, -0.9985564606330544 
1.4599999999998556, -1.0019829037538495 
1.4699999999998545, -1.0057290205752971 
1.4799999999998534, -1.0092530028685185 
1.4899999999998523, -1.0121774608217557 
1.4999999999998512, -1.014362079724982 
1.5099999999998501, -1.0158502275459278 
1.519999999999849, -1.0167721218909578 
1.529999999999848, -1.0172696861506787 
1.5399999999998468, -1.0174597829422802 
1.5499999999998457, -1.0174248977860916 
1.5599999999998446, -1.0172167890366213 
1.5699999999998435, -1.016864517360442 
1.5799999999998424, -1.01638439145493 
1.5899999999998413, -1.0157935368533972 
1.5999999999998402, -1.0151309856342206 
1.6099999999998391, -1.0144887906309887 
1.619999999999838, -1.0140463029201359 
1.629999999999837, -1.0140811118327886 
1.6399999999998358, -1.0149144013850493 
1.6499999999998347, -1.0167732253505286 
1.6599999999998336, -1.0196321388339809 
1.6699999999998325, -1.0231591848018269 
1.6799999999998314, -1.0268343153477786 
1.6899999999998303, -1.030164510156691 
1.6999999999998292, -1.032846982206424 
1.709999999999828, -1.034800362824831 
1.719999999999827, -1.036096577362001 
1.729999999999826, -1.036870616194538 
1.7399999999998248, -1.0372574963515864 
1.7499999999998237, -1.0373642472704019 
1.7599999999998226, -1.037264941162655 
1.7699999999998215, -1.0370062263630726 
1.7799999999998204, -1.0366168131157483 
1.7899999999998193, -1.0361198724926504 
1.7999999999998182, -1.0355506052412211 
1.809999999999817, -1.0349813434226267 
1.819999999999816, -1.034550633560425 
1.8299999999998149, -1.0344784796166737 
1.8399999999998138, -1.0350356331999335 
1.8499999999998127, -1.036446722229448 
1.8599999999998116, -1.0387617436497771 
1.8699999999998105, -1.0417843099651267 
1.8799999999998094, -1.0451226444325195 
1.8899999999998083, -1.048336779619674 
1.8999999999998072, -1.0510877881067224 
1.909999999999806, -1.0532107517281086 
1.919999999999805, -1.0546993989099003 
1.9299999999998039, -1.0556425843620665 
1.9399999999998028, -1.056160101320342 
1.9499999999998017, -1.0563622309425544 
1.9599999999998006, -1.056333802142123 
1.9699999999997995, -1.0561337974995735 
1.9799999999997984, -1.0558026076219524 
1.9899999999997973, -1.0553734804933437 
1.9999999999997962, -1.054888105313688 
2.0099999999998173, -1.0544164696919884 
2.0199999999998384, -1.0540762405596613 
2.0299999999998595, -1.0540372427606526 
2.0399999999998806, -1.054491161295798 
2.0499999999999017, -1.0555821578109812 
2.059999999999923, -1.057330423806325 
2.069999999999944, -1.0596005774910806 
2.079999999999965, -1.062138697424703 
2.089999999999986, -1.064653485332272 
2.100000000000007, -1.0668971112211856 
2.1100000000000283, -1.0687146434468964 
2.1200000000000494, -1.0700532963443055 
2.1300000000000705, -1.0709400286898587 
2.1400000000000916, -1.0714454150356496 
2.1500000000001127, -1.071651177489104 
2.160000000000134, -1.0716304351698256 
2.170000000000155, -1.0714409480817264 
2.180000000000176, -1.0711276395714076 
2.190000000000197, -1.0707309859683174 
2.2000000000002182, -1.070299174725218 
2.2100000000002393, -1.06990129096334 
2.2200000000002604, -1.0696350557996053 
2.2300000000002815, -1.0696187755384354 
2.2400000000003026, -1.0699612492554171 
2.2500000000003237, -1.0707197342992163 
2.260000000000345, -1.0718712601493592 
2.270000000000366, -1.073316040388957 
2.280000000000387, -1.074907913160604 
2.290000000000408, -1.0764919269148252 
2.3000000000004293, -1.0779338243080097 
2.3100000000004504, -1.0791373604171166 
2.3200000000004715, -1.0800509100601516 
2.3300000000004926, -1.0806649036408713 
2.3400000000005137, -1.081001746869487 
2.3500000000005348, -1.0811019208098602 
2.360000000000556, -1.0810113755467736 
2.370000000000577, -1.0807740823506915 
2.380000000000598, -1.0804308801079028 
2.390000000000619, -1.0800235539930267 
2.4000000000006403, -1.0796016335783012 
2.4100000000006614, -1.0792277099858747 
2.4200000000006825, -1.0789754914659762 
2.4300000000007036, -1.0789164701196048 
2.4400000000007247, -1.0790985416160541 
2.450000000000746, -1.07952839126688 
2.460000000000767, -1.080168803708839 
2.470000000000788, -1.0809512414821425 
2.480000000000809, -1.0817945519226417 
2.49000000000083, -1.0826205916722045 
2.5000000000008513, -1.0833633024180842 
2.5100000000008724, -1.0839725632536867 
2.5200000000008935, -1.0844154410317763 
2.5300000000009146, -1.0846762991795713 
2.5400000000009357, -1.0847556594089247 
2.550000000000957, -1.0846673435562209 
2.560000000000978, -1.0844344484298047 
2.570000000000999, -1.084085855570557 
2.58000000000102, -1.08365492540651 
2.5900000000010412, -1.083180627534962 
2.6000000000010624, -1.0827093443652598 
2.6100000000010835, -1.0822939865093968 
2.6200000000011046, -1.0819873978229313 
2.6300000000011257, -1.081830513780313 
2.6400000000011468, -1.0818405793633281 
2.650000000001168, -1.0820061201283735 
2.660000000001189, -1.0822912096623831 
2.67000000000121, -1.082645908755652 
2.680000000001231, -1.0830174266447692 
2.6900000000012523, -1.0833580914020795 
2.7000000000012734, -1.083629167674735 
2.7100000000012945, -1.083801685557916 
2.7200000000013156, -1.0838559899430265 
2.7300000000013367, -1.083781180542458 
2.740000000001358, -1.0835748181988172 
2.750000000001379, -1.0832427452462814 
2.7600000000014, -1.0827988103702948 
2.770000000001421, -1.0822646061014456 
2.780000000001442, -1.0816695189530119 
2.7900000000014633, -1.0810508970712003 
2.8000000000014844, -1.0804530604740774 
2.8100000000015055, -1.079923256136367 
2.8200000000015266, -1.07950374583884 
2.8300000000015477, -1.079221943255125 
2.840000000001569, -1.079082821574112 
2.85000000000159, -1.0790674504085453 
2.860000000001611, -1.0791384550928798 
2.870000000001632, -1.079249547518363 
2.8800000000016532, -1.0793546338049902 
2.8900000000016743, -1.0794134235709887 
2.9000000000016954, -1.079393391978464 
2.9100000000017165, -1.0792698417857725 
2.9200000000017377, -1.07902574739088 
2.9300000000017588, -1.0786519669448642 
2.94000000000178, -1.078147582000439 
2.950000000001801, -1.0775200892128083 
2.960000000001822, -1.076785547537286 
2.970000000001843, -1.0759689414412787 
2.9800000000018643, -1.075104683649005 
2.9900000000018854, -1.0742364690112844 
3.0000000000019065, -1.0734149805744857 
3.0100000000019276, -1.072691931033908 
3.0200000000019487, -1.0721103073028444 
3.03000000000197, -1.0716933461109122 
3.040000000001991, -1.0714371354618206 
3.050000000002012, -1.0713113232427467 
3.060000000002033, -1.0712681187214776 
3.070000000002054, -1.0712545363132482 
3.0800000000020753, -1.0712215918698849 
3.0900000000020964, -1.0711277340277485 
3.1000000000021175, -1.0709381232206736 
3.1100000000021386, -1.0706230864298258 
3.1200000000021597, -1.0701582276280377 
3.130000000002181, -1.069526776743023 
3.140000000002202, -1.0687230540399855 
3.150000000002223, -1.0677553032627243 
3.160000000002244, -1.0666469029453727 
3.1700000000022652, -1.0654362294045665 
3.1800000000022863, -1.0641758019709882 
3.1900000000023074, -1.062930335104858 
3.2000000000023285, -1.0617719004656547 
3.2100000000023496, -1.0607701382729555 
3.2200000000023707, -1.0599776483635066 
3.230000000002392, -1.0594151532218636 
3.240000000002413, -1.0590645069701663 
3.250000000002434, -1.05887510111071 
3.260000000002455, -1.0587805346595 
3.2700000000024763, -1.058715580009212 
3.2800000000024974, -1.0586253019586078 
3.2900000000025185, -1.0584653360974483 
3.3000000000025396, -1.0581973737954633 
3.3100000000025607, -1.0577845695562205 
3.3200000000025818, -1.0571901161875563 
3.330000000002603, -1.0563804850818703 
3.340000000002624, -1.0553328956675894 
3.350000000002645, -1.0540444489166882 
3.360000000002666, -1.0525392421025477 
3.3700000000026873, -1.050870898677169 
3.3800000000027084, -1.0491202615565827 
3.3900000000027295, -1.047388880907252 
3.4000000000027506, -1.0457876391587684 
3.4100000000027717, -1.0444189860658546 
3.420000000002793, -1.0433541976850824 
3.430000000002814, -1.0426136589073203 
3.440000000002835, -1.0421619705359606 
3.450000000002856, -1.0419231113325844 
3.460000000002877, -1.0418071380319938 
3.4700000000028983, -1.0417329148772536 
3.4800000000029194, -1.041637585440816 
3.4900000000029405, -1.0414740835120873 
3.5000000000029616, -1.0412030554410605 
3.5100000000029827, -1.0407847770641268 
3.520000000003004, -1.0401744119425418 
3.530000000003025, -1.0393227504193445 
3.540000000003046, -1.0381838333968254 
3.550000000003067, -1.036728927981114 
3.5600000000030882, -1.0349628461361289 
3.5700000000031094, -1.032935977387512 
3.5800000000031305, -1.0307465313871205 
3.5900000000031516, -1.0285314080466788 
3.6000000000031727, -1.0264467880273203 
3.6100000000031938, -1.0246400549095118 
3.620000000003215, -1.023217067754431 
3.630000000003236, -1.0222152529390853 
3.640000000003257, -1.0215969544140802 
3.650000000003278, -1.0212693142556086 
3.6600000000032993, -1.021119734394553 
3.6700000000033204, -1.0210468004716824 
3.6800000000033415, -1.020974168727532 
3.6900000000033626, -1.0208486114445603 
3.7000000000033837, -1.0206302148532407 
3.710000000003405, -1.0202816188775015 
3.720000000003426, -1.0197599023914639 
3.730000000003447, -1.0190130393570291 
3.740000000003468, -1.0179828987930992 
3.750000000003489, -1.0166166316290854 
3.7600000000035103, -1.014885793005278 
3.7700000000035314, -1.0128075488194412 
3.7800000000035525, -1.0104584743504916 
3.7900000000035736, -1.00797315824606 
3.8000000000035947, -1.0055260164453605 
3.810000000003616, -1.0032998942521767 
3.820000000003637, -1.0014475994804288 
3.830000000003658, -1.0000561073902061 
3.840000000003679, -0.9991275589001811 
3.8500000000037002, -0.9985881713578895 
3.8600000000037213, -0.9983214758506822 
3.8700000000037424, -0.9982072345482127 
3.8800000000037635, -0.998147192347696 
3.8900000000037847, -0.9980717803978981 
3.9000000000038058, -0.9979335821846511 
3.910000000003827, -0.9976960684937415 
3.920000000003848, -0.9973231445241426 
3.930000000003869, -0.9967719843187062 
3.94000000000389, -0.9959906587192137 
3.9500000000039113, -0.9949224590051022 
3.9600000000039324, -0.9935185126033227 
3.9700000000039535, -0.9917573031138998 
3.9800000000039746, -0.9896645163089806 
3.9900000000039957, -0.9873235592824292 
4.000000000004016, -0.9848702693323418 
4.010000000003993, -0.9824724429891474 
4.02000000000397, -0.9802995741523695 
4.030000000003946, -0.9784892287405398 
4.040000000003923, -0.9771178779408822 
4.0500000000039, -0.9761864969143126 
4.0600000000038765, -0.9756288534710358 
4.070000000003853, -0.9753395787069244 
4.08000000000383, -0.9752075632908834 
4.090000000003807, -0.9751393103736467 
4.100000000003783, -0.9750664476101024 
4.11000000000376, -0.9749413089671396 
4.120000000003737, -0.9747275964481792 
4.130000000003713, -0.9743912861678128 
4.14000000000369, -0.973894436601506 
4.150000000003667, -0.9731934605351663 
4.1600000000036434, -0.9722432838287351 
4.17000000000362, -0.97100797615046 
4.180000000003597, -0.969475634495884 
4.1900000000035735, -0.9676716387294443 
4.20000000000355, -0.9656635397358431 
4.210000000003527, -0.9635548202592259 
4.220000000003504, -0.9614701765538118 
4.23000000000348, -0.9595368283743287 
4.240000000003457, -0.9578647732827023 
4.250000000003434, -0.9565281074638323 
4.26000000000341, -0.9555515704118273 
4.270000000003387, -0.954908248681962 
4.280000000003364, -0.9545313322239206 
4.2900000000033405, -0.9543353691790626 
4.300000000003317, -0.9542371248141684 
4.310000000003294, -0.95416798032327 
4.320000000003271, -0.9540762641875329 
4.330000000003247, -0.9539229530396064 
4.340000000003224, -0.9536753025517365 
4.350000000003201, -0.9533017803571996 
4.360000000003177, -0.952770312813135 
4.370000000003154, -0.9520508751954291 
4.380000000003131, -0.9511221576343039 
4.390000000003107, -0.9499799847211478 
4.400000000003084, -0.9486434891038279 
4.410000000003061, -0.9471557826521044 
4.4200000000030375, -0.9455791019262696 
4.430000000003014, -0.9439871929007507 
4.440000000002991, -0.9424575379781244 
4.450000000002968, -0.9410638683749081 
4.460000000002944, -0.9398680155596342 
4.470000000002921, -0.9389110037921343 
4.480000000002898, -0.9382055925365952 
4.490000000002874, -0.9377339930290287 
4.500000000002851, -0.9374531291080144 
4.510000000002828, -0.9373058764473564 
4.520000000002804, -0.9372333357644725 
4.530000000002781, -0.9371833028564795 
4.540000000002758, -0.9371131829057318 
4.5500000000027345, -0.9369887588597561 
4.560000000002711, -0.9367815518942653 
4.570000000002688, -0.9364671710994277 
4.580000000002665, -0.9360259177532659 
4.590000000002641, -0.9354454755857498 
4.600000000002618, -0.9347241441560751 
4.610000000002595, -0.9338725483191401 
4.620000000002571, -0.9329127449980156 
4.630000000002548, -0.9318754706979545 
4.640000000002525, -0.9307972368221147 
4.6500000000025015, -0.9297183238130076 
4.660000000002478, -0.9286813444906992 
4.670000000002455, -0.9277291846967592 
4.6800000000024315, -0.9269012744327696 
4.690000000002408, -0.9262281482850367 
4.700000000002385, -0.9257256540921708 
4.710000000002362, -0.9253911702873076 
4.720000000002338, -0.9252039021839119 
4.730000000002315, -0.9251295394379617 
4.740000000002292, -0.9251273478161817 
4.750000000002268, -0.9251568008658781 
4.760000000002245, -0.9251817676097087 
4.770000000002222, -0.9251720916127899 
4.7800000000021985, -0.9251036927145166 
4.790000000002175, -0.9249584603673219 
4.800000000002152, -0.924724485558912 
4.810000000002129, -0.9243963367328984 
4.820000000002105, -0.9239748224490427 
4.830000000002082, -0.9234661566246597 
4.840000000002059, -0.9228810543648664 
4.850000000002035, -0.9222343338994424 
4.860000000002012, -0.9215451157468955 
4.870000000001989, -0.9208372536452462 
4.880000000001965, -0.920139450685373 
4.890000000001942, -0.9194844355092128 
4.900000000001919, -0.918906568753982 
4.9100000000018955, -0.9184376199299527 
4.920000000001872, -0.9181013642351907 
4.930000000001849, -0.9179086669810526 
