t, s[1].omega / s[0].omega 
0, -0.6299977167549163 
0.009999999999999995, -0.6297645531405901 
0.019999999999999934, -0.6295182990652217 
0.029999999999999874, -0.6292502873098595 
0.04000000000000012, -0.6289509900983349 
0.050000000000000405, -0.6286142695097726 
0.06000000000000069, -0.6282397211290925 
0.07000000000000098, -0.6278330513375081 
0.08000000000000126, -0.6274057409510445 
0.09000000000000155, -0.6269753943299645 
0.10000000000000184, -0.6265676313168814 
0.11000000000000212, -0.6262198130656482 
0.12000000000000241, -0.625986511305084 
0.130000000000002, -0.6259462630874884 
0.1400000000000009, -0.626208499898517 
0.1499999999999998, -0.626918265590587 
0.1599999999999987, -0.6282540848989268 
0.1699999999999976, -0.6304110333360424 
0.1799999999999965, -0.6335581721312902 
0.1899999999999954, -0.637762886443362 
0.1999999999999943, -0.6428956981257017 
0.2099999999999932, -0.6485718126247118 
0.2199999999999921, -0.6542120398445873 
0.229999999999991, -0.6592401253335443 
0.2399999999999899, -0.6632944853617462 
0.2499999999999888, -0.6662996715638981 
0.2599999999999877, -0.668384269066683 
0.2699999999999866, -0.669753355681203 
0.2799999999999855, -0.6706015075816869 
0.2899999999999844, -0.6710788406726985 
0.2999999999999833, -0.6712880775082799 
0.3099999999999822, -0.6712922571195146 
0.3199999999999811, -0.6711228377813414 
0.32999999999998, -0.6707846846959027 
0.3399999999999789, -0.6702573586321228 
0.3499999999999778, -0.6694933664212883 
0.35999999999997667, -0.66841541268192 
0.36999999999997557, -0.666917469241029 
0.37999999999997447, -0.6648786180179683 
0.38999999999997337, -0.6622000388019332 
0.39999999999997227, -0.6588644493417178 
0.40999999999997117, -0.6549896040212219 
0.41999999999997006, -0.6508283963030727 
0.42999999999996896, -0.6466979246152074 
0.43999999999996786, -0.642880929139479 
0.44999999999996676, -0.6395614377248509 
0.45999999999996566, -0.6368158580423086 
0.46999999999996456, -0.6346391316334247 
0.47999999999996346, -0.6329783687735586 
0.48999999999996235, -0.631759289083757 
0.49999999999996125, -0.6309027923569002 
0.5099999999999602, -0.6303340148463812 
0.519999999999959, -0.6299867571441508 
0.529999999999958, -0.629805260069322 
0.5399999999999568, -0.6297444380632496 
0.5499999999999557, -0.6297692075247667 
0.5599999999999546, -0.6298533660050457 
0.5699999999999535, -0.6299783908714776 
0.5799999999999524, -0.6301323724577681 
0.5899999999999513, -0.6303089914231751 
0.5999999999999502, -0.6305060502622635 
0.6099999999999491, -0.6307228703369543 
0.619999999999948, -0.6309563195768515 
0.6299999999999469, -0.6311964794495747 
0.6399999999999458, -0.631424267994337 
0.6499999999999447, -0.6316132969009993 
0.6599999999999436, -0.6317360405330961 
0.6699999999999425, -0.6317713079434035 
0.6799999999999414, -0.6317089182215259 
0.6899999999999403, -0.631549680189624 
0.6999999999999392, -0.6313020690634721 
0.7099999999999381, -0.630978454766824 
0.719999999999937, -0.6305930389175958 
0.7299999999999359, -0.6301623903749413 
0.7399999999999348, -0.6297088075900497 
0.7499999999999337, -0.6292667299082353 
0.7599999999999326, -0.6288925460092631 
0.7699999999999315, -0.6286777063030072 
0.7799999999999304, -0.6287630874335078 
0.7899999999999293, -0.6293477977112377 
0.7999999999999282, -0.630677363457414 
0.8099999999999271, -0.6329882959867322 
0.819999999999926, -0.6363941084881864 
0.8299999999999249, -0.640747340600946 
0.8399999999999238, -0.6455911525608852 
0.8499999999999227, -0.6503083704352355 
0.8599999999999216, -0.6543940991694586 
0.8699999999999205, -0.6576247335908263 
0.8799999999999194, -0.6600233488660739 
0.8899999999999183, -0.6617309666275613 
0.8999999999999172, -0.6629070326079896 
0.9099999999999161, -0.6636865765047473 
0.919999999999915, -0.664171218432787 
0.9299999999999139, -0.6644323110401359 
0.9399999999999128, -0.6645162405634313 
0.9499999999999117, -0.6644486906577394 
0.9599999999999106, -0.6642371705471735 
0.9699999999999095, -0.6638719638418416 
0.9799999999999084, -0.6633262708877852 
0.9899999999999073, -0.6625573065585001 
0.9999999999999062, -0.661511532410842 
1.0099999999999052, -0.6601379651143748 
1.019999999999904, -0.6584108175460606 
1.029999999999903, -0.656354384225611 
1.039999999999902, -0.6540540844401127 
1.0499999999999008, -0.6516409264223111 
1.0599999999998997, -0.649255675957412 
1.0699999999998986, -0.6470145464871694 
1.0799999999998975, -0.6449930832831859 
1.0899999999998964, -0.643228430452704 
1.0999999999998953, -0.6417304968260518 
1.1099999999998942, -0.6404934257975496 
1.119999999999893, -0.6395036016129025 
1.129999999999892, -0.6387440200169893 
1.1399999999998909, -0.6381962509666665 
1.1499999999998898, -0.637841279870962 
1.1599999999998887, -0.6376600879644896 
1.1699999999998876, -0.63763436440462 
1.1799999999998865, -0.6377473933574668 
1.1899999999998854, -0.6379849567313254 
1.1999999999998843, -0.638335993594607 
1.2099999999998832, -0.6387926747982153 
1.219999999999882, -0.6393494207852373 
1.229999999999881, -0.640000284111265 
1.2399999999998799, -0.6407343484337596 
1.2499999999998788, -0.6415298109853668 
1.2599999999998777, -0.6423492632480826 
1.2699999999998766, -0.6431401911448023 
1.2799999999998755, -0.643843499515863 
1.2899999999998744, -0.6444078191355882 
1.2999999999998733, -0.6448020657008794 
1.3099999999998722, -0.6450192137822309 
1.319999999999871, -0.6450707477713176 
1.32999999999987, -0.6449769532354204 
1.3399999999998689, -0.6447584812965 
1.3499999999998678, -0.6444315515629532 
1.3599999999998666, -0.6440066099711905 
1.3699999999998655, -0.6434895320936065 
1.3799999999998644, -0.642884885523972 
1.3899999999998633, -0.6422014042912985 
1.3999999999998622, -0.6414599840925834 
1.4099999999998611, -0.640703364338414 
1.41999999999986, -0.640003105517682 
1.429999999999859, -0.6394534299404693 
1.4399999999998578, -0.6391386636523274 
1.4499999999998567, -0.639077352902943 
1.4599999999998556, -0.6391894807055455 
1.4699999999998545, -0.639349818980752 
1.4799999999998534, -0.6394979191468605 
1.4899999999998523, -0.6396736526027863 
1.4999999999998512, -0.6399404667649855 
1.5099999999998501, -0.6403085770343993 
1.519999999999849, -0.6407325962577813 
1.529999999999848, -0.6411499866954186 
1.5399999999998468, -0.6415109930794423 
1.5499999999998457, -0.6417871745109478 
1.5599999999998446, -0.6419670127379664 
1.5699999999998435, -0.6420480126496992 
1.5799999999998424, -0.6420298185016482 
1.5899999999998413, -0.6419094054412765 
1.5999999999998402, -0.6416781559222573 
1.6099999999998391, -0.6413207038224 
1.619999999999838, -0.6408160626372575 
1.629999999999837, -0.6401421021422424 
1.6399999999998358, -0.6392839750435282 
1.6499999999998347, -0.6382447020720655 
1.6599999999998336, -0.6370525975506542 
1.6699999999998325, -0.6357593909265311 
1.6799999999998314, -0.6344280695181018 
1.6899999999998303, -0.6331170485415443 
1.6999999999998292, -0.631869361045912 
1.709999999999828, -0.6307105573102896 
1.719999999999827, -0.6296530181658759 
1.729999999999826, -0.6287023005159006 
1.7399999999998248, -0.6278624351140305 
1.7499999999998237, -0.6271391569394745 
1.7599999999998226, -0.6265413233699682 
1.7699999999998215, -0.6260811463632421 
1.7799999999998204, -0.6257737812260236 
1.7899999999998193, -0.6256366499451435 
1.7999999999998182, -0.6256887585697284 
1.809999999999817, -0.6259501586838697 
1.819999999999816, -0.6264415188947375 
1.8299999999998149, -0.627183451335627 
1.8399999999998138, -0.6281947725417332 
1.8499999999998127, -0.6294883744337596 
1.8599999999998116, -0.6310632188729478 
1.8699999999998105, -0.6328920081824767 
1.8799999999998094, -0.6349074657579272 
1.8899999999998083, -0.6369956825040022 
1.8999999999998072, -0.6390080349531033 
1.909999999999806, -0.6407954797091409 
1.919999999999805, -0.6422505396727263 
1.9299999999998039, -0.643331417006869 
1.9399999999998028, -0.6440557879194982 
1.9499999999998017, -0.6444750632707681 
1.9599999999998006, -0.6446480089595459 
1.9699999999997995, -0.6446240306980109 
1.9799999999997984, -0.6444360236178698 
1.9899999999997973, -0.6440984914543324 
1.9999999999997962, -0.6436070155268678 
2.0099999999998173, -0.6429366625753458 
2.0199999999998384, -0.6420380172327673 
2.0299999999998595, -0.6408302303369198 
2.0399999999998806, -0.6391917089125423 
2.0499999999999017, -0.6369528394762 
2.059999999999923, -0.633904453653359 
2.069999999999944, -0.6298496160247058 
2.079999999999965, -0.6247238144672254 
2.089999999999986, -0.6187462982440339 
2.100000000000007, -0.612462486342315 
2.1100000000000283, -0.6065641787885478 
2.1200000000000494, -0.6015980567394523 
2.1300000000000705, -0.5977968087438681 
2.1400000000000916, -0.5951104370384439 
2.1500000000001127, -0.5933356036579548 
2.160000000000134, -0.5922316201929823 
2.170000000000155, -0.5915846122838025 
2.180000000000176, -0.5912293202344017 
2.190000000000197, -0.5910481650897264 
2.2000000000002182, -0.5909617268262697 
2.2100000000002393, -0.5909179277103529 
2.2200000000002604, -0.590882856961952 
2.2300000000002815, -0.5908340636116913 
2.2400000000003026, -0.5907563398575517 
2.2500000000003237, -0.5906397754553722 
2.260000000000345, -0.5904796713212391 
2.270000000000366, -0.5902774505114331 
2.280000000000387, -0.5900410865232286 
2.290000000000408, -0.5897834433443586 
2.3000000000004293, -0.5895180306835879 
2.3100000000004504, -0.5892536971746452 
2.3200000000004715, -0.5889910829584716 
2.3300000000004926, -0.5887228932800324 
2.3400000000005137, -0.5884377210121462 
2.3500000000005348, -0.588125095354636 
2.360000000000556, -0.5877792086979662 
2.370000000000577, -0.5874002887338399 
2.380000000000598, -0.5869943541236542 
2.390000000000619, -0.5865728518841898 
2.4000000000006403, -0.5861534217385493 
2.4100000000006614, -0.5857624805510447 
2.4200000000006825, -0.5854399499937091 
2.4300000000007036, -0.5852462490326067 
2.4400000000007247, -0.585271321032519 
2.450000000000746, -0.5856444621558458 
2.460000000000767, -0.586541335240378 
2.470000000000788, -0.5881799478747485 
2.480000000000809, -0.5907907708567636 
2.49000000000083, -0.5945427720857515 
2.5000000000008513, -0.5994229162293413 
2.5100000000008724, -0.6051209113221213 
2.5200000000008935, -0.6110362516181538 
2.5300000000009146, -0.61648392175945 
2.5400000000009357, -0.6209799221859809 
2.550000000000957, -0.6243764402732979 
2.560000000000978, -0.6267840840161222 
2.570000000000999, -0.6284168243361519 
2.58000000000102, -0.6294838196254331 
2.5900000000010412, -0.6301483002614188 
2.6000000000010624, -0.6305244041345739 
2.6100000000010835, -0.6306862593114807 
2.6200000000011046, -0.6306775825583215 
2.6300000000011257, -0.63051840799989 
2.6400000000011468, -0.6302087603122599 
2.650000000001168, -0.6297301547413934 
2.660000000001189, -0.6290465642733876 
2.67000000000121, -0.6281076865825048 
2.680000000001231, -0.6268586307050071 
2.6900000000012523, -0.625259401535155 
2.7000000000012734, -0.623311430370588 
2.7100000000012945, -0.6210776486793281 
2.7200000000013156, -0.6186784509927483 
2.7300000000013367, -0.616260141130396 
2.740000000001358, -0.6139545245033293 
2.750000000001379, -0.611852984066557 
2.7600000000014, -0.6100027195851891 
2.770000000001421, -0.6084173088713134 
2.780000000001442, -0.6070905958100592 
2.7900000000014633, -0.6060075685839894 
2.8000000000014844, -0.6051508003072477 
2.8100000000015055, -0.6045034409427059 
2.8200000000015266, -0.6040502385812402 
2.8300000000015477, -0.6037777466273545 
2.840000000001569, -0.6036744016021383 
2.85000000000159, -0.6037307686126322 
2.860000000001611, -0.6039399794205209 
2.870000000001632, -0.6042981927760915 
2.8800000000016532, -0.6048047252266077 
2.8900000000016743, -0.6054612755227211 
2.9000000000016954, -0.6062694208893608 
2.9100000000017165, -0.6072255365571607 
2.9200000000017377, -0.6083130166003186 
2.9300000000017588, -0.6094937268945753 
2.94000000000178, -0.6107036260984211 
2.950000000001801, -0.6118587926248025 
2.960000000001822, -0.6128737037659675 
2.970000000001843, -0.6136840682570085 
2.9800000000018643, -0.6142609261202745 
2.9900000000018854, -0.6146088968678969 
3.0000000000019065, -0.6147531199582368 
3.0100000000019276, -0.6147244511088784 
3.0200000000019487, -0.6145490033342454 
3.03000000000197, -0.6142427991546449 
3.040000000001991, -0.6138096223112375 
3.050000000002012, -0.6132399437808667 
3.060000000002033, -0.6125094283221734 
3.070000000002054, -0.6115760249658041 
3.0800000000020753, -0.6103748118653358 
3.0900000000020964, -0.6088100804060497 
3.1000000000021175, -0.6067464607655224 
3.1100000000021386, -0.6040095346995351 
3.1200000000021597, -0.6004240050083458 
3.130000000002181, -0.5959239628696361 
3.140000000002202, -0.5907077921514238 
3.150000000002223, -0.5852872755730971 
3.160000000002244, -0.5803020623354735 
3.1700000000022652, -0.5762260643896329 
3.1800000000022863, -0.5732190122642938 
3.1900000000023074, -0.5711836322784948 
3.2000000000023285, -0.5699036604013347 
3.2100000000023496, -0.5691516620895902 
3.2200000000023707, -0.5687399077198882 
3.230000000002392, -0.5685316806330504 
3.240000000002413, -0.5684345438420554 
3.250000000002434, -0.568388687994214 
3.260000000002455, -0.5683561081156361 
3.2700000000024763, -0.5683123855772358 
3.2800000000024974, -0.5682412474761176 
3.2900000000025185, -0.5681316323274357 
3.3000000000025396, -0.5679769120718062 
3.3100000000025607, -0.5677757080583578 
3.3200000000025818, -0.5675331845091892 
3.330000000002603, -0.5672611186978899 
3.340000000002624, -0.5669752841523948 
3.350000000002645, -0.5666902884147487 
3.360000000002666, -0.5664141019267876 
3.3700000000026873, -0.5661452571325468 
3.3800000000027084, -0.5658742589490153 
3.3900000000027295, -0.5655882211630172 
3.4000000000027506, -0.5652760541539554 
3.4100000000027717, -0.5649318255098816 
3.420000000002793, -0.5645556746012967 
3.430000000002814, -0.5641533032574184 
3.440000000002835, -0.5637355749311402 
3.450000000002856, -0.563319382166496 
3.460000000002877, -0.5629304250439542 
3.4700000000028983, -0.5626082663930672 
3.4800000000029194, -0.5624138966736089 
3.4900000000029405, -0.5624396613021164 
3.5000000000029616, -0.5628201263351149 
3.5100000000029827, -0.5637392680900974 
3.520000000003004, -0.5654231603082096 
3.530000000003025, -0.5680990652865624 
3.540000000003046, -0.5719008555130707 
3.550000000003067, -0.5767309395296437 
3.5600000000030882, -0.5821658108747676 
3.5700000000031094, -0.5875436784685883 
3.5800000000031305, -0.5922464951948203 
3.5900000000031516, -0.5959551250387245 
3.6000000000031727, -0.5986723740087678 
3.6100000000031938, -0.6005750415485375 
3.620000000003215, -0.6018703648290942 
3.630000000003236, -0.6027294283116027 
3.640000000003257, -0.6032753164497765 
3.650000000003278, -0.6035911161962062 
3.6600000000032993, -0.6037302144980065 
3.6700000000033204, -0.6037239256707161 
3.6800000000033415, -0.6035861628886066 
3.6900000000033626, -0.6033159904217016 
3.7000000000033837, -0.6028991918322533 
3.710000000003405, -0.602310440201896 
3.720000000003426, -0.6015183014266364 
3.730000000003447, -0.6004953031408916 
3.740000000003468, -0.5992329757026573 
3.750000000003489, -0.5977564000342447 
3.7600000000035103, -0.5961282642523396 
3.7700000000035314, -0.5944361417920053 
3.7800000000035525, -0.5927687697168734 
3.7900000000035736, -0.5911953439236691 
3.8000000000035947, -0.5897574092177212 
3.810000000003616, -0.5884725382918723 
3.820000000003637, -0.587343320180927 
3.830000000003658, -0.5863660202107475 
3.840000000003679, -0.5855364877521829 
3.8500000000037002, -0.5848532722068709 
3.8600000000037213, -0.584318826602955 
3.8700000000037424, -0.5839396966399331 
3.8800000000037635, -0.5837263204004371 
3.8900000000037847, -0.583692803138166 
3.9000000000038058, -0.5838568370967063 
3.910000000003827, -0.584239749841456 
3.920000000003848, -0.5848664005846299 
3.930000000003869, -0.5857642271521445 
3.94000000000389, -0.5869601599106289 
3.9500000000039113, -0.5884735504294969 
3.9600000000039324, -0.5903034021553362 
3.9700000000039535, -0.5924104773704023 
3.9800000000039746, -0.5947006854853562 
3.9900000000039957, -0.5970235001079688 
4.000000000004016, -0.5991987009624012 
4.010000000003993, -0.6010669249292242 
4.02000000000397, -0.6025354781538266 
4.030000000003946, -0.6035906379313433 
4.040000000003923, -0.6042757637430495 
4.0500000000039, -0.6046575277520738 
4.0600000000038765, -0.6047999084900012 
4.070000000003853, -0.6047510842940784 
4.08000000000383, -0.604539218062597 
4.090000000003807, -0.6041716943873487 
4.100000000003783, -0.6036340678700135 
4.11000000000376, -0.6028866800687617 
4.120000000003737, -0.6018580679179465 
4.130000000003713, -0.6004358656585442 
4.14000000000369, -0.5984598597610299 
4.150000000003667, -0.5957304130211313 
4.1600000000036434, -0.5920560866916725 
4.17000000000362, -0.587358195803573 
4.180000000003597, -0.5817969539389245 
4.1900000000035735, -0.5758087688967847 
4.20000000000355, -0.5699721338309485 
4.210000000003527, -0.5647834849058033 
4.220000000003504, -0.5605131059709987 
4.23000000000348, -0.5572056016774455 
4.240000000003457, -0.5547619084370765 
4.250000000003434, -0.553024179523516 
4.26000000000341, -0.551830323347178 
4.270000000003387, -0.5510393680620244 
4.280000000003364, -0.5505388469712712 
4.2900000000033405, -0.5502435909482537 
4.300000000003317, -0.550091384239044 
4.310000000003294, -0.5500381088740125 
4.320000000003271, -0.550053477499762 
4.330000000003247, -0.5501177438556489 
4.340000000003224, -0.5502194431312948 
4.350000000003201, -0.5503539607462752 
4.360000000003177, -0.5505224046134294 
4.370000000003154, -0.550729901866572 
4.380000000003131, -0.5509823640541625 
4.390000000003107, -0.5512814103480248 
4.400000000003084, -0.551618622611436 
4.410000000003061, -0.5519719300501787 
4.4200000000030375, -0.5523072120419922 
4.430000000003014, -0.5525859032315934 
4.440000000002991, -0.5527753139350654 
4.450000000002968, -0.5528560679918105 
4.460000000002944, -0.5528231960455336 
4.470000000002921, -0.5526819181470832 
4.480000000002898, -0.55244167467143 
4.490000000002874, -0.5521112816887626 
4.500000000002851, -0.5516961813754083 
4.510000000002828, -0.5511974780876125 
4.520000000002804, -0.55061208228749 
4.530000000002781, -0.5499332742390427 
4.540000000002758, -0.5491507104684987 
4.5500000000027345, -0.548247792199111 
4.560000000002711, -0.5471923113455954 
4.570000000002688, -0.5459156423880683 
4.580000000002665, -0.5442849995478535 
4.590000000002641, -0.5421042346589467 
4.600000000002618, -0.5392094790516981 
4.610000000002595, -0.5356590342101387 
4.620000000002571, -0.5318348564794744 
4.630000000002548, -0.5282757474944796 
4.640000000002525, -0.5253838215597225 
4.6500000000025015, -0.5232863700160378 
4.660000000002478, -0.5218982971886656 
4.670000000002455, -0.5210470406192921 
4.6800000000024315, -0.5205599757458919 
4.690000000002408, -0.5203002515111984 
4.700000000002385, -0.5201714432516045 
4.710000000002362, -0.5201100082029472 
4.720000000002338, -0.5200755448028926 
4.730000000002315, -0.5200426208242622 
4.740000000002292, -0.5199950489675405 
4.750000000002268, -0.5199225078295756 
4.760000000002245, -0.5198191872421252 
4.770000000002222, -0.5196840126915563 
4.7800000000021985, -0.5195216371463568 
4.790000000002175, -0.5193428362725071 
4.800000000002152, -0.519162777738625 
4.810000000002129, -0.5189965656044617 
4.820000000002105, -0.5188533516444076 
4.830000000002082, -0.518731823219946 
4.840000000002059, -0.5186196553764991 
4.850000000002035, -0.5184974739335948 
4.860000000002012, -0.518345293623085 
4.870000000001989, -0.5181481081090269 
4.880000000001965, -0.5178983254874925 
4.890000000001942, -0.5175950772021742 
4.900000000001919, -0.5172420727326772 
4.9100000000018955, -0.5168457737219634 
4.920000000001872, -0.5164149138800516 
4.930000000001849, -0.5159617314210266 
