t, s[1].omega / s[0].omega 
0, -0.5999977266559067 
0.009999999999999995, -0.5997690075613857 
0.019999999999999934, -0.5995338183508132 
0.029999999999999874, -0.5992828165748108 
0.04000000000000012, -0.5990053196116701 
0.050000000000000405, -0.5986935873914195 
0.06000000000000069, -0.5983452274337822 
0.07000000000000098, -0.5979635481027522 
0.08000000000000126, -0.5975570134069981 
0.09000000000000155, -0.5971391811088378 
0.10000000000000184, -0.5967300464490355 
0.11000000000000212, -0.5963592221171149 
0.12000000000000241, -0.5960711017517911 
0.130000000000002, -0.5959319166205391 
0.1400000000000009, -0.596038043804052 
0.1499999999999998, -0.5965235672752611 
0.1599999999999987, -0.5975623136987885 
0.1699999999999976, -0.5993550412719632 
0.1799999999999965, -0.6020878406640959 
0.1899999999999954, -0.6058507280666794 
0.1999999999999943, -0.6105310775618424 
0.2099999999999932, -0.6157493269936072 
0.2199999999999921, -0.6209319594538686 
0.229999999999991, -0.6255277165368848 
0.2399999999999899, -0.6292159128512778 
0.2499999999999888, -0.6319520696724276 
0.2599999999999877, -0.6338688927461379 
0.2699999999999866, -0.6351542907958269 
0.2799999999999855, -0.6359789416488849 
0.2899999999999844, -0.6364725326167704 
0.2999999999999833, -0.6367244050022863 
0.3099999999999822, -0.6367912028992572 
0.3199999999999811, -0.6367040801700516 
0.32999999999998, -0.636473411836708 
0.3399999999999789, -0.6360910487686207 
0.3499999999999778, -0.6355310458930304 
0.35999999999997667, -0.6347507207479837 
0.36999999999997557, -0.6336952786317446 
0.37999999999997447, -0.6323102777481442 
0.38999999999997337, -0.6305641933822355 
0.39999999999997227, -0.6284753163089447 
0.40999999999997117, -0.6261267228250427 
0.41999999999997006, -0.6236536038499922 
0.42999999999996896, -0.6212061186268814 
0.43999999999996786, -0.6189103987357508 
0.44999999999996676, -0.6168481749042474 
0.45999999999996566, -0.6150576485582676 
0.46999999999996456, -0.6135457207066539 
0.47999999999996346, -0.6123014548749677 
0.48999999999996235, -0.6113059107117519 
0.49999999999996125, -0.6105377785013064 
0.5099999999999602, -0.6099760311482048 
0.519999999999959, -0.6096009859008046 
0.529999999999958, -0.6093947568169115 
0.5399999999999568, -0.6093416140994705 
0.5499999999999557, -0.6094284208013929 
0.5599999999999546, -0.6096451008314588 
0.5699999999999535, -0.6099849518287062 
0.5799999999999524, -0.6104444781054873 
0.5899999999999513, -0.61102223521386 
0.5999999999999502, -0.6117160211127125 
0.6099999999999491, -0.6125179157514875 
0.619999999999948, -0.6134076385467062 
0.6299999999999469, -0.614346667207138 
0.6399999999999458, -0.6152775576862142 
0.6499999999999447, -0.616132317370757 
0.6599999999999436, -0.6168485058223216 
0.6699999999999425, -0.6173850196739192 
0.6799999999999414, -0.6177285769876643 
0.6899999999999403, -0.6178888056376215 
0.6999999999999392, -0.6178872627118872 
0.7099999999999381, -0.6177469920912371 
0.719999999999937, -0.6174858251056707 
0.7299999999999359, -0.6171132734136785 
0.7399999999999348, -0.6166295733838489 
0.7499999999999337, -0.6160255891306915 
0.7599999999999326, -0.6152827915580104 
0.7699999999999315, -0.6143728050839712 
0.7799999999999304, -0.6132558454425145 
0.7899999999999293, -0.6118769829453617 
0.7999999999999282, -0.610160152226611 
0.8099999999999271, -0.6080065649092659 
0.819999999999926, -0.6053196608868952 
0.8299999999999249, -0.6020840708100866 
0.8399999999999238, -0.5984724793164689 
0.8499999999999227, -0.5948620078974709 
0.8599999999999216, -0.5916818930944434 
0.8699999999999205, -0.5892107511975444 
0.8799999999999194, -0.5874989904713768 
0.8899999999999183, -0.5864317731354208 
0.8999999999999172, -0.5858325275474241 
0.9099999999999161, -0.5855344619205848 
0.919999999999915, -0.5854092028242242 
0.9299999999999139, -0.5853687645375899 
0.9399999999999128, -0.5853569174831855 
0.9499999999999117, -0.5853388653880102 
0.9599999999999106, -0.5852926980645642 
0.9699999999999095, -0.5852034216363913 
0.9799999999999084, -0.5850594699769315 
0.9899999999999073, -0.5848514894754937 
0.9999999999999062, -0.5845731919325253 
1.0099999999999052, -0.5842237200722205 
1.019999999999904, -0.5838101370364639 
1.029999999999903, -0.5833479276887195 
1.039999999999902, -0.5828579631293106 
1.0499999999999008, -0.5823606083197401 
1.0599999999998997, -0.5818699258374787 
1.0699999999998986, -0.5813910539782325 
1.0799999999998975, -0.5809216903267139 
1.0899999999998964, -0.5804561719943339 
1.0999999999998953, -0.5799897303334494 
1.1099999999998942, -0.5795213192318173 
1.119999999999893, -0.579054896315913 
1.129999999999892, -0.5786000191495381 
1.1399999999998909, -0.5781727589285308 
1.1499999999998898, -0.5777975954167488 
1.1599999999998887, -0.5775105736180264 
1.1699999999998876, -0.5773637177465195 
1.1799999999998865, -0.57743039626355 
1.1899999999998854, -0.577810757821546 
1.1999999999998843, -0.5786351436952688 
1.2099999999998832, -0.5800610816171019 
1.219999999999882, -0.5822559847801714 
1.229999999999881, -0.5853548585922461 
1.2399999999998799, -0.5893869809655117 
1.2499999999998788, -0.5941895443855648 
1.2599999999998777, -0.5993691999345765 
1.2699999999998766, -0.604386338472809 
1.2799999999998755, -0.6087524235770003 
1.2899999999998744, -0.6122039367527947 
1.2999999999998733, -0.6147285084377084 
1.3099999999998722, -0.6164687335112672 
1.319999999999871, -0.6176108822463069 
1.32999999999987, -0.6183199445849151 
1.3399999999998689, -0.6187190380200327 
1.3499999999998678, -0.6188910200887089 
1.3599999999998666, -0.6188862749326663 
1.3699999999998655, -0.6187297083531813 
1.3799999999998644, -0.6184250560157717 
1.3899999999998633, -0.6179566854555335 
1.3999999999998622, -0.6172901065249297 
1.4099999999998611, -0.6163736170412477 
1.41999999999986, -0.6151451732089835 
1.429999999999859, -0.6135492845428198 
1.4399999999998578, -0.6115648246824741 
1.4499999999998567, -0.6092336284730967 
1.4599999999998556, -0.6066692129284129 
1.4699999999998545, -0.6040319397709666 
1.4799999999998534, -0.6014825917888398 
1.4899999999998523, -0.5991431238178591 
1.4999999999998512, -0.5970825476959934 
1.5099999999998501, -0.5953244768591842 
1.519999999999849, -0.5938631817019706 
1.529999999999848, -0.5926782072940578 
1.5399999999998468, -0.5917440166673401 
1.5499999999998457, -0.5910350861630561 
1.5599999999998446, -0.5905280911591902 
1.5699999999998435, -0.5902026471843677 
1.5799999999998424, -0.5900415345528781 
1.5899999999998413, -0.5900308616130919 
1.5999999999998402, -0.5901603040282062 
1.6099999999998391, -0.5904233582644804 
1.619999999999838, -0.5908173909276992 
1.629999999999837, -0.5913430766446396 
1.6399999999998358, -0.5920025780027127 
1.6499999999998347, -0.5927956751553877 
1.6599999999998336, -0.5937134024179411 
1.6699999999998325, -0.5947301451762596 
1.6799999999998314, -0.595797653943303 
1.6899999999998303, -0.5968464599022053 
1.6999999999998292, -0.5977983424713701 
1.709999999999828, -0.5985862532231464 
1.719999999999827, -0.5991709092150327 
1.729999999999826, -0.5995447663215301 
1.7399999999998248, -0.599723620422412 
1.7499999999998237, -0.5997333899535391 
1.7599999999998226, -0.5995990410904339 
1.7699999999998215, -0.5993380235293801 
1.7799999999998204, -0.5989572118300462 
1.7899999999998193, -0.5984514129538759 
1.7999999999998182, -0.5978018295449964 
1.809999999999817, -0.5969733514363915 
1.819999999999816, -0.5959098187175094 
1.8299999999998149, -0.5945267796736606 
1.8399999999998138, -0.5927031308055274 
1.8499999999998127, -0.5902795251434215 
1.8599999999998116, -0.5870850904633702 
1.8699999999998105, -0.5830226978242709 
1.8799999999998094, -0.5782045369792638 
1.8899999999998083, -0.5730299154692584 
1.8999999999998072, -0.5680731117386439 
1.909999999999806, -0.5638311134009222 
1.919999999999805, -0.5605443595919984 
1.9299999999998039, -0.5581987244186031 
1.9399999999998028, -0.5566333972367381 
1.9499999999998017, -0.5556467290421906 
1.9599999999998006, -0.5550567267500839 
1.9699999999997995, -0.554722191440655 
1.9799999999997984, -0.5545425748730958 
1.9899999999997973, -0.5544499068022319 
1.9999999999997962, -0.5543995803968503 
2.0099999999998173, -0.5543626254880397 
2.0199999999998384, -0.5543201461341896 
2.0299999999998595, -0.5542598832196177 
2.0399999999998806, -0.5541746476804936 
2.0499999999999017, -0.5540621899216538 
2.059999999999923, -0.5539256917565645 
2.069999999999944, -0.5537736064185909 
2.079999999999965, -0.5536175793439337 
2.089999999999986, -0.5534682042929054 
2.100000000000007, -0.5533300896125009 
2.1100000000000283, -0.553198813175763 
2.1200000000000494, -0.5530616961345565 
2.1300000000000705, -0.5529021581920726 
2.1400000000000916, -0.5527052768247949 
2.1500000000001127, -0.5524617377170464 
2.160000000000134, -0.5521688930676224 
2.170000000000155, -0.5518296582409268 
2.180000000000176, -0.5514509180157946 
2.190000000000197, -0.5510428392930045 
2.2000000000002182, -0.5506198262928146 
2.2100000000002393, -0.5502034442657704 
2.2200000000002604, -0.5498275266333208 
2.2300000000002815, -0.5495455303406331 
2.2400000000003026, -0.5494394296099225 
2.2500000000003237, -0.5496271276558097 
2.260000000000345, -0.5502604406168286 
2.270000000000366, -0.5514986668443758 
2.280000000000387, -0.5534411030036452 
2.290000000000408, -0.5560258291260871 
2.3000000000004293, -0.5589647875976163 
2.3100000000004504, -0.5618232352252953 
2.3200000000004715, -0.5642373776272229 
2.3300000000004926, -0.5660772424959858 
2.3400000000005137, -0.5674134351894214 
2.3500000000005348, -0.568381947624278 
2.360000000000556, -0.5690939630532761 
2.370000000000577, -0.5696181457012276 
2.380000000000598, -0.5699940436398467 
2.390000000000619, -0.5702461100387082 
2.4000000000006403, -0.5703909301993828 
2.4100000000006614, -0.570439604807149 
2.4200000000006825, -0.5703980102998378 
2.4300000000007036, -0.5702665007975611 
2.4400000000007247, -0.5700398608489038 
2.450000000000746, -0.5697081740343708 
2.460000000000767, -0.5692593935143443 
2.470000000000788, -0.5686842307219396 
2.480000000000809, -0.5679828635000124 
2.49000000000083, -0.5671708531788214 
2.5000000000008513, -0.5662801822088681 
2.5100000000008724, -0.5653530678811458 
2.5200000000008935, -0.5644310396511133 
2.5300000000009146, -0.5635452675495661 
2.5400000000009357, -0.5627127210168499 
2.550000000000957, -0.5619383527748627 
2.560000000000978, -0.5612204103421702 
2.570000000000999, -0.5605557888348295 
2.58000000000102, -0.559943843401748 
2.5900000000010412, -0.5593886085611663 
2.6000000000010624, -0.5589001241470558 
2.6100000000010835, -0.5584956033150783 
2.6200000000011046, -0.5582008960828894 
2.6300000000011257, -0.5580524073135358 
2.6400000000011468, -0.5580994032625269 
2.650000000001168, -0.5584064044599423 
2.660000000001189, -0.5590549354701666 
2.67000000000121, -0.5601430291007949 
2.680000000001231, -0.5617793118450185 
2.6900000000012523, -0.5640663761331232 
2.7000000000012734, -0.5670671472709243 
2.7100000000012945, -0.570752962101725 
2.7200000000013156, -0.574949897829365 
2.7300000000013367, -0.5793265509932994 
2.740000000001358, -0.5834679495296196 
2.750000000001379, -0.5870183418216501 
2.7600000000014, -0.5897972828206879 
2.770000000001421, -0.5918105326278024 
2.780000000001442, -0.5931774962955167 
2.7900000000014633, -0.5940489082891485 
2.8000000000014844, -0.5945576275138684 
2.8100000000015055, -0.5948020831584996 
2.8200000000015266, -0.5948467764113096 
2.8300000000015477, -0.5947277590545247 
2.840000000001569, -0.594457444111303 
2.85000000000159, -0.5940270632900785 
2.860000000001611, -0.5934069964030652 
2.870000000001632, -0.5925465635225947 
2.8800000000016532, -0.5913767593053689 
2.8900000000016743, -0.5898216907252458 
2.9000000000016954, -0.5878243539360437 
2.9100000000017165, -0.5853842984130649 
2.9200000000017377, -0.5825880272991132 
2.9300000000017588, -0.5796042494529171 
2.94000000000178, -0.5766367875307871 
2.950000000001801, -0.5738637918625249 
2.960000000001822, -0.5714002080558453 
2.970000000001843, -0.569294774506228 
2.9800000000018643, -0.5675480358988919 
2.9900000000018854, -0.5661340424699175 
3.0000000000019065, -0.565016642219115 
3.0100000000019276, -0.5641589033124716 
3.0200000000019487, -0.5635274865945467 
3.03000000000197, -0.5630941739268039 
3.040000000001991, -0.5628361261866779 
3.050000000002012, -0.5627357487555813 
3.060000000002033, -0.5627805544270443 
3.070000000002054, -0.5629631203739225 
3.0800000000020753, -0.5632810435902137 
3.0900000000020964, -0.5637366071207235 
3.1000000000021175, -0.5643356077267556 
3.1100000000021386, -0.5650844979036903 
3.1200000000021597, -0.5659849179982605 
3.130000000002181, -0.5670253933550634 
3.140000000002202, -0.5681720565972284 
3.150000000002223, -0.5693634153052403 
3.160000000002244, -0.5705157516944183 
3.1700000000022652, -0.5715414671350888 
3.1800000000022863, -0.5723727982812792 
3.1900000000023074, -0.5729771478557819 
3.2000000000023285, -0.5733562442012412 
3.2100000000023496, -0.5735333805267941 
3.2200000000023707, -0.5735384353108871 
3.230000000002392, -0.5733970074358125 
3.240000000002413, -0.5731245453158257 
3.250000000002434, -0.5727234980304882 
3.260000000002455, -0.5721811638129375 
3.2700000000024763, -0.5714664484219355 
3.2800000000024974, -0.5705242822662187 
3.2900000000025185, -0.5692671238416226 
3.3000000000025396, -0.5675650347251662 
3.3100000000025607, -0.5652418466465883 
3.3200000000025818, -0.5620969990825746 
3.330000000002603, -0.5579819528972034 
3.340000000002624, -0.5529331892573487 
3.350000000002645, -0.5472775944475059 
3.360000000002666, -0.5415750822281544 
3.3700000000026873, -0.5363932716227172 
3.3800000000027084, -0.5320937805341274 
3.3900000000027295, -0.5287769780041454 
3.4000000000027506, -0.5263571188097271 
3.4100000000027717, -0.5246659693682247 
3.420000000002793, -0.5235253301237635 
3.430000000002814, -0.5227814344778453 
3.440000000002835, -0.5223145480934872 
3.450000000002856, -0.522036848025608 
3.460000000002877, -0.5218863768774687 
3.4700000000028983, -0.5218207017010664 
3.4800000000029194, -0.5218116408275071 
3.4900000000029405, -0.5218414069711754 
3.5000000000029616, -0.5219001037644706 
3.5100000000029827, -0.5219842889795001 
3.520000000003004, -0.5220960569053468 
3.530000000003025, -0.5222417732614282 
3.540000000003046, -0.5224294619203051 
3.550000000003067, -0.52266431332232 
3.5600000000030882, -0.5229430606125506 
3.5700000000031094, -0.5232495710950746 
3.5800000000031305, -0.5235547113105758 
3.5900000000031516, -0.5238220587601534 
3.6000000000031727, -0.524017456342045 
3.6100000000031938, -0.5241174212328388 
3.620000000003215, -0.5241121800513939 
3.630000000003236, -0.5240030263936928 
3.640000000003257, -0.5237968732217109 
3.650000000003278, -0.5235010379494354 
3.6600000000032993, -0.5231196455993988 
3.6700000000033204, -0.5226515360295185 
3.6800000000033415, -0.5220888926642672 
3.6900000000033626, -0.5214156189060071 
3.7000000000033837, -0.520604236936257 
3.710000000003405, -0.5196094859720708 
3.720000000003426, -0.5183563098558006 
3.730000000003447, -0.5167222155080313 
3.740000000003468, -0.5145257301012405 
3.750000000003489, -0.511558006641597 
3.7600000000035103, -0.5077041534934007 
3.7700000000035314, -0.5031188187704421 
3.7800000000035525, -0.4982759507152597 
3.7900000000035736, -0.4937681948879574 
3.8000000000035947, -0.49002267330268784 
3.810000000003616, -0.4871816438098856 
3.820000000003637, -0.4851694485142347 
3.830000000003658, -0.48381483759648364 
3.840000000003679, -0.4829381035448477 
3.8500000000037002, -0.4823897598782622 
3.8600000000037213, -0.48205876815759047 
3.8700000000037424, -0.4818677675257616 
3.8800000000037635, -0.4817649828314483 
3.8900000000037847, -0.4817167960673374 
3.9000000000038058, -0.4817021501646724 
3.910000000003827, -0.48170885524196844 
3.920000000003848, -0.48173151013552823 
3.930000000003869, -0.4817705789299227 
3.94000000000389, -0.48183191431673295 
3.9500000000039113, -0.48192570942337076 
3.9600000000039324, -0.48206379489669937 
3.9700000000039535, -0.48225480861472986 
3.9800000000039746, -0.4824981550287185 
3.9900000000039957, -0.48277926445023 
4.000000000004016, -0.48306929885436833 
4.010000000003993, -0.48333093251803866 
4.02000000000397, -0.4835282270343467 
4.030000000003946, -0.48363551878555916 
4.040000000003923, -0.48364088240555014 
4.0500000000039, -0.48354368662776226 
4.0600000000038765, -0.48334906371638386 
4.070000000003853, -0.48306235838740436 
4.08000000000383, -0.48268494052092803 
4.090000000003807, -0.48221116380757356 
4.100000000003783, -0.48162544861961065 
4.11000000000376, -0.48089814163223005 
4.120000000003737, -0.479978537243273 
4.130000000003713, -0.4787833831288665 
4.14000000000369, -0.4771809212107943 
4.150000000003667, -0.4749783747505334 
4.1600000000036434, -0.4719397376166792 
4.17000000000362, -0.4678785552426509 
4.180000000003597, -0.46283090842993097 
4.1900000000035735, -0.4571817087336358 
4.20000000000355, -0.45156181512166105 
4.210000000003527, -0.4465552255703962 
4.220000000003504, -0.4424783801793454 
4.23000000000348, -0.4393703634883178 
4.240000000003457, -0.43710564994765766 
4.250000000003434, -0.43550521107980933 
4.26000000000341, -0.43439972655009174 
4.270000000003387, -0.4336528447891485 
4.280000000003364, -0.43316353347837566 
4.2900000000033405, -0.43286067881157403 
4.300000000003317, -0.4326963024194798 
4.310000000003294, -0.4326397762079394 
4.320000000003271, -0.43267361738699267 
4.330000000003247, -0.4327907644131709 
4.340000000003224, -0.4329929739502787 
4.350000000003201, -0.43328977519145423 
4.360000000003177, -0.43369711895951435 
4.370000000003154, -0.4342345050078504 
4.380000000003131, -0.4349192420198934 
4.390000000003107, -0.4357571409998502 
4.400000000003084, -0.43673104520962963 
4.410000000003061, -0.4377922046524496 
4.4200000000030375, -0.4388622535130467 
4.430000000003014, -0.4398503378852384 
4.440000000002991, -0.440679129982317 
4.450000000002968, -0.4413045322430896 
4.460000000002944, -0.44171841917780685 
4.470000000002921, -0.44193720707958806 
4.480000000002898, -0.44198647830120324 
4.490000000002874, -0.441889082326994 
4.500000000002851, -0.4416582185785122 
4.510000000002828, -0.4412936778929075 
4.520000000002804, -0.4407789608780269 
4.530000000002781, -0.44007785375841246 
4.540000000002758, -0.4391305410777118 
4.5500000000027345, -0.43785193682029444 
4.560000000002711, -0.4361392143692787 
4.570000000002688, -0.43389936102853166 
4.580000000002665, -0.4311019250454657 
4.590000000002641, -0.4278363552643552 
4.600000000002618, -0.4243236765019292 
4.610000000002595, -0.4208506216502089 
4.620000000002571, -0.4176659091767321 
4.630000000002548, -0.41491345643378114 
4.640000000002525, -0.41263093619608293 
4.6500000000025015, -0.4107864949436612 
4.660000000002478, -0.40931826961913026 
4.670000000002455, -0.4081607188692109 
4.6800000000024315, -0.40725754319288743 
4.690000000002408, -0.4065661230357739 
4.700000000002385, -0.4060579389719596 
4.710000000002362, -0.40571771983472765 
4.720000000002338, -0.40554271492942207 
4.730000000002315, -0.4055427112921359 
4.740000000002292, -0.40574101721364936 
4.750000000002268, -0.40617635810189096 
4.760000000002245, -0.4069052180405096 
4.770000000002222, -0.4080032814008863 
4.7800000000021985, -0.4095628781622004 
4.790000000002175, -0.4116805519939656 
4.800000000002152, -0.4144264339821303 
4.810000000002129, -0.4177906315984378 
4.820000000002105, -0.42162138836398866 
4.830000000002082, -0.42560426148246167 
4.840000000002059, -0.42933830158695574 
4.850000000002035, -0.43248988212354356 
4.860000000002012, -0.43490985389026565 
4.870000000001989, -0.4366306286219648 
4.880000000001965, -0.43778196163434124 
4.890000000001942, -0.43850952664099435 
4.900000000001919, -0.4389335137275042 
