t, s[1].omega / s[0].omega 
0, -0.7299976800405656 
0.009999999999999995, -0.7297459757659153 
0.019999999999999934, -0.7294537999077912 
0.029999999999999874, -0.7291180828612751 
0.04000000000000012, -0.7287370827599611 
0.050000000000000405, -0.7283131858650596 
0.06000000000000069, -0.7278544031890848 
0.07000000000000098, -0.7273748001127767 
0.08000000000000126, -0.7268948288356581 
0.09000000000000155, -0.726442284872039 
0.10000000000000184, -0.7260538849737911 
0.11000000000000212, -0.7257768035351112 
0.12000000000000241, -0.7256691506757761 
0.130000000000002, -0.7257984025331512 
0.1400000000000009, -0.7262371828568104 
0.1499999999999998, -0.7270563346659469 
0.1599999999999987, -0.7283155102502923 
0.1699999999999976, -0.7300512836428615 
0.1799999999999965, -0.7322624773514995 
0.1899999999999954, -0.7348934212058936 
0.1999999999999943, -0.7378199659080471 
0.2099999999999932, -0.7408496177846421 
0.2199999999999921, -0.7437492455966005 
0.229999999999991, -0.7463008392094503 
0.2399999999999899, -0.7483605961833841 
0.2499999999999888, -0.7498860789625689 
0.2599999999999877, -0.7509191975523211 
0.2699999999999866, -0.7515450899221107 
0.2799999999999855, -0.7518544846457358 
0.2899999999999844, -0.7519222600329438 
0.2999999999999833, -0.7518001985020039 
0.3099999999999822, -0.7515171918609926 
0.3199999999999811, -0.7510817008182027 
0.32999999999998, -0.7504840324309965 
0.3399999999999789, -0.749698034177366 
0.3499999999999778, -0.7486831363659132 
0.35999999999997667, -0.7473886804400518 
0.36999999999997557, -0.7457630969140558 
0.37999999999997447, -0.7437700944785559 
0.38999999999997337, -0.7414120617739715 
0.39999999999997227, -0.7387582445953491 
0.40999999999997117, -0.7359715662635846 
0.41999999999997006, -0.7333147789206662 
0.42999999999996896, -0.7310976597803701 
0.43999999999996786, -0.7295562203656589 
0.44999999999996676, -0.7287442968413773 
0.45999999999996566, -0.7285329309545961 
0.46999999999996456, -0.7287040849835431 
0.47999999999996346, -0.7290499471698079 
0.48999999999996235, -0.7294226219087008 
0.49999999999996125, -0.7297375944799269 
0.5099999999999602, -0.7299559948951095 
0.519999999999959, -0.7300642748402348 
0.529999999999958, -0.7300586408069891 
0.5399999999999568, -0.7299349027634703 
0.5499999999999557, -0.7296822026504444 
0.5599999999999546, -0.7292792554416601 
0.5699999999999535, -0.7286928984268695 
0.5799999999999524, -0.7278802690496499 
0.5899999999999513, -0.7267970266275767 
0.5999999999999502, -0.7254129662962878 
0.6099999999999491, -0.7237314065017355 
0.619999999999948, -0.7218020230405462 
0.6299999999999469, -0.7197163687485074 
0.6399999999999458, -0.7175860682158616 
0.6499999999999447, -0.7155163771018611 
0.6599999999999436, -0.7135888360036857 
0.6699999999999425, -0.7118570897576952 
0.6799999999999414, -0.7103512751391111 
0.6899999999999403, -0.7090846570001996 
0.6999999999999392, -0.7080588135047482 
0.7099999999999381, -0.707266589062153 
0.719999999999937, -0.7066935951971248 
0.7299999999999359, -0.7063193589115027 
0.7399999999999348, -0.706118854754556 
0.7499999999999337, -0.706064582288991 
0.7599999999999326, -0.7061288904468987 
0.7699999999999315, -0.7062860764518318 
0.7799999999999304, -0.7065138844694748 
0.7899999999999293, -0.7067942245913345 
0.7999999999999282, -0.7071130231007071 
0.8099999999999271, -0.7074590444710386 
0.819999999999926, -0.707821511603379 
0.8299999999999249, -0.7081867901545006 
0.8399999999999238, -0.7085354117527645 
0.8499999999999227, -0.7088415774939686 
0.8599999999999216, -0.7090766898261011 
0.8699999999999205, -0.7092159722138696 
0.8799999999999194, -0.7092446741799809 
0.8899999999999183, -0.7091604490501877 
0.8999999999999172, -0.7089713957798531 
0.9099999999999161, -0.70869209763554 
0.919999999999915, -0.7083405378136878 
0.9299999999999139, -0.7079376136667281 
0.9399999999999128, -0.7075097685210504 
0.9499999999999117, -0.7070947266567272 
0.9599999999999106, -0.7067501240190807 
0.9699999999999095, -0.7065643162746335 
0.9799999999999084, -0.7066672505551614 
0.9899999999999073, -0.707236694206 
0.9999999999999062, -0.7084915220725103 
1.0099999999999052, -0.7106605584213248 
1.019999999999904, -0.7139166525909294 
1.029999999999903, -0.7182792435407808 
1.039999999999902, -0.7235219106465763 
1.0499999999999008, -0.7291595833838426 
1.0599999999998997, -0.7345763117706692 
1.0699999999998986, -0.7392477487039828 
1.0799999999998975, -0.7429076758571977 
1.0899999999998964, -0.7455557704991144 
1.0999999999998953, -0.7473510260983467 
1.1099999999998942, -0.7484966332964176 
1.119999999999893, -0.7491724650941551 
1.129999999999892, -0.7495124708288292 
1.1399999999998909, -0.7496053488253439 
1.1499999999998898, -0.7495021077639028 
1.1599999999998887, -0.7492227119281683 
1.1699999999998876, -0.7487590931945813 
1.1799999999998865, -0.7480739014848587 
1.1899999999998854, -0.7470952956077854 
1.1999999999998843, -0.7457095476266085 
1.2099999999998832, -0.7437570085371872 
1.219999999999882, -0.7410442669741877 
1.229999999999881, -0.7373926249642432 
1.2399999999998799, -0.7327348222910545 
1.2499999999998788, -0.727227840621186 
1.2599999999998777, -0.721291444107346 
1.2699999999998766, -0.7154998067957855 
1.2799999999998755, -0.7103776830265316 
1.2899999999998744, -0.7062412061163907 
1.2999999999998733, -0.7031645455723117 
1.3099999999998722, -0.7010431849128715 
1.319999999999871, -0.6996842016003421 
1.32999999999987, -0.698878115244413 
1.3399999999998689, -0.6984400862810948 
1.3499999999998678, -0.6982257609932107 
1.3599999999998666, -0.6981313889870615 
1.3699999999998655, -0.6980864264374189 
1.3799999999998644, -0.698044040550878 
1.3899999999998633, -0.6979724690888215 
1.3999999999998622, -0.6978485660620992 
1.4099999999998611, -0.6976540408244466 
1.41999999999986, -0.6973745243893209 
1.429999999999859, -0.6970011520883628 
1.4399999999998578, -0.6965334412402734 
1.4499999999998567, -0.6959811788760714 
1.4599999999998556, -0.6953630541426599 
1.4699999999998545, -0.6947017737217167 
1.4799999999998534, -0.6940181262692271 
1.4899999999998523, -0.6933272938373964 
1.4999999999998512, -0.6926388838842434 
1.5099999999998501, -0.6919596601937472 
1.519999999999849, -0.6912969194811793 
1.529999999999848, -0.6906610960925758 
1.5399999999998468, -0.6900672988923526 
1.5499999999998457, -0.6895360883192 
1.5599999999998446, -0.6890937616446889 
1.5699999999998435, -0.68877213139085 
1.5799999999998424, -0.6886076235304059 
1.5899999999998413, -0.6886395998652699 
1.5999999999998402, -0.6889080171622697 
1.6099999999998391, -0.6894506579384949 
1.619999999999838, -0.6903000003127129 
1.629999999999837, -0.6914792841289465 
1.6399999999998358, -0.6929967050452748 
1.6499999999998347, -0.6948365478037611 
1.6599999999998336, -0.6969474928246832 
1.6699999999998325, -0.6992322149590852 
1.6799999999998314, -0.7015475684568073 
1.6899999999998303, -0.7037253566441852 
1.6999999999998292, -0.7056127114355 
1.709999999999828, -0.7071128183601447 
1.719999999999827, -0.7082014291010207 
1.729999999999826, -0.7089126626053093 
1.7399999999998248, -0.709309343894537 
1.7499999999998237, -0.7094566486519037 
1.7599999999998226, -0.7094071061093814 
1.7699999999998215, -0.7091952772794639 
1.7799999999998204, -0.7088374551332787 
1.7899999999998193, -0.7083328330240135 
1.7999999999998182, -0.7076644511487684 
1.809999999999817, -0.7067996070929329 
1.819999999999816, -0.7056902898846779 
1.8299999999998149, -0.7042747972091336 
1.8399999999998138, -0.7024822211910504 
1.8499999999998127, -0.7002425787865362 
1.8599999999998116, -0.6975086350220528 
1.8699999999998105, -0.6942996970027059 
1.8799999999998094, -0.690766482314946 
1.8899999999998083, -0.6872279287392711 
1.8999999999998072, -0.6840963119695991 
1.909999999999806, -0.6816981206463228 
1.919999999999805, -0.6801363079762169 
1.9299999999998039, -0.6793009712799272 
1.9399999999998028, -0.6789784280103986 
1.9499999999998017, -0.6789547882692765 
1.9599999999998006, -0.6790669968546401 
1.9699999999997995, -0.6792101322200154 
1.9799999999997984, -0.6793244835764258 
1.9899999999997973, -0.6793787180033928 
1.9999999999997962, -0.6793559737147723 
2.0099999999998173, -0.6792442234838896 
2.0199999999998384, -0.6790302842238268 
2.0299999999998595, -0.6786967805320191 
2.0399999999998806, -0.6782220606866138 
2.0499999999999017, -0.6775837155278605 
2.059999999999923, -0.6767660493620856 
2.069999999999944, -0.6757697691874541 
2.079999999999965, -0.6746190362513678 
2.089999999999986, -0.6733602761669524 
2.100000000000007, -0.6720516844895742 
2.1100000000000283, -0.6707491065641735 
2.1200000000000494, -0.6694960078883747 
2.1300000000000705, -0.6683210197961615 
2.1400000000000916, -0.6672412406781679 
2.1500000000001127, -0.6662674726940427 
2.160000000000134, -0.6654086022012222 
2.170000000000155, -0.6646741185505622 
2.180000000000176, -0.6640749197063319 
2.190000000000197, -0.6636229504692965 
2.2000000000002182, -0.66333023496684 
2.2100000000002393, -0.6632077866061115 
2.2200000000002604, -0.6632647759700883 
2.2300000000002815, -0.6635081710240783 
2.2400000000003026, -0.6639428043414125 
2.2500000000003237, -0.6645714889707979 
2.260000000000345, -0.6653944566818 
2.270000000000366, -0.6664071404310496 
2.280000000000387, -0.6675954256416923 
2.290000000000408, -0.6689284504730489 
2.3000000000004293, -0.6703513199170508 
2.3100000000004504, -0.6717831050245449 
2.3200000000004715, -0.6731262231944992 
2.3300000000004926, -0.6742878140551094 
2.3400000000005137, -0.6752036437444242 
2.3500000000005348, -0.6758505765152933 
2.360000000000556, -0.6762417034211535 
2.370000000000577, -0.6764105551320188 
2.380000000000598, -0.67639495619079 
2.390000000000619, -0.6762265084654707 
2.4000000000006403, -0.675926000268633 
2.4100000000006614, -0.6755025834601975 
2.4200000000006825, -0.6749547628099679 
2.4300000000007036, -0.6742723102892857 
2.4400000000007247, -0.6734391478219492 
2.450000000000746, -0.6724376484789272 
2.460000000000767, -0.6712543025998445 
2.470000000000788, -0.6698848534952082 
2.480000000000809, -0.6683347915287143 
2.49000000000083, -0.6666138010503352 
2.5000000000008513, -0.6647371882091206 
2.5100000000008724, -0.6627588994293119 
2.5200000000008935, -0.6608230740724046 
2.5300000000009146, -0.659153650882037 
2.5400000000009357, -0.6579450701944604 
2.550000000000957, -0.6572549209083994 
2.560000000000978, -0.6570003458521942 
2.570000000000999, -0.6570319214849503 
2.58000000000102, -0.657205614596757 
2.5900000000010412, -0.6574162981117542 
2.6000000000010624, -0.6576000708708402 
2.6100000000010835, -0.6577232098694186 
2.6200000000011046, -0.6577693982623858 
2.6300000000011257, -0.6577296595560755 
2.6400000000011468, -0.6575955920740919 
2.650000000001168, -0.6573553504154664 
2.660000000001189, -0.6569920342408545 
2.67000000000121, -0.6564848314198463 
2.680000000001231, -0.6558136953338577 
2.6900000000012523, -0.6549675966538808 
2.7000000000012734, -0.6539538843817749 
2.7100000000012945, -0.6528034121495125 
2.7200000000013156, -0.6515665769842298 
2.7300000000013367, -0.6503010534441851 
2.740000000001358, -0.6490581067169147 
2.750000000001379, -0.6478745845126797 
2.7600000000014, -0.6467725464099494 
2.770000000001421, -0.645763766733676 
2.780000000001442, -0.6448552953412249 
2.7900000000014633, -0.6440537309742285 
2.8000000000014844, -0.6433676016973802 
2.8100000000015055, -0.6428081881658909 
2.8200000000015266, -0.6423893416604345 
2.8300000000015477, -0.6421267626457554 
2.840000000001569, -0.6420370942143813 
2.85000000000159, -0.642137100968326 
2.860000000001611, -0.6424430845215781 
2.870000000001632, -0.6429704622839869 
2.8800000000016532, -0.6437330823947105 
2.8900000000016743, -0.644741406824209 
2.9000000000016954, -0.6459983330585538 
2.9100000000017165, -0.6474915747628244 
2.9200000000017377, -0.6491829810873324 
2.9300000000017588, -0.6509986358219815 
2.94000000000178, -0.6528278768438887 
2.950000000001801, -0.6545395320869728 
2.960000000001822, -0.6560140854637153 
2.970000000001843, -0.6571757398627615 
2.9800000000018643, -0.6580050352839313 
2.9900000000018854, -0.6585275683872498 
3.0000000000019065, -0.6587909631277153 
3.0100000000019276, -0.6588443974902993 
3.0200000000019487, -0.6587266770064131 
3.03000000000197, -0.6584615317068157 
3.040000000001991, -0.6580565574825119 
3.050000000002012, -0.6575029474324123 
3.060000000002033, -0.6567744180613979 
3.070000000002054, -0.655824600497901 
3.0800000000020753, -0.6545827099930948 
3.0900000000020964, -0.6529481541109713 
3.1000000000021175, -0.6507874041351648 
3.1100000000021386, -0.6479436914134218 
3.1200000000021597, -0.6442819723944094 
3.130000000002181, -0.639790369412526 
3.140000000002202, -0.6347042379270562 
3.150000000002223, -0.6295269180645898 
3.160000000002244, -0.6248523570698004 
3.1700000000022652, -0.621104813744312 
3.1800000000022863, -0.6184105688829814 
3.1900000000023074, -0.6166542425921102 
3.2000000000023285, -0.6156104091354588 
3.2100000000023496, -0.6150479650452112 
3.2200000000023707, -0.6147796725280759 
3.230000000002392, -0.6146722841499662 
3.240000000002413, -0.6146383465191507 
3.250000000002434, -0.6146231314755539 
3.260000000002455, -0.6145927231833812 
3.2700000000024763, -0.6145250954349375 
3.2800000000024974, -0.6144042980236606 
3.2900000000025185, -0.6142174651038969 
3.3000000000025396, -0.6139544068512436 
3.3100000000025607, -0.6136094283933907 
3.3200000000025818, -0.6131843400646534 
3.330000000002603, -0.6126905845955148 
3.340000000002624, -0.6121481402671938 
3.350000000002645, -0.6115805225797675 
3.360000000002666, -0.6110080704111858 
3.3700000000026873, -0.6104431701189886 
3.3800000000027084, -0.6098896772174595 
3.3900000000027295, -0.6093459893633688 
3.4000000000027506, -0.6088094465118854 
3.4100000000027717, -0.608279943813385 
3.420000000002793, -0.6077620302106036 
3.430000000002814, -0.607265996229649 
3.440000000002835, -0.6068088544945064 
3.450000000002856, -0.6064158666026469 
3.460000000002877, -0.6061228353748869 
3.4700000000028983, -0.6059790259849736 
3.4800000000029194, -0.6060503066362913 
3.4900000000029405, -0.6064217772816776 
3.5000000000029616, -0.6071985828821741 
3.5100000000029827, -0.6085025300787923 
3.520000000003004, -0.6104603844675348 
3.530000000003025, -0.6131779063456959 
3.540000000003046, -0.616694580545728 
3.550000000003067, -0.6209238030790847 
3.5600000000030882, -0.6256068581595201 
3.5700000000031094, -0.6303321156315846 
3.5800000000031305, -0.6346496629527516 
3.5900000000031516, -0.6382286238990151 
3.6000000000031727, -0.6409471254946469 
3.6100000000031938, -0.6428652611510957 
3.620000000003215, -0.6441343554323526 
3.630000000003236, -0.6449171443816016 
3.640000000003257, -0.6453473999579523 
3.650000000003278, -0.6455198026237929 
3.6600000000032993, -0.6454932620593001 
3.6700000000033204, -0.6452968971388537 
3.6800000000033415, -0.6449340802627674 
3.6900000000033626, -0.6443832493954489 
3.7000000000033837, -0.6435957372011393 
3.710000000003405, -0.6424923565914212 
3.720000000003426, -0.6409633520896724 
3.730000000003447, -0.6388809142578811 
3.740000000003468, -0.6361360487205555 
3.750000000003489, -0.632701624166192 
3.7600000000035103, -0.6286936262493196 
3.7700000000035314, -0.6243772974027869 
3.7800000000035525, -0.6200926161193728 
3.7900000000035736, -0.6161439696442493 
3.8000000000035947, -0.6127262138854646 
3.810000000003616, -0.6099146482510756 
3.820000000003637, -0.6076959680877441 
3.830000000003658, -0.6060074407504514 
3.840000000003679, -0.6047668827483086 
3.8500000000037002, -0.6038905336557666 
3.8600000000037213, -0.603301945329819 
3.8700000000037424, -0.6029355744564312 
3.8800000000037635, -0.6027376118541506 
3.8900000000037847, -0.6026654621583742 
3.9000000000038058, -0.6026866164370253 
3.910000000003827, -0.6027773414011556 
3.920000000003848, -0.6029214456766447 
3.930000000003869, -0.6031092099496175 
3.94000000000389, -0.60333628730766 
3.9500000000039113, -0.6036020311772698 
3.9600000000039324, -0.6039065536462396 
3.9700000000039535, -0.6042462831880928 
3.9800000000039746, -0.604609064868557 
3.9900000000039957, -0.6049713183708296 
4.000000000004016, -0.6052999849453734 
4.010000000003993, -0.6055597533664704 
4.02000000000397, -0.6057223240824131 
4.030000000003946, -0.6057726287556812 
4.040000000003923, -0.6057091762889559 
4.0500000000039, -0.6055398254107988 
4.0600000000038765, -0.6052764026737278 
4.070000000003853, -0.6049308310864893 
4.08000000000383, -0.6045137321391634 
4.090000000003807, -0.6040354563262647 
4.100000000003783, -0.6035093916023496 
4.11000000000376, -0.6029576612625079 
4.120000000003737, -0.6024192891173921 
4.130000000003713, -0.6019597575391253 
4.14000000000369, -0.6016774716549353 
4.150000000003667, -0.6016963666320897 
4.1600000000036434, -0.6021286087113185 
4.17000000000362, -0.6030020243561629 
4.180000000003597, -0.6041921774126483 
4.1900000000035735, -0.60544774751478 
4.20000000000355, -0.6065383275773308 
4.210000000003527, -0.6073891538217564 
4.220000000003504, -0.6080610967796758 
4.23000000000348, -0.6086374268494954 
4.240000000003457, -0.6091561118854567 
4.250000000003434, -0.6096141277432342 
4.26000000000341, -0.6099948798115569 
4.270000000003387, -0.6102856311931858 
4.280000000003364, -0.6104815595258393 
4.2900000000033405, -0.6105831123801392 
4.300000000003317, -0.6105918740635877 
4.310000000003294, -0.6105071034133441 
4.320000000003271, -0.6103234608844049 
4.330000000003247, -0.6100300866692946 
4.340000000003224, -0.6096114903307228 
4.350000000003201, -0.6090510683899945 
4.360000000003177, -0.6083377257245591 
4.370000000003154, -0.6074742973418716 
4.380000000003131, -0.6064837186036831 
4.390000000003107, -0.6054079665682334 
4.400000000003084, -0.6042984952371018 
4.410000000003061, -0.6032030486923812 
4.4200000000030375, -0.6021561310263558 
4.430000000003014, -0.6011768426574146 
4.440000000002991, -0.6002726317462899 
4.450000000002968, -0.5994452231730538 
4.460000000002944, -0.5986958106974504 
4.470000000002921, -0.5980284473975683 
4.480000000002898, -0.59745186884889 
4.490000000002874, -0.5969803914756419 
4.500000000002851, -0.5966343962395214 
4.510000000002828, -0.5964406493705026 
4.520000000002804, -0.596432528094809 
4.530000000002781, -0.5966501103282853 
4.540000000002758, -0.5971399475534211 
4.5500000000027345, -0.5979540270199892 
4.560000000002711, -0.599146816209329 
4.570000000002688, -0.6007683752513093 
4.580000000002665, -0.6028507677047066 
4.590000000002641, -0.6053858345743177 
4.600000000002618, -0.6082974546203767 
4.610000000002595, -0.6114221379066541 
4.620000000002571, -0.6145213561067677 
4.630000000002548, -0.6173391253407148 
4.640000000002525, -0.6196817497526281 
4.6500000000025015, -0.6214684756983884 
4.660000000002478, -0.6227241371811678 
4.670000000002455, -0.6235334734755564 
4.6800000000024315, -0.6239946230323399 
4.690000000002408, -0.6241913898397472 
4.700000000002385, -0.6241831340701023 
4.710000000002362, -0.6240038882972786 
4.720000000002338, -0.6236638648040527 
4.730000000002315, -0.6231496971596406 
4.740000000002292, -0.6224218798219983 
4.750000000002268, -0.6214092126967301 
4.760000000002245, -0.6200019786490083 
4.770000000002222, -0.6180498941173712 
4.7800000000021985, -0.615378451678841 
4.790000000002175, -0.6118426961854772 
4.800000000002152, -0.6074224098626358 
4.810000000002129, -0.6023122664116445 
4.820000000002105, -0.5969179604233749 
4.830000000002082, -0.5917239416203699 
4.840000000002059, -0.5871215189755885 
4.850000000002035, -0.5833158463639334 
4.860000000002012, -0.5803378330422128 
4.870000000001989, -0.5781082311847788 
4.880000000001965, -0.5765005977418654 
4.890000000001942, -0.5753822467408869 
4.900000000001919, -0.5746344638482748 
4.9100000000018955, -0.5741595666919348 
4.920000000001872, -0.5738812414835055 
