t, s[1].omega / s[0].omega 
0, -0.6899976954775969 
0.009999999999999995, -0.6897547208668753 
0.019999999999999934, -0.6894838916553054 
0.029999999999999874, -0.6891779486895947 
0.04000000000000012, -0.6888298476340893 
0.050000000000000405, -0.6884370231830377 
0.06000000000000069, -0.6880036850904848 
0.07000000000000098, -0.6875413136132746 
0.08000000000000126, -0.6870687704671086 
0.09000000000000155, -0.686613341525747 
0.10000000000000184, -0.6862132057873601 
0.11000000000000212, -0.6859209975103417 
0.12000000000000241, -0.6858075313026977 
0.130000000000002, -0.6859643609237565 
0.1400000000000009, -0.6865036072126014 
0.1499999999999998, -0.6875533595430097 
0.1599999999999987, -0.6892467000574781 
0.1699999999999976, -0.6917017604120392 
0.1799999999999965, -0.6949897059057729 
0.1899999999999954, -0.6990898109888573 
0.1999999999999943, -0.7038409140337636 
0.2099999999999932, -0.708918253459244 
0.2199999999999921, -0.7138777472314063 
0.229999999999991, -0.7182803857452303 
0.2399999999999899, -0.7218355865200781 
0.2499999999999888, -0.7244666077250177 
0.2599999999999877, -0.7262673813009396 
0.2699999999999866, -0.7274086946796896 
0.2799999999999855, -0.7280617174649539 
0.2899999999999844, -0.7283614743208574 
0.2999999999999833, -0.7283991325261722 
0.3099999999999822, -0.7282262731329227 
0.3199999999999811, -0.727860584059288 
0.32999999999998, -0.7272883804120575 
0.3399999999999789, -0.726462318292552 
0.3499999999999778, -0.7252937819825755 
0.35999999999997667, -0.7236405076652008 
0.36999999999997557, -0.7212934281400556 
0.37999999999997447, -0.7179760461294352 
0.38999999999997337, -0.7133869015690956 
0.39999999999997227, -0.707326993026411 
0.40999999999997117, -0.6999097159758977 
0.41999999999997006, -0.6917165199663716 
0.42999999999996896, -0.6836825538676056 
0.43999999999996786, -0.6767089820687333 
0.44999999999996676, -0.6713076640061862 
0.45999999999996566, -0.6675291615142848 
0.46999999999996456, -0.6651188179303574 
0.47999999999996346, -0.6637139758065005 
0.48999999999996235, -0.662974065801033 
0.49999999999996125, -0.6626339572095278 
0.5099999999999602, -0.6625092690561402 
0.519999999999959, -0.6624810745101161 
0.529999999999958, -0.6624761207826001 
0.5399999999999568, -0.6624495832127387 
0.5499999999999557, -0.6623723630383637 
0.5599999999999546, -0.6622228938733667 
0.5699999999999535, -0.6619829994288213 
0.5799999999999524, -0.6616374980173874 
0.5899999999999513, -0.6611771005741105 
0.5999999999999502, -0.6606030815718669 
0.6099999999999491, -0.6599305845973282 
0.619999999999948, -0.659187136241662 
0.6299999999999469, -0.6584056785725367 
0.6399999999999458, -0.6576156045990442 
0.6499999999999447, -0.6568368172658522 
0.6599999999999436, -0.65607929434091 
0.6699999999999425, -0.6553469003729876 
0.6799999999999414, -0.654642452764244 
0.6899999999999403, -0.6539717760348793 
0.6999999999999392, -0.6533461292662408 
0.7099999999999381, -0.6527834887806632 
0.719999999999937, -0.6523093219649763 
0.7299999999999359, -0.6519571222080881 
0.7399999999999348, -0.6517686067149193 
0.7499999999999337, -0.6517933438888275 
0.7599999999999326, -0.652087643299032 
0.7699999999999315, -0.6527126252231199 
0.7799999999999304, -0.6537312398590718 
0.7899999999999293, -0.6552034175707535 
0.7999999999999282, -0.6571775125840748 
0.8099999999999271, -0.6596753298241975 
0.819999999999926, -0.6626689590556103 
0.8299999999999249, -0.6660532027757439 
0.8399999999999238, -0.6696288462523317 
0.8499999999999227, -0.6731215427022205 
0.8599999999999216, -0.6762488925589436 
0.8699999999999205, -0.6788077981374936 
0.8799999999999194, -0.6807254007323261 
0.8899999999999183, -0.6820447056700577 
0.8999999999999172, -0.6828701438283488 
0.9099999999999161, -0.6833154631605665 
0.919999999999915, -0.6834742657864061 
0.9299999999999139, -0.6834103236262425 
0.9399999999999128, -0.683157584050765 
0.9499999999999117, -0.6827221395085645 
0.9599999999999106, -0.6820821202194777 
0.9699999999999095, -0.6811836261939614 
0.9799999999999084, -0.6799317680341193 
0.9899999999999073, -0.6781770527861881 
0.9999999999999062, -0.6757012702211258 
1.0099999999999052, -0.6722180027122615 
1.019999999999904, -0.6674229746718879 
1.029999999999903, -0.6611392419043038 
1.039999999999902, -0.6535402721795351 
1.0499999999999008, -0.6452793193369641 
1.0599999999998997, -0.6373112395670997 
1.0699999999998986, -0.6304771612956344 
1.0799999999998975, -0.6251977166181009 
1.0899999999998964, -0.621464989972714 
1.0999999999998953, -0.6190177620254477 
1.1099999999998942, -0.6175198824558962 
1.119999999999893, -0.616665173966763 
1.129999999999892, -0.6162158616146297 
1.1399999999998909, -0.6160037808000449 
1.1499999999998898, -0.6159169494978927 
1.1599999999998887, -0.6158834748772849 
1.1699999999998876, -0.6158576906213434 
1.1799999999998865, -0.6158098991729998 
1.1899999999998854, -0.6157197256817832 
1.1999999999998843, -0.6155727507189341 
1.2099999999998832, -0.6153599985325171 
1.219999999999882, -0.615079455783138 
1.229999999999881, -0.6147379174072822 
1.2399999999998799, -0.6143507677929637 
1.2499999999998788, -0.6139380916866991 
1.2599999999998777, -0.6135180694097873 
1.2699999999998766, -0.6131010329589089 
1.2799999999998755, -0.6126874761313463 
1.2899999999998744, -0.6122707379259309 
1.2999999999998733, -0.6118422915601305 
1.3099999999998722, -0.6113966702774921 
1.319999999999871, -0.6109342952683086 
1.32999999999987, -0.610462424830576 
1.3399999999998689, -0.609995582068841 
1.3499999999998678, -0.6095567899644154 
1.3599999999998666, -0.6091803560136188 
1.3699999999998655, -0.6089163961116097 
1.3799999999998644, -0.6088369016412192 
1.3899999999998633, -0.6090427541495529 
1.3999999999998622, -0.6096703785210187 
1.4099999999998611, -0.6108952852864439 
1.41999999999986, -0.6129270275764644 
1.429999999999859, -0.6159858114021333 
1.4399999999998578, -0.6202470742133107 
1.4499999999998567, -0.6257451367395547 
1.4599999999998556, -0.6322569749227711 
1.4699999999998545, -0.6392460115759356 
1.4799999999998534, -0.6459726676179854 
1.4899999999998523, -0.6517681898569093 
1.4999999999998512, -0.6562822041240264 
1.5099999999998501, -0.6595192500288972 
1.519999999999849, -0.6616974717830733 
1.529999999999848, -0.6630874914468727 
1.5399999999998468, -0.663921470813853 
1.5499999999998457, -0.6643672494211779 
1.5599999999998446, -0.6645335444786414 
1.5699999999998435, -0.6644825346509889 
1.5799999999998424, -0.6642399353837688 
1.5899999999998413, -0.6637999442681508 
1.5999999999998402, -0.6631250956253563 
1.6099999999998391, -0.6621423021459814 
1.619999999999838, -0.6607385555500602 
1.629999999999837, -0.6587645599083707 
1.6399999999998358, -0.656060979861096 
1.6499999999998347, -0.6525209910459137 
1.6599999999998336, -0.6481777198546583 
1.6699999999998325, -0.6432597416309854 
1.6799999999998314, -0.6381497280715482 
1.6899999999998303, -0.6332562866097223 
1.6999999999998292, -0.628889011893788 
1.709999999999828, -0.6252084345926294 
1.719999999999827, -0.6222463190771323 
1.729999999999826, -0.6199532062693519 
1.7399999999998248, -0.6182409998630549 
1.7499999999998237, -0.6170105523530075 
1.7599999999998226, -0.6161663998008536 
1.7699999999998215, -0.6156235162834826 
1.7799999999998204, -0.6153098200068928 
1.7899999999998193, -0.6151665344435291 
1.7999999999998182, -0.6151474461955992 
1.809999999999817, -0.6152176186875128 
1.819999999999816, -0.6153519529091617 
1.8299999999998149, -0.615533878362565 
1.8399999999998138, -0.6157542312791978 
1.8499999999998127, -0.6160099694598632 
1.8599999999998116, -0.6163019376402546 
1.8699999999998105, -0.6166308844582667 
1.8799999999998094, -0.616991849791007 
1.8899999999998083, -0.617368806092135 
1.8999999999998072, -0.6177328686694388 
1.909999999999806, -0.6180466688550857 
1.919999999999805, -0.6182739232761179 
1.9299999999998039, -0.6183892068028346 
1.9399999999998028, -0.6183825556498561 
1.9499999999998017, -0.6182575420795422 
1.9599999999998006, -0.6180257550231306 
1.9699999999997995, -0.6177016052117767 
1.9799999999997984, -0.6172997613875061 
1.9899999999997973, -0.6168358412117129 
1.9999999999997962, -0.616330431239031 
2.0099999999998173, -0.6158168184724125 
2.0199999999998384, -0.6153532119491884 
2.0299999999998595, -0.6150397529994356 
2.0399999999998806, -0.6150376892532878 
2.0499999999999017, -0.6155802824958954 
2.059999999999923, -0.6169510775590374 
2.069999999999944, -0.6193939977758229 
2.079999999999965, -0.6229455028555841 
2.089999999999986, -0.6272816054477547 
2.100000000000007, -0.6317735374372712 
2.1100000000000283, -0.6358037129528373 
2.1200000000000494, -0.6390599915666118 
2.1300000000000705, -0.6415424549704432 
2.1400000000000916, -0.6433895699823775 
2.1500000000001127, -0.6447457992321335 
2.160000000000134, -0.6457225693219322 
2.170000000000155, -0.6464019081852161 
2.180000000000176, -0.6468450778604179 
2.190000000000197, -0.6470971244177365 
2.2000000000002182, -0.6471885490389699 
2.2100000000002393, -0.6471357983844251 
2.2200000000002604, -0.6469412253501912 
2.2300000000002815, -0.6465928471590731 
2.2400000000003026, -0.6460647117883257 
2.2500000000003237, -0.6453197330450274 
2.260000000000345, -0.6443178196037115 
2.270000000000366, -0.6430312697447721 
2.280000000000387, -0.6414645246967412 
2.290000000000408, -0.6396678264376783 
2.3000000000004293, -0.6377325859752507 
2.3100000000004504, -0.6357674978860568 
2.3200000000004715, -0.6338696172432728 
2.3300000000004926, -0.6321066840981192 
2.3400000000005137, -0.6305154594547548 
2.3500000000005348, -0.6291101139504429 
2.360000000000556, -0.6278926920084617 
2.370000000000577, -0.6268610490811592 
2.380000000000598, -0.6260132279713491 
2.390000000000619, -0.6253490471616849 
2.4000000000006403, -0.6248700736189294 
2.4100000000006614, -0.6245789520678696 
2.4200000000006825, -0.624478747901139 
2.4300000000007036, -0.6245726772038289 
2.4400000000007247, -0.6248643358097301 
2.450000000000746, -0.6253582655515744 
2.460000000000767, -0.6260603835523706 
2.470000000000788, -0.626977430824856 
2.480000000000809, -0.6281142140224436 
2.49000000000083, -0.6294672938059562 
2.5000000000008513, -0.6310146195060745 
2.5100000000008724, -0.6327033901192392 
2.5200000000008935, -0.6344430536425203 
2.5300000000009146, -0.6361132199621017 
2.5400000000009357, -0.6375905189477299 
2.550000000000957, -0.6387833301576166 
2.560000000000978, -0.6396532673874673 
2.570000000000999, -0.6402117847608922 
2.58000000000102, -0.6404995351081786 
2.5900000000010412, -0.6405640384315866 
2.6000000000010624, -0.6404448867480357 
2.6100000000010835, -0.6401669734122508 
2.6200000000011046, -0.6397383624236156 
2.6300000000011257, -0.6391495093831974 
2.6400000000011468, -0.6383717588392597 
2.650000000001168, -0.6373538977987752 
2.660000000001189, -0.6360157932872466 
2.67000000000121, -0.6342382376892688 
2.680000000001231, -0.6318499793039488 
2.6900000000012523, -0.6286221465721618 
2.7000000000012734, -0.6243043639182906 
2.7100000000012945, -0.618758969211635 
2.7200000000013156, -0.6121863373829496 
2.7300000000013367, -0.6052433354590552 
2.740000000001358, -0.5988182516865563 
2.750000000001379, -0.5935950586860295 
2.7600000000014, -0.5898078119518264 
2.770000000001421, -0.5873156537506709 
2.780000000001442, -0.5858097841896852 
2.7900000000014633, -0.5849732129831581 
2.8000000000014844, -0.5845519136189954 
2.8100000000015055, -0.5843669594544116 
2.8200000000015266, -0.5843017099703558 
2.8300000000015477, -0.5842835559436235 
2.840000000001569, -0.5842680364638069 
2.85000000000159, -0.5842272751429547 
2.860000000001611, -0.5841425383595104 
2.870000000001632, -0.5840002960451588 
2.8800000000016532, -0.5837912700733228 
2.8900000000016743, -0.5835118614370685 
2.9000000000016954, -0.5831666655880176 
2.9100000000017165, -0.5827698043521129 
2.9200000000017377, -0.5823427395265108 
2.9300000000017588, -0.5819081805702969 
2.94000000000178, -0.5814827052605034 
2.950000000001801, -0.5810720759120558 
2.960000000001822, -0.580671594406774 
2.970000000001843, -0.5802707044545772 
2.9800000000018643, -0.5798589128129403 
2.9900000000018854, -0.5794302330004221 
3.0000000000019065, -0.5789851687205823 
3.0100000000019276, -0.5785310945150972 
3.0200000000019487, -0.5780826044118352 
3.03000000000197, -0.5776631101649096 
3.040000000001991, -0.577308412056841 
3.050000000002012, -0.577072584924159 
3.060000000002033, -0.5770362830949136 
3.070000000002054, -0.5773171397854673 
3.0800000000020753, -0.5780807750925421 
3.0900000000020964, -0.5795481564963217 
3.1000000000021175, -0.5819895000084326 
3.1100000000021386, -0.5856863919783637 
3.1200000000021597, -0.5908382008062028 
3.130000000002181, -0.5974068555297817 
3.140000000002202, -0.6049648693289688 
3.150000000002223, -0.6127049043102969 
3.160000000002244, -0.6197212622479784 
3.1700000000022652, -0.6253996944698094 
3.1800000000022863, -0.6295906311300163 
3.1900000000023074, -0.6324852203340476 
3.2000000000023285, -0.6343951407413476 
3.2100000000023496, -0.6356083428311701 
3.2200000000023707, -0.6363404729005697 
3.230000000002392, -0.6367366206609536 
3.240000000002413, -0.6368871354075568 
3.250000000002434, -0.6368421542987196 
3.260000000002455, -0.6366210074466377 
3.2700000000024763, -0.636216732161427 
3.2800000000024974, -0.635597147309838 
3.2900000000025185, -0.6347049796987057 
3.3000000000025396, -0.6334615745271482 
3.3100000000025607, -0.6317812553944712 
3.3200000000025818, -0.6296025452907469 
3.330000000002603, -0.6269315353210383 
3.340000000002624, -0.6238729534903042 
3.350000000002645, -0.6206182837878995 
3.360000000002666, -0.6173891169535508 
3.3700000000026873, -0.6143724661693659 
3.3800000000027084, -0.6116860363636575 
3.3900000000027295, -0.6093797373128138 
3.4000000000027506, -0.6074561605739817 
3.4100000000027717, -0.6058924276901811 
3.420000000002793, -0.604655522333015 
3.430000000002814, -0.6037106274349379 
3.440000000002835, -0.6030247332731642 
3.450000000002856, -0.6025678364768979 
3.460000000002877, -0.6023132698784792 
3.4700000000028983, -0.6022379402537867 
3.4800000000029194, -0.6023227329126449 
3.4900000000029405, -0.602553052840682 
3.5000000000029616, -0.6029193184110299 
3.5100000000029827, -0.6034170859456203 
3.520000000003004, -0.604046259416011 
3.530000000003025, -0.6048085444055021 
3.540000000003046, -0.6057022193983477 
3.550000000003067, -0.6067140225843051 
3.5600000000030882, -0.6078100823379501 
3.5700000000031094, -0.6089309243902653 
3.5800000000031305, -0.6099969309578406 
3.5900000000031516, -0.6109261703709553 
3.6000000000031727, -0.6116568649836942 
3.6100000000031938, -0.6121612040578983 
3.620000000003215, -0.6124435147031053 
3.630000000003236, -0.6125274390013447 
3.640000000003257, -0.6124415748203188 
3.650000000003278, -0.6122094666380022 
3.6600000000032993, -0.6118446211338683 
3.6700000000033204, -0.6113487077503964 
3.6800000000033415, -0.6107109923677311 
3.6900000000033626, -0.6099076993619159 
3.7000000000033837, -0.6089003495547511 
3.710000000003405, -0.6076317073538917 
3.720000000003426, -0.6060167766509428 
3.730000000003447, -0.603926215906781 
3.740000000003468, -0.6011684877207889 
3.750000000003489, -0.5975080506419734 
3.7600000000035103, -0.5927917877933344 
3.7700000000035314, -0.5871850789928079 
3.7800000000035525, -0.5812932928847224 
3.7900000000035736, -0.5759209389172726 
3.8000000000035947, -0.571647263574066 
3.810000000003616, -0.5686274704633503 
3.820000000003637, -0.5666969233590168 
3.830000000003658, -0.5655685433853904 
3.840000000003679, -0.5649673694162353 
3.8500000000037002, -0.5646822760106127 
3.8600000000037213, -0.5645691398723586 
3.8700000000037424, -0.5645361951933536 
3.8800000000037635, -0.5645271828224708 
3.8900000000037847, -0.5645077567990137 
3.9000000000038058, -0.5644560877096364 
3.910000000003827, -0.5643571983683539 
3.920000000003848, -0.5642004342757899 
3.930000000003869, -0.5639795727026238 
3.94000000000389, -0.5636948023242435 
3.9500000000039113, -0.5633549722274404 
3.9600000000039324, -0.5629777281895616 
3.9700000000039535, -0.5625857403054983 
3.9800000000039746, -0.5621997012945603 
3.9900000000039957, -0.561831439282186 
4.000000000004016, -0.5614808515874402 
4.010000000003993, -0.5611380471602256 
4.02000000000397, -0.5607890442410121 
4.030000000003946, -0.5604217891454151 
4.040000000003923, -0.5600299667075841 
4.0500000000039, -0.5596141540989229 
4.0600000000038765, -0.5591815903639861 
4.070000000003853, -0.5587462714289477 
4.08000000000383, -0.5583306365377513 
4.090000000003807, -0.557969587715447 
4.100000000003783, -0.5577173382826677 
4.11000000000376, -0.5576574699182992 
4.120000000003737, -0.5579161190476928 
4.130000000003713, -0.5586765788647386 
4.14000000000369, -0.560189344005404 
4.150000000003667, -0.562762868608955 
4.1600000000036434, -0.5667076236684055 
4.17000000000362, -0.5722021424402486 
4.180000000003597, -0.5790918167480419 
4.1900000000035735, -0.5867494101297783 
4.20000000000355, -0.5942117015005437 
4.210000000003527, -0.6006086434200838 
4.220000000003504, -0.6055329492586046 
4.23000000000348, -0.6090451549278427 
4.240000000003457, -0.611436341004644 
4.250000000003434, -0.613019194409112 
4.26000000000341, -0.614040494459329 
4.270000000003387, -0.6146715576545481 
4.280000000003364, -0.6150240463776716 
4.2900000000033405, -0.6151669334429051 
4.300000000003317, -0.615138462181348 
4.310000000003294, -0.6149531795412967 
4.320000000003271, -0.6146054753177619 
4.330000000003247, -0.6140714035148152 
4.340000000003224, -0.6133112705240136 
4.350000000003201, -0.6122766223637414 
4.360000000003177, -0.6109254396001023 
4.370000000003154, -0.6092454939873946 
4.380000000003131, -0.607276547184854 
4.390000000003107, -0.605114652131068 
4.400000000003084, -0.6028895327642726 
4.410000000003061, -0.6007270302479014 
4.4200000000030375, -0.5987198269703422 
4.430000000003014, -0.5969190196405789 
4.440000000002991, -0.5953422177148003 
4.450000000002968, -0.5939873047257456 
4.460000000002944, -0.592844203970596 
4.470000000002921, -0.5919021699667314 
4.480000000002898, -0.5911531861324171 
4.490000000002874, -0.5905929307282207 
4.500000000002851, -0.590220591651285 
4.510000000002828, -0.5900383757507894 
4.520000000002804, -0.5900511867179181 
4.530000000002781, -0.5902666704664594 
4.540000000002758, -0.5906955859198549 
4.5500000000027345, -0.5913521765324414 
4.560000000002711, -0.5922538239188404 
4.570000000002688, -0.5934187335968724 
4.580000000002665, -0.5948598933829868 
4.590000000002641, -0.5965736821173345 
4.600000000002618, -0.5985235911768332 
4.610000000002595, -0.600624811103918 
4.620000000002571, -0.6027421372457047 
4.630000000002548, -0.6047134278806792 
4.640000000002525, -0.6063949223851545 
4.6500000000025015, -0.6077027978247787 
4.660000000002478, -0.6086246313158068 
4.670000000002455, -0.6091996712607661 
4.6800000000024315, -0.6094879642990388 
4.690000000002408, -0.6095462940932205 
4.700000000002385, -0.6094157401546232 
4.710000000002362, -0.6091171996586296 
4.720000000002338, -0.6086497570499945 
4.730000000002315, -0.6079881852387401 
4.740000000002292, -0.6070771960122113 
4.750000000002268, -0.6058207899606439 
4.760000000002245, -0.6040662634151615 
4.770000000002222, -0.6015870976311593 
4.7800000000021985, -0.5980825385278249 
4.790000000002175, -0.5932357901900926 
4.800000000002152, -0.5868790828374368 
4.810000000002129, -0.5792279780553821 
4.820000000002105, -0.5709767526522391 
4.830000000002082, -0.5630619921479079 
4.840000000002059, -0.5562466211851436 
4.850000000002035, -0.5508779051238432 
4.860000000002012, -0.5469297007732867 
4.870000000001989, -0.5441743291068427 
4.880000000001965, -0.5423305684789015 
4.890000000001942, -0.5411428411759476 
4.900000000001919, -0.5404082653748328 
4.9100000000018955, -0.5399772267601736 
4.920000000001872, -0.5397442336068388 
