t, s[1].omega / s[0].omega 
0, -0.5999977265979629 
0.009999999999999995, -0.5997684361925586 
0.019999999999999934, -0.5995317745374293 
0.029999999999999874, -0.5992789550450279 
0.04000000000000012, -0.5989999573266157 
0.050000000000000405, -0.5986875755654267 
0.06000000000000069, -0.5983396909595967 
0.07000000000000098, -0.5979596078151146 
0.08000000000000126, -0.5975555427608814 
0.09000000000000155, -0.5971405699712817 
0.10000000000000184, -0.5967338905227157 
0.11000000000000212, -0.5963638253434336 
0.12000000000000241, -0.5960726537667103 
0.130000000000002, -0.5959231803757864 
0.1400000000000009, -0.5960063743010549 
0.1499999999999998, -0.5964481331068453 
0.1599999999999987, -0.5974106322109484 
0.1699999999999976, -0.5990795989179666 
0.1799999999999965, -0.601624917134193 
0.1899999999999954, -0.6051253195666422 
0.1999999999999943, -0.6094719540920431 
0.2099999999999932, -0.6143127237244493 
0.2199999999999921, -0.6191213456933312 
0.229999999999991, -0.6233933493507958 
0.2399999999999899, -0.6268331932578989 
0.2499999999999888, -0.6293958365123159 
0.2599999999999877, -0.6311987460474706 
0.2699999999999866, -0.6324120317553323 
0.2799999999999855, -0.6331920125619049 
0.2899999999999844, -0.6336585385046766 
0.2999999999999833, -0.6338947834788995 
0.3099999999999822, -0.6339537982102903 
0.3199999999999811, -0.6338649140050843 
0.32999999999998, -0.6336380016406833 
0.3399999999999789, -0.6332655611785056 
0.3499999999999778, -0.6327234878760156 
0.35999999999997667, -0.6319722373574842 
0.36999999999997557, -0.630961358654046 
0.37999999999997447, -0.6296412214411798 
0.38999999999997337, -0.6279837995767752 
0.39999999999997227, -0.6260070774151517 
0.40999999999997117, -0.6237883816634556 
0.41999999999997006, -0.6214526872457747 
0.42999999999996896, -0.6191388582843164 
0.43999999999996786, -0.6169641052696988 
0.44999999999996676, -0.6150051369648072 
0.45999999999996566, -0.6132986190373143 
0.46999999999996456, -0.6118521798926551 
0.47999999999996346, -0.6106567575941585 
0.48999999999996235, -0.6096957340652353 
0.49999999999996125, -0.6089502276944321 
0.5099999999999602, -0.6084016071797478 
0.519999999999959, -0.6080324968115368 
0.529999999999958, -0.60782718876071 
0.5399999999999568, -0.607771956661837 
0.5499999999999557, -0.6078554420992839 
0.5599999999999546, -0.6080690741241167 
0.5699999999999535, -0.6084073358288444 
0.5799999999999524, -0.608867546689474 
0.5899999999999513, -0.6094486474824219 
0.5999999999999502, -0.6101483344442216 
0.6099999999999491, -0.610958084288077 
0.619999999999948, -0.6118566035973514 
0.6299999999999469, -0.6128042008236012 
0.6399999999999458, -0.6137424956786239 
0.6499999999999447, -0.6146031499179002 
0.6599999999999436, -0.6153240526692467 
0.6699999999999425, -0.6158648391958036 
0.6799999999999414, -0.6162129711614135 
0.6899999999999403, -0.6163785704106264 
0.6999999999999392, -0.6163834169067902 
0.7099999999999381, -0.6162506050856201 
0.719999999999937, -0.6159979288395759 
0.7299999999999359, -0.6156347761426154 
0.7399999999999348, -0.6151610678433299 
0.7499999999999337, -0.6145669219181993 
0.7599999999999326, -0.613832218910442 
0.7699999999999315, -0.6129255381607165 
0.7799999999999304, -0.6118019117336151 
0.7899999999999293, -0.610398873166608 
0.7999999999999282, -0.6086319962644806 
0.8099999999999271, -0.6063981338376546 
0.819999999999926, -0.6036074868560017 
0.8299999999999249, -0.6002644874087693 
0.8399999999999238, -0.596562815666068 
0.8499999999999227, -0.5928844574046324 
0.8599999999999216, -0.5896463595972754 
0.8699999999999205, -0.5871136473891918 
0.8799999999999194, -0.5853335718172052 
0.8899999999999183, -0.5841967018372144 
0.8999999999999172, -0.5835336745058889 
0.9099999999999161, -0.5831825279269689 
0.919999999999915, -0.5830166293450931 
0.9299999999999139, -0.5829475902311955 
0.9399999999999128, -0.5829178037210817 
0.9499999999999117, -0.582890966818994 
0.9599999999999106, -0.5828440059226375 
0.9699999999999095, -0.582761310344461 
0.9799999999999084, -0.5826312682163297 
0.9899999999999073, -0.5824449274274281 
0.9999999999999062, -0.5821965610130018 
1.0099999999999052, -0.5818855837217172 
1.019999999999904, -0.5815185420963767 
1.029999999999903, -0.5811093118684917 
1.039999999999902, -0.5806761876532733 
1.0499999999999008, -0.5802365295962858 
1.0599999999998997, -0.5798016221971649 
1.0699999999998986, -0.5793744972864958 
1.0799999999998975, -0.5789515345967606 
1.0899999999998964, -0.5785264077064922 
1.0999999999998953, -0.5780940812479327 
1.1099999999998942, -0.5776533531873631 
1.119999999999893, -0.5772078739288253 
1.129999999999892, -0.5767665269196189 
1.1399999999998909, -0.5763441792267954 
1.1499999999998898, -0.5759634706460276 
1.1599999999998887, -0.5756579393923376 
1.1699999999998876, -0.5754765150173218 
1.1799999999998865, -0.5754891149666151 
1.1899999999998854, -0.5757924852438829 
1.1999999999998843, -0.5765141366429957 
1.2099999999998832, -0.5778097872516031 
1.219999999999882, -0.5798460882271147 
1.229999999999881, -0.5827576676598423 
1.2399999999998799, -0.5865729953174761 
1.2499999999998788, -0.5911291763426983 
1.2599999999998777, -0.5960387653458409 
1.2699999999998766, -0.6007802343818952 
1.2799999999998755, -0.6048930522204123 
1.2899999999998744, -0.6081385622340105 
1.2999999999998733, -0.6105144279937378 
1.3099999999998722, -0.6121583706857443 
1.319999999999871, -0.6132444968319993 
1.32999999999987, -0.6139253375585828 
1.3399999999998689, -0.6143144886844203 
1.3499999999998678, -0.6144887323030637 
1.3599999999998666, -0.6144952927617339 
1.3699999999998655, -0.61435823979279 
1.3799999999998644, -0.6140825121267948 
1.3899999999998633, -0.6136558214911684 
1.3999999999998622, -0.6130495853169668 
1.4099999999998611, -0.6122210361700451 
1.41999999999986, -0.6111198884364215 
1.429999999999859, -0.609703136530664 
1.4399999999998578, -0.6079578907476816 
1.4499999999998567, -0.6059233607077019 
1.4599999999998556, -0.6036958844164021 
1.4699999999998545, -0.6014077082896571 
1.4799999999998534, -0.5991900319678571 
1.4899999999998523, -0.5971425343159978 
1.4999999999998512, -0.5953226673494375 
1.5099999999998501, -0.5937517837578727 
1.519999999999849, -0.592427930466242 
1.529999999999848, -0.5913375491296387 
1.5399999999998468, -0.5904632319932728 
1.5499999999998457, -0.589787804523115 
1.5599999999998446, -0.5892960210248173 
1.5699999999998435, -0.5889750669615015 
1.5799999999998424, -0.5888146527193479 
1.5899999999998413, -0.5888071015899135 
1.5999999999998402, -0.5889475565028089 
1.6099999999998391, -0.5892342283216412 
1.619999999999838, -0.5896684255495556 
1.629999999999837, -0.5902538860164466 
1.6399999999998358, -0.5909946772228605 
1.6499999999998347, -0.5918908089292215 
1.6599999999998336, -0.592931147553897 
1.6699999999998325, -0.5940848373253669 
1.6799999999998314, -0.5952952538777627 
1.6899999999998303, -0.5964826566634797 
1.6999999999998292, -0.5975592588741525 
1.709999999999828, -0.598451935024077 
1.719999999999827, -0.5991200392702513 
1.729999999999826, -0.5995584575666173 
1.7399999999998248, -0.5997871932404416 
1.7499999999998237, -0.5998364214129147 
1.7599999999998226, -0.5997345278987729 
1.7699999999998215, -0.5995012979483215 
1.7799999999998204, -0.5991448478934034 
1.7899999999998193, -0.5986600647592631 
1.7999999999998182, -0.5980267829122571 
1.809999999999817, -0.5972065177657302 
1.819999999999816, -0.5961370325668851 
1.8299999999998149, -0.5947248610306193 
1.8399999999998138, -0.5928386830341302 
1.8499999999998127, -0.5903137326286185 
1.8599999999998116, -0.5869889921049963 
1.8699999999998105, -0.582799031194628 
1.8799999999998094, -0.577895943772185 
1.8899999999998083, -0.5726941209677446 
1.8999999999998072, -0.5677416821380852 
1.909999999999806, -0.5634923968330837 
1.919999999999805, -0.5601610323573393 
1.9299999999998039, -0.5577349319851638 
1.9399999999998028, -0.5560700188593765 
1.9499999999998017, -0.5549827677240142 
1.9599999999998006, -0.5543038636130697 
1.9699999999997995, -0.5538984664959183 
1.9799999999997984, -0.5536677644025163 
1.9899999999997973, -0.5535429663867817 
1.9999999999997962, -0.5534776754080986 
2.0099999999998173, -0.5534411419778686 
2.0199999999998384, -0.5534131895929417 
2.0299999999998595, -0.5533809058264432 
2.0399999999998806, -0.5533369270527974 
2.0499999999999017, -0.55327893151489 
2.059999999999923, -0.553209609382432 
2.069999999999944, -0.5531360086106417 
2.079999999999965, -0.5530672148097786 
2.089999999999986, -0.553010247989019 
2.100000000000007, -0.5529655782428531 
2.1100000000000283, -0.552924655347823 
2.1200000000000494, -0.5528712427469163 
2.1300000000000705, -0.5527862207450547 
2.1400000000000916, -0.5526533452820844 
2.1500000000001127, -0.5524630364665836 
2.160000000000134, -0.5522129565436301 
2.170000000000155, -0.5519062847484084 
2.180000000000176, -0.5515495121138444 
2.190000000000197, -0.5511511769019025 
2.2000000000002182, -0.5507221907303774 
2.2100000000002393, -0.5502779489989552 
2.2200000000002604, -0.54984230608096 
2.2300000000002815, -0.5494533702646227 
2.2400000000003026, -0.5491703737653506 
2.2500000000003237, -0.5490787953789665 
2.260000000000345, -0.549286676533036 
2.270000000000366, -0.549899789018313 
2.280000000000387, -0.550964905258075 
2.290000000000408, -0.5523961574160821 
2.3000000000004293, -0.5539512425328492 
2.3100000000004504, -0.5553318170032735 
2.3200000000004715, -0.5563580614680277 
2.3300000000004926, -0.5570439073223515 
2.3400000000005137, -0.5575117764419109 
2.3500000000005348, -0.5578733214876606 
2.360000000000556, -0.5581827351664211 
2.370000000000577, -0.5584505893025128 
2.380000000000598, -0.5586699465679043 
2.390000000000619, -0.5588321038466424 
2.4000000000006403, -0.5589315794136269 
2.4100000000006614, -0.5589656495330162 
2.4200000000006825, -0.5589322806886705 
2.4300000000007036, -0.5588282169065598 
2.4400000000007247, -0.5586478945272276 
2.450000000000746, -0.5583835718861762 
2.460000000000767, -0.5580270765856028 
2.470000000000788, -0.5575733651349002 
2.480000000000809, -0.5570252072520285 
2.49000000000083, -0.5563968637539882 
2.5000000000008513, -0.5557138882332688 
2.5100000000008724, -0.5550077784324999 
2.5200000000008935, -0.5543076752286948 
2.5300000000009146, -0.5536335331836828 
2.5400000000009357, -0.5529939540108282 
2.550000000000957, -0.5523886362426068 
2.560000000000978, -0.5518130847024861 
2.570000000000999, -0.5512630711874323 
2.58000000000102, -0.5507375969256618 
2.5900000000010412, -0.5502404701193149 
2.6000000000010624, -0.5497813002532633 
2.6100000000010835, -0.5493767178343514 
2.6200000000011046, -0.5490523322232881 
2.6300000000011257, -0.5488456427741226 
2.6400000000011468, -0.5488098786444949 
2.650000000001168, -0.5490184321230822 
2.660000000001189, -0.5495689142621464 
2.67000000000121, -0.5505845231093699 
2.680000000001231, -0.5522079765073568 
2.6900000000012523, -0.5545799492574172 
2.7000000000012734, -0.5577925326767134 
2.7100000000012945, -0.5618167451987082 
2.7200000000013156, -0.5664316719555881 
2.7300000000013367, -0.5712204401582357 
2.740000000001358, -0.5756868505012993 
2.750000000001379, -0.5794435738877324 
2.7600000000014, -0.582332427465966 
2.770000000001421, -0.5844024955801833 
2.780000000001442, -0.5858076538764548 
2.7900000000014633, -0.5867162912772188 
2.8000000000014844, -0.5872673817944605 
2.8100000000015055, -0.5875607095431687 
2.8200000000015266, -0.5876614985764684 
2.8300000000015477, -0.5876078077503694 
2.840000000001569, -0.5874163418337691 
2.85000000000159, -0.5870858957815597 
2.860000000001611, -0.5865990973087492 
2.870000000001632, -0.5859240114536468 
2.8800000000016532, -0.5850182204972142 
2.8900000000016743, -0.5838387834629584 
2.9000000000016954, -0.5823600692196982 
2.9100000000017165, -0.5805954795000907 
2.9200000000017377, -0.5786106471398098 
2.9300000000017588, -0.5765149042132897 
2.94000000000178, -0.5744318122915799 
2.950000000001801, -0.5724662771030062 
2.960000000001822, -0.5706861927360101 
2.970000000001843, -0.5691224402877356 
2.9800000000018643, -0.5677795206705324 
2.9900000000018854, -0.5666478475072833 
3.0000000000019065, -0.5657129764139757 
3.0100000000019276, -0.5649609578323219 
3.0200000000019487, -0.5643807834409823 
3.03000000000197, -0.5639651734397504 
3.040000000001991, -0.5637106435145722 
3.050000000002012, -0.5636174083912866 
3.060000000002033, -0.5636893813617613 
3.070000000002054, -0.5639343046179104 
3.0800000000020753, -0.5643638287974173 
3.0900000000020964, -0.5649930809550596 
3.1000000000021175, -0.5658388781063857 
3.1100000000021386, -0.5669153398634574 
3.1200000000021597, -0.5682256127994635 
3.130000000002181, -0.5697495982779662 
3.140000000002202, -0.5714309688646082 
3.150000000002223, -0.5731717552824022 
3.160000000002244, -0.5748445422559056 
3.1700000000022652, -0.5763237867682782 
3.1800000000022863, -0.5775213760547478 
3.1900000000023074, -0.5784047639518615 
3.2000000000023285, -0.5789896762717348 
3.2100000000023496, -0.5793181471606094 
3.2200000000023707, -0.5794371865579553 
3.230000000002392, -0.5793854932629645 
3.240000000002413, -0.579187576053388 
3.250000000002434, -0.5788517110891813 
3.260000000002455, -0.5783685834288596 
3.2700000000024763, -0.5777086554190769 
3.2800000000024974, -0.5768173328329727 
3.2900000000025185, -0.57560827298241 
3.3000000000025396, -0.5739580115884598 
3.3100000000025607, -0.5717110814218584 
3.3200000000025818, -0.5687126430618679 
3.330000000002603, -0.5648834278961893 
3.340000000002624, -0.5603176882332082 
3.350000000002645, -0.5553282047632802 
3.360000000002666, -0.5503657904535649 
3.3700000000026873, -0.5458510184059489 
3.3800000000027084, -0.5420435373566218 
3.3900000000027295, -0.5390196710817791 
3.4000000000027506, -0.5367262437821573 
3.4100000000027717, -0.5350485221645002 
3.420000000002793, -0.5338586739564868 
3.430000000002814, -0.5330407358320017 
3.440000000002835, -0.5324995850749807 
3.450000000002856, -0.5321616417028598 
3.460000000002877, -0.5319722157920254 
3.4700000000028983, -0.5318920089191745 
3.4800000000029194, -0.5318938686215793 
3.4900000000029405, -0.5319601988642151 
3.5000000000029616, -0.5320810926195324 
3.5100000000029827, -0.5322530209902321 
3.520000000003004, -0.53247764571159 
3.530000000003025, -0.5327600258229902 
3.540000000003046, -0.5331053853145303 
3.550000000003067, -0.5335140824773993 
3.5600000000030882, -0.533975714949918 
3.5700000000031094, -0.5344650048609256 
3.5800000000031305, -0.5349428752603874 
3.5900000000031516, -0.5353642460646332 
3.6000000000031727, -0.5356896683748011 
3.6100000000031938, -0.5358945757779984 
3.620000000003215, -0.5359714948809933 
3.630000000003236, -0.5359256456085666 
3.640000000003257, -0.5357678457163726 
3.650000000003278, -0.5355082536691492 
3.6600000000032993, -0.5351522324893165 
3.6700000000033204, -0.5346978856539868 
3.6800000000033415, -0.5341341840751394 
3.6900000000033626, -0.5334385408569962 
3.7000000000033837, -0.5325726506975066 
3.710000000003405, -0.5314752969234007 
3.720000000003426, -0.5300514338058196 
3.730000000003447, -0.528160867610454 
3.740000000003468, -0.5256219016697546 
3.750000000003489, -0.5222630953657224 
3.7600000000035103, -0.518047348426991 
3.7700000000035314, -0.513207582394421 
3.7800000000035525, -0.5082390966489255 
3.7900000000035736, -0.5036913820644414 
3.8000000000035947, -0.499931839946154 
3.810000000003616, -0.4970674486246665 
3.820000000003637, -0.4950155556795255 
3.830000000003658, -0.4936119098079342 
3.840000000003679, -0.4926858952059846 
3.8500000000037002, -0.49209436577339793 
3.8600000000037213, -0.49172936219120034 
3.8700000000037424, -0.491514315676404 
3.8800000000037635, -0.49139702768598614 
3.8900000000037847, -0.4913429959415083 
3.9000000000038058, -0.49133023638800244 
3.910000000003827, -0.491345751391859 
3.920000000003848, -0.4913834338860523 
3.930000000003869, -0.4914430071268798 
3.94000000000389, -0.491529354684593 
3.9500000000039113, -0.49165130561236803 
3.9600000000039324, -0.49181888257180073 
3.9700000000039535, -0.49203859715013615 
3.9800000000039746, -0.4923077053315933 
3.9900000000039957, -0.4926098795625763 
4.000000000004016, -0.49291533741975774 
4.010000000003993, -0.49318686979144594 
4.02000000000397, -0.49338960282890687 
4.030000000003946, -0.49349942910025424 
4.040000000003923, -0.4935059423529533 
4.0500000000039, -0.4934096778244591 
4.0600000000038765, -0.4932165526949892 
4.070000000003853, -0.4929324700213648 
4.08000000000383, -0.492559355551576 
4.090000000003807, -0.49209237443515663 
4.100000000003783, -0.49151735591467044 
4.11000000000376, -0.4908072007627977 
4.120000000003737, -0.48991585105651003 
4.130000000003713, -0.48876837197741974 
4.14000000000369, -0.4872471777751731 
4.150000000003667, -0.4851811128558358 
4.1600000000036434, -0.4823602640030805 
4.17000000000362, -0.4786152537073659 
4.180000000003597, -0.4739684201656706 
4.1900000000035735, -0.4687520572326476 
4.20000000000355, -0.4635312278804304 
4.210000000003527, -0.4588483707357557 
4.220000000003504, -0.45501387755870554 
4.23000000000348, -0.45208163198896595 
4.240000000003457, -0.4499447751007876 
4.250000000003434, -0.4484388938267797 
4.26000000000341, -0.4474041490610598 
4.270000000003387, -0.4467098388261365 
4.280000000003364, -0.44625816561430354 
4.2900000000033405, -0.44597977646985126 
4.300000000003317, -0.4458274812473502 
4.310000000003294, -0.4457706813868736 
4.320000000003271, -0.44579121330602217 
4.330000000003247, -0.44588058672605435 
4.340000000003224, -0.4460383158392124 
4.350000000003201, -0.44627083992832733 
4.360000000003177, -0.44659025991461887 
4.370000000003154, -0.4470118250847414 
4.380000000003131, -0.4475490625595202 
4.390000000003107, -0.4482061096817098 
4.400000000003084, -0.4489686095910022 
4.410000000003061, -0.44979724289678147 
4.4200000000030375, -0.45062966890601003 
4.430000000003014, -0.45139386514248503 
4.440000000002991, -0.45202793770921074 
4.450000000002968, -0.45249524700681754 
4.460000000002944, -0.4527869669941764 
4.470000000002921, -0.4529137823578854 
4.480000000002898, -0.4528940557318859 
4.490000000002874, -0.45274414179365535 
4.500000000002851, -0.45247226420920866 
4.510000000002828, -0.4520747011040097 
4.520000000002804, -0.4515324348736021 
4.530000000002781, -0.4508069102713431 
4.540000000002758, -0.44983465959216085 
4.5500000000027345, -0.44852288643415034 
4.560000000002711, -0.4467527607325213 
4.570000000002688, -0.44440325547921067 
4.580000000002665, -0.4414071206724738 
4.590000000002641, -0.43782557764328134 
4.600000000002618, -0.4338851944092338 
4.610000000002595, -0.4299205075527367 
4.620000000002571, -0.4262482745597036 
4.630000000002548, -0.4230682528143922 
4.640000000002525, -0.4204456472409146 
4.6500000000025015, -0.41835125142161794 
4.660000000002478, -0.41671186282223377 
4.670000000002455, -0.41544569594054226 
4.6800000000024315, -0.4144802266792322 
4.690000000002408, -0.41375843206324436 
4.700000000002385, -0.413239339509947 
4.710000000002362, -0.41289656510202094 
4.720000000002338, -0.4127166737877185 
4.730000000002315, -0.4126981266211365 
4.740000000002292, -0.412851045219696 
4.750000000002268, -0.41319772125174625 
4.760000000002245, -0.4137734772630429 
4.770000000002222, -0.4146269112664204 
4.7800000000021985, -0.4158175140441952 
4.790000000002175, -0.4174071199761368 
4.800000000002152, -0.41944048547063273 
4.810000000002129, -0.4219124241034432 
4.820000000002105, -0.4247293702487133 
4.830000000002082, -0.4276918834759866 
4.840000000002059, -0.4305315507617209 
4.850000000002035, -0.433000924419303 
4.860000000002012, -0.43495844828294183 
4.870000000001989, -0.43638853438908837 
4.880000000001965, -0.43736022468141345 
4.890000000001942, -0.43797149996286916 
4.900000000001919, -0.43831249473767864 
4.9100000000018955, -0.4384511670716848 
