t, s[1].omega / s[0].omega 
0, -0.5099977544630947 
0.009999999999999995, -0.5097910320775253 
0.019999999999999934, -0.5096124211740392 
0.029999999999999874, -0.5094432848486253 
0.04000000000000012, -0.5092605190560998 
0.050000000000000405, -0.5090439809899212 
0.06000000000000069, -0.5087810436426358 
0.07000000000000098, -0.508467298976355 
0.08000000000000126, -0.5081048185022915 
0.09000000000000155, -0.5077001498890581 
0.10000000000000184, -0.5072636349952674 
0.11000000000000212, -0.5068108258548719 
0.12000000000000241, -0.5063663974451076 
0.130000000000002, -0.5059708961037448 
0.1400000000000009, -0.5056903041602432 
0.1499999999999998, -0.5056265567832707 
0.1599999999999987, -0.5059216747033363 
0.1699999999999976, -0.5067367672531004 
0.1799999999999965, -0.5081743210232377 
0.1899999999999954, -0.5101286889501047 
0.1999999999999943, -0.5121548044678687 
0.2099999999999932, -0.5135900953988689 
0.2199999999999921, -0.5140075949109914 
0.229999999999991, -0.5135523934336075 
0.2399999999999899, -0.5127344890272719 
0.2499999999999888, -0.511992742875403 
0.2599999999999877, -0.5115088849510459 
0.2699999999999866, -0.5112754476651398 
0.2799999999999855, -0.5112136314750434 
0.2899999999999844, -0.5112428355700017 
0.2999999999999833, -0.5113035725538819 
0.3099999999999822, -0.5113578305284865 
0.3199999999999811, -0.5113827630505264 
0.32999999999998, -0.5113643332962584 
0.3399999999999789, -0.5112928412396585 
0.3499999999999778, -0.5111606399637836 
0.35999999999997667, -0.5109620161235922 
0.36999999999997557, -0.5106950738478366 
0.37999999999997447, -0.5103648861093972 
0.38999999999997337, -0.5099860839374637 
0.39999999999997227, -0.5095823244270663 
0.40999999999997117, -0.5091811477756245 
0.41999999999997006, -0.5088056914402725 
0.42999999999996896, -0.5084672735495799 
0.43999999999996786, -0.5081626308126987 
0.44999999999996676, -0.5078768925685166 
0.45999999999996566, -0.5075903173210976 
0.46999999999996456, -0.5072852503732797 
0.47999999999996346, -0.5069504359470025 
0.48999999999996235, -0.5065820318303507 
0.49999999999996125, -0.5061826558969655 
0.5099999999999602, -0.5057603798670025 
0.519999999999959, -0.5053291094070882 
0.529999999999958, -0.5049111846560465 
0.5399999999999568, -0.5045427911681861 
0.5499999999999557, -0.5042827590246254 
0.5599999999999546, -0.5042249558968033 
0.5699999999999535, -0.5045125270504611 
0.5799999999999524, -0.5053463670424568 
0.5899999999999513, -0.5069675052236319 
0.5999999999999502, -0.5095765528536998 
0.6099999999999491, -0.5131621139156364 
0.619999999999948, -0.5173100937938386 
0.6299999999999469, -0.5212396495494996 
0.6399999999999458, -0.5242318891082226 
0.6499999999999447, -0.5260896846571923 
0.6599999999999436, -0.5271071233330014 
0.6699999999999425, -0.5276894841697592 
0.6799999999999414, -0.5280997623225827 
0.6899999999999403, -0.528443092777748 
0.6999999999999392, -0.5287397687278247 
0.7099999999999381, -0.5289825352710545 
0.719999999999937, -0.5291616806807479 
0.7299999999999359, -0.5292711769278406 
0.7399999999999348, -0.5293076789051243 
0.7499999999999337, -0.5292680685665226 
0.7599999999999326, -0.5291476149636865 
0.7699999999999315, -0.5289394998706048 
0.7799999999999304, -0.5286361970699646 
0.7899999999999293, -0.5282330126311694 
0.7999999999999282, -0.5277332473488412 
0.8099999999999271, -0.5271527684818398 
0.819999999999926, -0.5265205016727337 
0.8299999999999249, -0.5258726577524074 
0.8399999999999238, -0.5252426076749004 
0.8499999999999227, -0.524651717745026 
0.8599999999999216, -0.5241057495799527 
0.8699999999999205, -0.5235976179071398 
0.8799999999999194, -0.5231139044205431 
0.8899999999999183, -0.5226415393357975 
0.8999999999999172, -0.5221722552326156 
0.9099999999999161, -0.5217044701368818 
0.919999999999915, -0.521243768883606 
0.9299999999999139, -0.5208035416690258 
0.9399999999999128, -0.5204069989089055 
0.9499999999999117, -0.520091366725084 
0.9599999999999106, -0.5199148780744588 
0.9699999999999095, -0.5199670844643666 
0.9799999999999084, -0.5203825571485794 
0.9899999999999073, -0.5213562783476188 
0.9999999999999062, -0.5231541398997158 
1.0099999999999052, -0.5261014618717514 
1.019999999999904, -0.5305167651665811 
1.029999999999903, -0.5365537401831435 
1.039999999999902, -0.543970785943272 
1.0499999999999008, -0.5519990938840107 
1.0599999999998997, -0.5595628348959574 
1.0699999999998986, -0.5658036588252615 
1.0799999999998975, -0.5704354470754678 
1.0899999999998964, -0.5736466945069603 
1.0999999999998953, -0.5757975049443327 
1.1099999999998942, -0.5772150626258665 
1.119999999999893, -0.5781345962946748 
1.129999999999892, -0.5787100932068923 
1.1399999999998909, -0.579038536301782 
1.1499999999998898, -0.5791788293360043 
1.1599999999998887, -0.5791634786034987 
1.1699999999998876, -0.5790050968938795 
1.1799999999998865, -0.5786999281110615 
1.1899999999998854, -0.5782304221030129 
1.1999999999998843, -0.5775692013194996 
1.2099999999998832, -0.5766871061712322 
1.219999999999882, -0.5755668620999053 
1.229999999999881, -0.5742195100354346 
1.2399999999998799, -0.5726945136856375 
1.2499999999998788, -0.5710736533632844 
1.2599999999998777, -0.5694489663003038 
1.2699999999998766, -0.5678977477198393 
1.2799999999998755, -0.566468573994577 
1.2899999999998744, -0.5651818088335684 
1.2999999999998733, -0.5640388030306827 
1.3099999999998722, -0.5630325369377573 
1.319999999999871, -0.5621556507798029 
1.32999999999987, -0.5614050995153469 
1.3399999999998689, -0.5607843225765182 
1.3499999999998678, -0.560304105168645 
1.3599999999998666, -0.5599829865819677 
1.3699999999998655, -0.5598476814234099 
1.3799999999998644, -0.5599337183245723 
1.3899999999998633, -0.5602863325642363 
1.3999999999998622, -0.5609614307441594 
1.4099999999998611, -0.5620259812743156 
1.41999999999986, -0.5635562478180922 
1.429999999999859, -0.5656307259567588 
1.4399999999998578, -0.5683128397906916 
1.4499999999998567, -0.5716184058663482 
1.4599999999998556, -0.5754694662055718 
1.4699999999998545, -0.5796544432228617 
1.4799999999998534, -0.5838362043080769 
1.4899999999998523, -0.5876391189778765 
1.4999999999998512, -0.5907800738040291 
1.5099999999998501, -0.5931512380961059 
1.519999999999849, -0.5948033999454958 
1.529999999999848, -0.595869210087584 
1.5399999999998468, -0.5964920346053815 
1.5499999999998457, -0.5967885657944756 
1.5599999999998446, -0.5968385292160725 
1.5699999999998435, -0.5966865001560839 
1.5799999999998424, -0.596345690722093 
1.5899999999998413, -0.5957991005966069 
1.5999999999998402, -0.5949965387036684 
1.6099999999998391, -0.5938479870632289 
1.619999999999838, -0.5922169495928244 
1.629999999999837, -0.5899241597765574 
1.6399999999998358, -0.5867813536643997 
1.6499999999998347, -0.5826738013325982 
1.6599999999998336, -0.5776734389807904 
1.6699999999998325, -0.5720989068346365 
1.6799999999998314, -0.5664368299439095 
1.6899999999998303, -0.561159851961143 
1.6999999999998292, -0.5565792082450903 
1.709999999999828, -0.5528130050069695 
1.719999999999827, -0.5498380641696343 
1.729999999999826, -0.5475591007101721 
1.7399999999998248, -0.5458590931940359 
1.7499999999998237, -0.5446260934857576 
1.7599999999998226, -0.5437638932560543 
1.7699999999998215, -0.5431943098830891 
1.7799999999998204, -0.5428560104186506 
1.7899999999998193, -0.5427023416801666 
1.7999999999998182, -0.5426992049356681 
1.809999999999817, -0.542823331601887 
1.819999999999816, -0.5430610176569389 
1.8299999999998149, -0.5434071833215237 
1.8399999999998138, -0.5438643590413157 
1.8499999999998127, -0.5444407958282989 
1.8599999999998116, -0.5451465110623368 
1.8699999999998105, -0.5459861788255642 
1.8799999999998094, -0.5469490533334695 
1.8899999999998083, -0.547998976589163 
1.8999999999998072, -0.5490708721071044 
1.909999999999806, -0.5500802218761877 
1.919999999999805, -0.5509449486645958 
1.9299999999998039, -0.5516084279839744 
1.9399999999998028, -0.5520498398517983 
1.9499999999998017, -0.5522781815406982 
1.9599999999998006, -0.552317584339583 
1.9699999999997995, -0.5521933321782152 
1.9799999999997984, -0.5519227360799082 
1.9899999999997973, -0.5515101451895863 
1.9999999999997962, -0.5509435518882159 
2.0099999999998173, -0.550190226232705 
2.0199999999998384, -0.5491890064617138 
2.0299999999998595, -0.5478367581524066 
2.0399999999998806, -0.545967089611058 
2.0499999999999017, -0.5433247879531674 
2.059999999999923, -0.5395588449674541 
2.069999999999944, -0.5342948991693788 
2.079999999999965, -0.527357539831654 
2.089999999999986, -0.5190715469336559 
2.100000000000007, -0.5103254402726437 
2.1100000000000283, -0.5021897616842081 
2.1200000000000494, -0.495410407734898 
2.1300000000000705, -0.49022088133755054 
2.1400000000000916, -0.4864819991240476 
2.1500000000001127, -0.48390018763078374 
2.160000000000134, -0.4821728769655899 
2.170000000000155, -0.4810492111554098 
2.180000000000176, -0.4803414765771282 
2.190000000000197, -0.4799168194327234 
2.2000000000002182, -0.4796843915625136 
2.2100000000002393, -0.47958373950801836 
2.2200000000002604, -0.4795759701656013 
2.2300000000002815, -0.47963766369919913 
2.2400000000003026, -0.4797570646929151 
2.2500000000003237, -0.47993195371888275 
2.260000000000345, -0.48016840955783513 
2.270000000000366, -0.480479323074383 
2.280000000000387, -0.48088122037723047 
2.290000000000408, -0.4813881727678246 
2.3000000000004293, -0.48200281130075345 
2.3100000000004504, -0.4827068330693846 
2.3200000000004715, -0.48345606265062724 
2.3300000000004926, -0.48418564393774555 
2.3400000000005137, -0.48482621846664625 
2.3500000000005348, -0.48532349358391186 
2.360000000000556, -0.4856498397239277 
2.370000000000577, -0.48580279603972487 
2.380000000000598, -0.48579476678961264 
2.390000000000619, -0.485641343326387 
2.4000000000006403, -0.48535248474642784 
2.4100000000006614, -0.4849266656815569 
2.4200000000006825, -0.48434599090179387 
2.4300000000007036, -0.4835697471865433 
2.4400000000007247, -0.4825237828814653 
2.450000000000746, -0.48108339203998957 
2.460000000000767, -0.479050173646825 
2.470000000000788, -0.4761346789394641 
2.480000000000809, -0.47198391074466944 
2.49000000000083, -0.466319704554632 
2.5000000000008513, -0.45919741620795884 
2.5100000000008724, -0.45119260880061896 
2.5200000000008935, -0.4432348917936406 
2.5300000000009146, -0.4361607245410527 
2.5400000000009357, -0.4303991931491325 
2.550000000000957, -0.42598311253092735 
2.560000000000978, -0.4227261622759704 
2.570000000000999, -0.42038031106735074 
2.58000000000102, -0.41871811428979233 
2.5900000000010412, -0.41755956448134934 
2.6000000000010624, -0.41677249518015547 
2.6100000000010835, -0.4162643015385024 
2.6200000000011046, -0.4159728203122672 
2.6300000000011257, -0.4158589976374868 
2.6400000000011468, -0.41590182948766297 
2.650000000001168, -0.41609534335951376 
2.660000000001189, -0.41644717458921515 
2.67000000000121, -0.41697811166261645 
2.680000000001231, -0.4177215867974997 
2.6900000000012523, -0.41872133482884466 
2.7000000000012734, -0.42002440705584476 
2.7100000000012945, -0.4216660603865571 
2.7200000000013156, -0.4236447201408476 
2.7300000000013367, -0.42589257421836324 
2.740000000001358, -0.4282605440172015 
2.750000000001379, -0.43054232564370515 
2.7600000000014, -0.432539434734349 
2.770000000001421, -0.4341279237040828 
2.780000000001442, -0.43528057325561925 
2.7900000000014633, -0.43604074832141715 
2.8000000000014844, -0.4364799642601212 
2.8100000000015055, -0.43666631059409067 
2.8200000000015266, -0.43664951323728696 
2.8300000000015477, -0.4364566600260772 
2.840000000001569, -0.4360918459559491 
2.85000000000159, -0.4355359988075026 
2.860000000001611, -0.43474619726643066 
2.870000000001632, -0.43365678118946993 
2.8800000000016532, -0.4321880893804595 
2.8900000000016743, -0.43027098433537425 
2.9000000000016954, -0.42788961123319524 
2.9100000000017165, -0.42512456891109685 
2.9200000000017377, -0.42215826061941575 
2.9300000000017588, -0.4192211406282308 
2.94000000000178, -0.4165112435453744 
2.950000000001801, -0.41414326130137435 
2.960000000001822, -0.4121477854329695 
2.970000000001843, -0.41050004093212483 
2.9800000000018643, -0.40915125688663306 
2.9900000000018854, -0.4080501464317656 
3.0000000000019065, -0.4071539261736851 
3.0100000000019276, -0.40643252116540757 
3.0200000000019487, -0.40586953936896625 
3.03000000000197, -0.40546242723903364 
3.040000000001991, -0.4052232073332829 
3.050000000002012, -0.4051806087852953 
3.060000000002033, -0.4053841431943879 
3.070000000002054, -0.4059105404059907 
3.0800000000020753, -0.4068725877496675 
3.0900000000020964, -0.40842911765461265 
3.1000000000021175, -0.4107912765659341 
3.1100000000021386, -0.414212154820505 
3.1200000000021597, -0.41893389785803975 
3.130000000002181, -0.42505992138401333 
3.140000000002202, -0.43235977718473195 
3.150000000002223, -0.44014093983950087 
3.160000000002244, -0.4474183055551927 
3.1700000000022652, -0.4533815301383822 
3.1800000000022863, -0.457749308919923 
3.1900000000023074, -0.4607070566055148 
3.2000000000023285, -0.46262142865205114 
3.2100000000023496, -0.463830384378045 
3.2200000000023707, -0.4645759354905067 
3.230000000002392, -0.4650126668212552 
3.240000000002413, -0.4652338337093709 
3.250000000002434, -0.4652929690543841 
3.260000000002455, -0.46521776030336853 
3.2700000000024763, -0.4650183506328312 
3.2800000000024974, -0.4646928413882308 
3.2900000000025185, -0.4642324782533992 
3.3000000000025396, -0.4636285031778541 
3.3100000000025607, -0.4628812850503422 
3.3200000000025818, -0.46200944177451797 
3.330000000002603, -0.46105356893985777 
3.340000000002624, -0.46006983002211854 
3.350000000002645, -0.45911496831635895 
3.360000000002666, -0.4582309487985084 
3.3700000000026873, -0.45743721937953996 
3.3800000000027084, -0.45673242302702477 
3.3900000000027295, -0.4561020290884413 
3.4000000000027506, -0.45552711729954354 
3.4100000000027717, -0.4549910954072091 
3.420000000002793, -0.4544833634973077 
3.430000000002814, -0.454000659450999 
3.440000000002835, -0.45354756361732873 
3.450000000002856, -0.45313756859051846 
3.460000000002877, -0.45279575961442886 
3.4700000000028983, -0.4525639165962752 
3.4800000000029194, -0.4525087945872458 
3.4900000000029405, -0.4527341391831026 
3.5000000000029616, -0.45339577837038636 
3.5100000000029827, -0.45471497240959013 
3.520000000003004, -0.45697468462524604 
3.530000000003025, -0.46046441961293744 
3.540000000003046, -0.46532588671109665 
3.550000000003067, -0.4713040856512338 
3.5600000000030882, -0.4775959703371834 
3.5700000000031094, -0.48312647202625153 
3.5800000000031305, -0.4871874956753894 
3.5900000000031516, -0.48977663283468387 
3.6000000000031727, -0.49132399938152443 
3.6100000000031938, -0.49227192772577866 
3.620000000003215, -0.49289935977864785 
3.630000000003236, -0.49334300059190356 
3.640000000003257, -0.4936621112983458 
3.650000000003278, -0.49388247892379517 
3.6600000000032993, -0.4940167016886541 
3.6700000000033204, -0.4940714593901626 
3.6800000000033415, -0.49404948965448303 
3.6900000000033626, -0.4939500449102977 
3.7000000000033837, -0.49376954290814223 
3.710000000003405, -0.49350334872230917 
3.720000000003426, -0.49314919476115227 
3.730000000003447, -0.49271189082942896 
3.740000000003468, -0.4922074624420768 
3.750000000003489, -0.491663648409145 
3.7600000000035103, -0.49111467202787795 
3.7700000000035314, -0.49059175116409637 
3.7800000000035525, -0.4901140695178829 
3.7900000000035736, -0.48968472944906016 
3.8000000000035947, -0.4892929987309634 
3.810000000003616, -0.488920828216044 
3.820000000003637, -0.48855010040073366 
3.830000000003658, -0.4881676880148613 
3.840000000003679, -0.4877673919833326 
3.8500000000037002, -0.4873497377268371 
3.8600000000037213, -0.4869213656906849 
3.8700000000037424, -0.48649547722574304 
3.8800000000037635, -0.4860942666690124 
3.8900000000037847, -0.4857539982179905 
3.9000000000038058, -0.4855333385824635 
3.910000000003827, -0.48552523500677724 
3.920000000003848, -0.4858709177055525 
3.930000000003869, -0.4867692697302135 
3.94000000000389, -0.4884626764005258 
3.9500000000039113, -0.4911628387997829 
3.9600000000039324, -0.49488214885287823 
3.9700000000039535, -0.4992259166266617 
3.9800000000039746, -0.5033882417265969 
3.9900000000039957, -0.5065704135167709 
4.000000000004016, -0.5085053669734787 
4.010000000003993, -0.5094886284808433 
4.02000000000397, -0.5099773211287311 
4.030000000003946, -0.5102844705891948 
4.040000000003923, -0.5105415286234056 
4.0500000000039, -0.5107760883597974 
4.0600000000038765, -0.5109791471637172 
4.070000000003853, -0.5111366737435528 
4.08000000000383, -0.5112386278733114 
4.090000000003807, -0.5112788990849029 
4.100000000003783, -0.5112530035021481 
4.11000000000376, -0.511156139825222 
4.120000000003737, -0.5109825113329178 
4.130000000003713, -0.5107263652928814 
4.14000000000369, -0.5103849515762678 
4.150000000003667, -0.5099628439653578 
4.1600000000036434, -0.5094756538123514 
4.17000000000362, -0.5089501252917551 
4.180000000003597, -0.5084187416687044 
4.1900000000035735, -0.5079104837765317 
4.20000000000355, -0.507442393510632 
4.210000000003527, -0.5070161878158095 
4.220000000003504, -0.5066209458484041 
4.23000000000348, -0.50623966576375 
4.240000000003457, -0.505856159700386 
4.250000000003434, -0.5054595986867314 
4.26000000000341, -0.5050460970349795 
4.270000000003387, -0.5046185050127188 
4.280000000003364, -0.5041861439876978 
4.2900000000033405, -0.5037658644053102 
4.300000000003317, -0.5033853162801775 
4.310000000003294, -0.5030891206272179 
4.320000000003271, -0.5029486193700228 
4.330000000003247, -0.5030755367147818 
4.340000000003224, -0.5036380821932763 
4.350000000003201, -0.5048725358816408 
4.360000000003177, -0.507071029291531 
4.370000000003154, -0.5105080715003576 
4.380000000003131, -0.5152676510694232 
4.390000000003107, -0.5210136723998346 
4.400000000003084, -0.5269292682537079 
4.410000000003061, -0.532069407581621 
4.4200000000030375, -0.5359073826926186 
4.430000000003014, -0.5385015535197707 
4.440000000002991, -0.5402053322843302 
4.450000000002968, -0.5413537692531771 
4.460000000002944, -0.5421583236441779 
4.470000000002921, -0.5427315106670954 
4.480000000002898, -0.5431321823993583 
4.490000000002874, -0.5433938474809531 
4.500000000002851, -0.5435371792035106 
4.510000000002828, -0.5435743967716976 
4.520000000002804, -0.5435104923581878 
4.530000000002781, -0.5433436803403684 
4.540000000002758, -0.5430663382747369 
4.5500000000027345, -0.5426674996847087 
4.560000000002711, -0.5421378013084399 
4.570000000002688, -0.5414767623215109 
4.580000000002665, -0.5406999449116503 
4.590000000002641, -0.5398413248517084 
4.600000000002618, -0.5389473004789483 
4.610000000002595, -0.538064168189966 
4.620000000002571, -0.5372259351569921 
4.630000000002548, -0.5364487239274885 
4.640000000002525, -0.5357329289006529 
4.6500000000025015, -0.5350699554358794 
4.660000000002478, -0.534449458764118 
4.670000000002455, -0.5338645641571966 
4.6800000000024315, -0.5333146733468533 
4.690000000002408, -0.5328068461774325 
4.700000000002385, -0.5323570784640995 
4.710000000002362, -0.5319924903318058 
4.720000000002338, -0.5317550284686547 
4.730000000002315, -0.5317070126758993 
4.740000000002292, -0.5319386442207727 
4.750000000002268, -0.5325771316889261 
4.760000000002245, -0.5337957931576512 
4.770000000002222, -0.535818330846529 
4.7800000000021985, -0.5389071071059639 
4.790000000002175, -0.5433149442248597 
4.800000000002152, -0.5491762195504465 
4.810000000002129, -0.5563412942980386 
4.820000000002105, -0.5642466130020167 
4.830000000002082, -0.5719978721210623 
4.840000000002059, -0.5787259179329458 
4.850000000002035, -0.5839587007278987 
4.860000000002012, -0.587695523495446 
4.870000000001989, -0.5902120425415855 
4.880000000001965, -0.5918403560060084 
4.890000000001942, -0.592855606239037 
4.900000000001919, -0.5934516120952236 
