t, s[1].omega / s[0].omega 
0, -0.5399977458026237 
0.009999999999999995, -0.5397851429677332 
0.019999999999999934, -0.5395913564797448 
0.029999999999999874, -0.5393995264334999 
0.04000000000000012, -0.5391891276076339 
0.050000000000000405, -0.5389428979958771 
0.06000000000000069, -0.5386509583094247 
0.07000000000000098, -0.5383113977125698 
0.08000000000000126, -0.5379288295417948 
0.09000000000000155, -0.5375130452969002 
0.10000000000000184, -0.5370793049509789 
0.11000000000000212, -0.5366511012669544 
0.12000000000000241, -0.536265985175171 
0.130000000000002, -0.535985097487683 
0.1400000000000009, -0.5359068380328595 
0.1499999999999998, -0.5361835073788935 
0.1599999999999987, -0.5370346752493497 
0.1699999999999976, -0.5387395322746182 
0.1799999999999965, -0.5415734176917018 
0.1899999999999954, -0.5456519098529304 
0.1999999999999943, -0.5507167309273928 
0.2099999999999932, -0.5560620739199267 
0.2199999999999921, -0.5608294472140822 
0.229999999999991, -0.5645001659532903 
0.2399999999999899, -0.5670747642543602 
0.2499999999999888, -0.5688359631826878 
0.2599999999999877, -0.5700678989176452 
0.2699999999999866, -0.5709542697693564 
0.2799999999999855, -0.5715956696911071 
0.2899999999999844, -0.5720477619401952 
0.2999999999999833, -0.5723449069108413 
0.3099999999999822, -0.5725099692850292 
0.3199999999999811, -0.5725572630813167 
0.32999999999998, -0.5724930189516777 
0.3399999999999789, -0.5723153438835026 
0.3499999999999778, -0.5720147188892174 
0.35999999999997667, -0.5715760953701851 
0.36999999999997557, -0.5709838147170825 
0.37999999999997447, -0.5702298693616624 
0.38999999999997337, -0.5693235582471733 
0.39999999999997227, -0.5682972725169919 
0.40999999999997117, -0.5672027973687512 
0.41999999999997006, -0.5660980505536103 
0.42999999999996896, -0.5650315031846133 
0.43999999999996786, -0.5640328494316036 
0.44999999999996676, -0.5631129498599063 
0.45999999999996566, -0.5622701120869662 
0.46999999999996456, -0.5614979446849265 
0.47999999999996346, -0.5607915817582992 
0.48999999999996235, -0.5601514366795717 
0.49999999999996125, -0.5595851787616576 
0.5099999999999602, -0.5591090378185937 
0.519999999999959, -0.5587492703897853 
0.529999999999958, -0.5585441963076625 
0.5399999999999568, -0.5585468999294634 
0.5499999999999557, -0.558828480148154 
0.5599999999999546, -0.559481455327017 
0.5699999999999535, -0.5606222848803059 
0.5799999999999524, -0.5623905121170614 
0.5899999999999513, -0.5649392824189048 
0.5999999999999502, -0.5684081848888649 
0.6099999999999491, -0.5728677522992311 
0.619999999999948, -0.5782352601731993 
0.6299999999999469, -0.5841963061061156 
0.6399999999999458, -0.5902123738360898 
0.6499999999999447, -0.5956769303372845 
0.6599999999999436, -0.600149284258934 
0.6699999999999425, -0.6034876711554867 
0.6799999999999414, -0.605800571276814 
0.6899999999999403, -0.6073081301907369 
0.6999999999999392, -0.6082309183322532 
0.7099999999999381, -0.6087411784250565 
0.719999999999937, -0.6089557626665375 
0.7299999999999359, -0.6089445770473219 
0.7399999999999348, -0.6087402473197291 
0.7499999999999337, -0.6083439895799138 
0.7599999999999326, -0.6077268978893329 
0.7699999999999315, -0.6068277641070631 
0.7799999999999304, -0.6055507529922093 
0.7899999999999293, -0.6037704291039193 
0.7999999999999282, -0.6013566791839684 
0.8099999999999271, -0.5982298416922285 
0.819999999999926, -0.5944332781060163 
0.8299999999999249, -0.5901732071765731 
0.8399999999999238, -0.5857748187690912 
0.8499999999999227, -0.5815713431079329 
0.8599999999999216, -0.5778048525777992 
0.8699999999999205, -0.5745935587525083 
0.8799999999999194, -0.5719552878909911 
0.8899999999999183, -0.5698491456704915 
0.8999999999999172, -0.5682098637237563 
0.9099999999999161, -0.5669682782801203 
0.919999999999915, -0.5660608859139262 
0.9299999999999139, -0.5654331255440957 
0.9399999999999128, -0.5650398061748461 
0.9499999999999117, -0.5648445776969405 
0.9599999999999106, -0.5648192960009409 
0.9699999999999095, -0.5649435680004845 
0.9799999999999084, -0.565204493344412 
0.9899999999999073, -0.5655964570889853 
0.9999999999999062, -0.56612061324246 
1.0099999999999052, -0.5667833485268957 
1.019999999999904, -0.5675926238141713 
1.029999999999903, -0.5685510711754181 
1.039999999999902, -0.5696458164721909 
1.0499999999999008, -0.570837815446196 
1.0599999999998997, -0.5720572288828055 
1.0699999999998986, -0.5732122419264982 
1.0799999999998975, -0.574211973783993 
1.0899999999998964, -0.5749922131118647 
1.0999999999998953, -0.575528350129658 
1.1099999999998942, -0.5758299854758804 
1.119999999999893, -0.5759249452223791 
1.129999999999892, -0.5758435168338537 
1.1399999999998909, -0.575608164462029 
1.1499999999998898, -0.5752282686139231 
1.1599999999998887, -0.5746972071924343 
1.1699999999998876, -0.5739891349746762 
1.1799999999998865, -0.573053246967757 
1.1899999999998854, -0.5718033146484707 
1.1999999999998843, -0.5701002656810872 
1.2099999999998832, -0.567728130425459 
1.219999999999882, -0.5643761340508523 
1.229999999999881, -0.5596718076234992 
1.2399999999998799, -0.5533424995843603 
1.2499999999998788, -0.5455117544044042 
1.2599999999998777, -0.5368934004587551 
1.2699999999998766, -0.5285626120969212 
1.2799999999998755, -0.521426558554045 
1.2899999999998744, -0.5158889686702647 
1.2999999999998733, -0.511899358944079 
1.3099999999998722, -0.5091767989920226 
1.319999999999871, -0.5073941354289537 
1.32999999999987, -0.5062678879842133 
1.3399999999998689, -0.5055826585147224 
1.3499999999998678, -0.5051858810023587 
1.3599999999998666, -0.5049738784092354 
1.3699999999998655, -0.5048780911449607 
1.3799999999998644, -0.5048542026797883 
1.3899999999998633, -0.5048744702441603 
1.3999999999998622, -0.5049228387848516 
1.4099999999998611, -0.5049922547583179 
1.41999999999986, -0.5050834560439099 
1.429999999999859, -0.5052041867429933 
1.4399999999998578, -0.5053674123316154 
1.4499999999998567, -0.5055871969018576 
1.4599999999998556, -0.505871971226703 
1.4699999999998545, -0.5062168839945628 
1.4799999999998534, -0.5065988393459777 
1.4899999999998523, -0.5069781218723473 
1.4999999999998512, -0.5073077491872957 
1.5099999999998501, -0.5075465750376209 
1.519999999999849, -0.5076689918726724 
1.529999999999848, -0.5076666307658624 
1.5399999999998468, -0.5075432487446666 
1.5499999999998457, -0.5073072585462889 
1.5599999999998446, -0.5069654071444584 
1.5699999999998435, -0.506518583533565 
1.5799999999998424, -0.5059589979158697 
1.5899999999998413, -0.505267279146872 
1.5999999999998402, -0.504407583513551 
1.6099999999998391, -0.5033178078412008 
1.619999999999838, -0.5018902990334027 
1.629999999999837, -0.49993836370349937 
1.6399999999998358, -0.49715529367906147 
1.6499999999998347, -0.49311515609959233 
1.6599999999998336, -0.4874279934407964 
1.6699999999998325, -0.480102346671082 
1.6799999999998314, -0.47183328150193926 
1.6899999999998303, -0.4637650357187265 
1.6999999999998292, -0.4568630958682177 
1.709999999999828, -0.45153369726850895 
1.719999999999827, -0.4477042711106248 
1.729999999999826, -0.44508150404798563 
1.7399999999998248, -0.44334292272993564 
1.7499999999998237, -0.4422198273455928 
1.7599999999998226, -0.44151398297313743 
1.7699999999998215, -0.4410881152556742 
1.7799999999998204, -0.440850687576101 
1.7899999999998193, -0.4407424783331154 
1.7999999999998182, -0.4407267079622609 
1.809999999999817, -0.4407824919492155 
1.819999999999816, -0.4409009239774947 
1.8299999999998149, -0.44108302460822013 
1.8399999999998138, -0.441338661803266 
1.8499999999998127, -0.4416852359982565 
1.8599999999998116, -0.44214458942170853 
1.8699999999998105, -0.44273667508389575 
1.8799999999998094, -0.44346954444085196 
1.8899999999998083, -0.44432760479304373 
1.8999999999998072, -0.44526357997064314 
1.909999999999806, -0.44620170112454344 
1.919999999999805, -0.4470555918653867 
1.9299999999998039, -0.44775345961095575 
1.9399999999998028, -0.4482556508090174 
1.9499999999998017, -0.4485555209456223 
1.9599999999998006, -0.44866752769419865 
1.9699999999997995, -0.4486123914433751 
1.9799999999997984, -0.44840568615058685 
1.9899999999997973, -0.4480505881038542 
1.9999999999997962, -0.44753253011244015 
2.0099999999998173, -0.44681301779888105 
2.0199999999998384, -0.4458204767487941 
2.0299999999998595, -0.4444376843969927 
2.0399999999998806, -0.4424902307513749 
2.0499999999999017, -0.4397521485891017 
2.059999999999923, -0.43600114911930515 
2.069999999999944, -0.4311494919846396 
2.079999999999965, -0.42539938035852465 
2.089999999999986, -0.4192665655492007 
2.100000000000007, -0.41338144087729384 
2.1100000000000283, -0.40822048686318607 
2.1200000000000494, -0.40398637764872414 
2.1300000000000705, -0.40066044961310715 
2.1400000000000916, -0.3981134483968076 
2.1500000000001127, -0.39619017261871714 
2.160000000000134, -0.3947517154994052 
2.170000000000155, -0.39368910106716865 
2.180000000000176, -0.3929234767109262 
2.190000000000197, -0.3924019061987171 
2.2000000000002182, -0.3920928992724925 
2.2100000000002393, -0.39198321438716366 
2.2200000000002604, -0.3920763615218962 
2.2300000000002815, -0.39239282648904944 
2.2400000000003026, -0.39297183793154866 
2.2500000000003237, -0.3938741421928082 
2.260000000000345, -0.3951843389058226 
2.270000000000366, -0.3970093220625245 
2.280000000000387, -0.39946584278094843 
2.290000000000408, -0.40264632830724256 
2.3000000000004293, -0.4065544173073965 
2.3100000000004504, -0.4110244571325755 
2.3200000000004715, -0.41568615819881555 
2.3300000000004926, -0.42005300965153536 
2.3400000000005137, -0.4237175227921434 
2.3500000000005348, -0.42650263152013335 
2.360000000000556, -0.42845612101072367 
2.370000000000577, -0.4297413592401133 
2.380000000000598, -0.43053560148481845 
2.390000000000619, -0.43098107081709564 
2.4000000000006403, -0.43117538945226797 
2.4100000000006614, -0.43117791576303705 
2.4200000000006825, -0.43101859429702494 
2.4300000000007036, -0.430704927563968 
2.4400000000007247, -0.43022714602947926 
2.450000000000746, -0.42956363294342326 
2.460000000000767, -0.4286895463211807 
2.470000000000788, -0.427590815932374 
2.480000000000809, -0.42628150505148454 
2.49000000000083, -0.42481553357143004 
2.5000000000008513, -0.4232812371673461 
2.5100000000008724, -0.4217771910538562 
2.5200000000008935, -0.42038322721713206 
2.5300000000009146, -0.4191436598471596 
2.5400000000009357, -0.41806781907475515 
2.550000000000957, -0.4171413093358959 
2.560000000000978, -0.41633924663811517 
2.570000000000999, -0.4156364287716663 
2.58000000000102, -0.4150132655430407 
2.5900000000010412, -0.4144584356268509 
2.6000000000010624, -0.4139699340089756 
2.6100000000010835, -0.4135560663175153 
2.6200000000011046, -0.4132375752649821 
2.6300000000011257, -0.41305180899643873 
2.6400000000011468, -0.41305975979871457 
2.650000000001168, -0.41335672162173986 
2.660000000001189, -0.41408661863336 
2.67000000000121, -0.41545723992230543 
2.680000000001231, -0.41774555593431034 
2.6900000000012523, -0.4212649746877751 
2.7000000000012734, -0.42624439071632125 
2.7100000000012945, -0.43258537831618266 
2.7200000000013156, -0.43961361910402424 
2.7300000000013367, -0.44617670650423735 
2.740000000001358, -0.45126829360113047 
2.750000000001379, -0.45461575521714936 
2.7600000000014, -0.4565924898854523 
2.770000000001421, -0.45773292243115316 
2.780000000001442, -0.458426474470986 
2.7900000000014633, -0.4588829284780025 
2.8000000000014844, -0.45919861763860814 
2.8100000000015055, -0.4594153319281725 
2.8200000000015266, -0.4595518529971268 
2.8300000000015477, -0.459617255973776 
2.840000000001569, -0.4596156935841821 
2.85000000000159, -0.45954805228032675 
2.860000000001611, -0.4594130058635263 
2.870000000001632, -0.4592086920402031 
2.8800000000016532, -0.458935572969202 
2.8900000000016743, -0.4586002322736168 
2.9000000000016954, -0.45821862511741784 
2.9100000000017165, -0.45781630709716337 
2.9200000000017377, -0.45742384592279695 
2.9300000000017588, -0.4570683816196935 
2.94000000000178, -0.45676512580708895 
2.950000000001801, -0.4565129380931885 
2.960000000001822, -0.4562958888992621 
2.970000000001843, -0.45608972017542077 
2.9800000000018643, -0.4558699306589409 
2.9900000000018854, -0.4556178698009741 
3.0000000000019065, -0.45532296064088473 
3.0100000000019276, -0.45498164505504846 
3.0200000000019487, -0.4545950002091702 
3.03000000000197, -0.4541667653363698 
3.040000000001991, -0.453702635800021 
3.050000000002012, -0.45321096267588523 
3.060000000002033, -0.45270452456477156 
3.070000000002054, -0.4522022636814295 
3.0800000000020753, -0.4517277212187863 
3.0900000000020964, -0.451295826664738 
3.1000000000021175, -0.4508716190796644 
3.1100000000021386, -0.45028394958689877 
3.1200000000021597, -0.4491226917740275 
3.130000000002181, -0.44677637980741053 
3.140000000002202, -0.4428170890256788 
3.150000000002223, -0.4375266594471997 
3.160000000002244, -0.43187354119065136 
3.1700000000022652, -0.42685108731340937 
3.1800000000022863, -0.42295728938319305 
3.1900000000023074, -0.4202057401654901 
3.2000000000023285, -0.41837577045676727 
3.2100000000023496, -0.417207421024172 
3.2200000000023707, -0.4164848441260981 
3.230000000002392, -0.4160525276196367 
3.240000000002413, -0.41580620420422776 
3.250000000002434, -0.4156789070492509 
3.260000000002455, -0.4156291825467151 
3.2700000000024763, -0.41563284712945575 
3.2800000000024974, -0.41567791110313995 
3.2900000000025185, -0.41576192671005263 
3.3000000000025396, -0.4158909410267131 
3.3100000000025607, -0.4160790282675187 
3.3200000000025818, -0.41634702461962736 
3.330000000002603, -0.416718902713626 
3.340000000002624, -0.4172146719652428 
3.350000000002645, -0.41784012562686507 
3.360000000002666, -0.4185762554134234 
3.3700000000026873, -0.4193740530759557 
3.3800000000027084, -0.4201609865596393 
3.3900000000027295, -0.4208598639973786 
3.4000000000027506, -0.42141093964727394 
3.4100000000027717, -0.42178427527174434 
3.420000000002793, -0.42197724352079363 
3.430000000002814, -0.42200268941546915 
3.440000000002835, -0.42187608912097263 
3.450000000002856, -0.42160598868932364 
3.460000000002877, -0.4211874867533479 
3.4700000000028983, -0.4205965005603912 
3.4800000000029194, -0.41978243196761567 
3.4900000000029405, -0.4186578120144593 
3.5000000000029616, -0.41708638122252584 
3.5100000000029827, -0.4148786830049322 
3.520000000003004, -0.4118183900297362 
3.530000000003025, -0.4077510377529189 
3.540000000003046, -0.4027293158431358 
3.550000000003067, -0.39710891595049275 
3.5600000000030882, -0.3914553602891824 
3.5700000000031094, -0.38629761328112794 
3.5800000000031305, -0.38193930141226284 
3.5900000000031516, -0.3784440212989849 
3.6000000000031727, -0.37572668573034207 
3.6100000000031938, -0.3736479225421154 
3.620000000003215, -0.37207033872708645 
3.630000000003236, -0.3708813148817156 
3.640000000003257, -0.36999757610670103 
3.650000000003278, -0.3693626255109598 
3.6600000000032993, -0.36894271253809097 
3.6700000000033204, -0.36872370408460614 
3.6800000000033415, -0.36870969738076365 
3.6900000000033626, -0.36892364341540884 
3.7000000000033837, -0.3694100587043945 
3.710000000003405, -0.370239680907449 
3.720000000003426, -0.37151520592042686 
3.730000000003447, -0.37337526044360325 
3.740000000003468, -0.3759893375468572 
3.750000000003489, -0.3795289637328838 
3.7600000000035103, -0.38409456909724093 
3.7700000000035314, -0.38959289515309964 
3.7800000000035525, -0.39562505902623146 
3.7900000000035736, -0.4015264325766534 
3.8000000000035947, -0.40663073531994354 
3.810000000003616, -0.4105711001778859 
3.820000000003637, -0.4133514509580102 
3.830000000003658, -0.4151941050405622 
3.840000000003679, -0.41636256847777997 
3.8500000000037002, -0.4170710476295708 
3.8600000000037213, -0.41746686330874627 
3.8700000000037424, -0.4176423433683801 
3.8800000000037635, -0.4176509257963734 
3.8900000000037847, -0.4175195282939413 
3.9000000000038058, -0.41725685595683304 
3.910000000003827, -0.4168595751581914 
3.920000000003848, -0.4163186928886849 
3.930000000003869, -0.41562799167349496 
3.94000000000389, -0.41479443824544965 
3.9500000000039113, -0.4138469198962129 
3.9600000000039324, -0.41283700023021225 
3.9700000000039535, -0.4118281602270759 
3.9800000000039746, -0.4108780769864242 
3.9900000000039957, -0.4100239108232103 
4.000000000004016, -0.40927741574878496 
4.010000000003993, -0.40862939922542607 
4.02000000000397, -0.40805881080559014 
4.030000000003946, -0.40754181036962167 
4.040000000003923, -0.4070581272622521 
4.0500000000039, -0.4065941084258566 
4.0600000000038765, -0.4061433602818247 
4.070000000003853, -0.4057064958129487 
4.08000000000383, -0.40529134220456564 
4.090000000003807, -0.40491453392442417 
4.100000000003783, -0.4046050823299493 
4.11000000000376, -0.4044102385968448 
4.120000000003737, -0.40440320224808496 
4.130000000003713, -0.40468961548543686 
4.14000000000369, -0.40540267232883903 
4.150000000003667, -0.406662317096053 
4.1600000000036434, -0.40846001716633984 
4.17000000000362, -0.4104646999656757 
4.180000000003597, -0.41191301557169807 
4.1900000000035735, -0.41192859404898713 
4.20000000000355, -0.41023883819655327 
4.210000000003527, -0.40746314402149497 
4.220000000003504, -0.40454867779578024 
4.23000000000348, -0.40212274361645006 
4.240000000003457, -0.40036543871866404 
4.250000000003434, -0.3991979181500043 
4.26000000000341, -0.39846525921988823 
4.270000000003387, -0.39802492471271855 
4.280000000003364, -0.39777110241329117 
4.2900000000033405, -0.39763266239248285 
4.300000000003317, -0.39756448109569786 
4.310000000003294, -0.3975393793675921 
4.320000000003271, -0.3975424773032758 
4.330000000003247, -0.3975679552446868 
4.340000000003224, -0.3976177236146162 
4.350000000003201, -0.3977012781100572 
4.360000000003177, -0.3978356741010932 
4.370000000003154, -0.39804417136798276 
4.380000000003131, -0.3983520797571786 
4.390000000003107, -0.398779093602823 
4.400000000003084, -0.3993290576553058 
4.410000000003061, -0.39998050365650134 
4.4200000000030375, -0.4006835980770731 
4.430000000003014, -0.40136863037306825 
4.440000000002991, -0.4019649255537979 
4.450000000002968, -0.40242041914120075 
4.460000000002944, -0.4027107078731948 
4.470000000002921, -0.40283484805487807 
4.480000000002898, -0.40280391977572105 
4.490000000002874, -0.4026295015281196 
4.500000000002851, -0.4023151217208462 
4.510000000002828, -0.4018499901557311 
4.520000000002804, -0.4012028185345926 
4.530000000002781, -0.4003136641594409 
4.540000000002758, -0.39908313279405233 
4.5500000000027345, -0.39736239352839847 
4.560000000002711, -0.3949571588636429 
4.570000000002688, -0.3916726318174972 
4.580000000002665, -0.3874229529443796 
4.590000000002641, -0.3823670695019287 
4.600000000002618, -0.3769405403264605 
4.610000000002595, -0.37169439715193703 
4.620000000002571, -0.3670588564431677 
4.630000000002548, -0.3632265316810476 
4.640000000002525, -0.36019037725173875 
4.6500000000025015, -0.3578403597662722 
4.660000000002478, -0.35604048355556056 
4.670000000002455, -0.354668352104056 
4.6800000000024315, -0.35362855870245 
4.690000000002408, -0.35285355061520607 
4.700000000002385, -0.3523003691624217 
4.710000000002362, -0.3519472410641094 
4.720000000002338, -0.3517916242776681 
4.730000000002315, -0.3518503210170724 
4.740000000002292, -0.3521619616016596 
4.750000000002268, -0.3527920583484595 
4.760000000002245, -0.3538404915831785 
4.770000000002222, -0.35545001465484477 
4.7800000000021985, -0.35781079467504967 
4.790000000002175, -0.3611481321021175 
4.800000000002152, -0.36566833365329093 
4.810000000002129, -0.37143388376111025 
4.820000000002105, -0.3781839201015945 
4.830000000002082, -0.3852401572150138 
4.840000000002059, -0.39170465269668664 
4.850000000002035, -0.3968980429226482 
4.860000000002012, -0.40063722872809543 
4.870000000001989, -0.40313271775134984 
4.880000000001965, -0.4047256279327821 
