t, s[1].omega / s[0].omega 
0, -0.08999782154977783 
0.009999999999999995, -0.08981632429101054 
0.019999999999999934, -0.08970114019476907 
0.029999999999999874, -0.08963661195915221 
0.04000000000000012, -0.08960055559326602 
0.050000000000000405, -0.08956908714293385 
0.06000000000000069, -0.0895212096506252 
0.07000000000000098, -0.08944152150087022 
0.08000000000000126, -0.08932043781382785 
0.09000000000000155, -0.08915256081802717 
0.10000000000000184, -0.08893436805916712 
0.11000000000000212, -0.08866216889739824 
0.12000000000000241, -0.0883308557517142 
0.130000000000002, -0.08793376445262958 
0.1400000000000009, -0.08746398254371611 
0.1499999999999998, -0.08691740985563681 
0.1599999999999987, -0.08629731304662577 
0.1699999999999976, -0.08561877719169522 
0.1799999999999965, -0.08491009514157105 
0.1899999999999954, -0.08420863071658159 
0.1999999999999943, -0.08355194401461624 
0.2099999999999932, -0.08296846972832964 
0.2199999999999921, -0.08247213710340259 
0.229999999999991, -0.08206217854426606 
0.2399999999999899, -0.08172650390433037 
0.2499999999999888, -0.0814463951940339 
0.2599999999999877, -0.08120097970953798 
0.2699999999999866, -0.08097062212897221 
0.2799999999999855, -0.08073878463111793 
0.2899999999999844, -0.08049230302242151 
0.2999999999999833, -0.0802204222554881 
0.3099999999999822, -0.07991312817008453 
0.3199999999999811, -0.07955926748648022 
0.32999999999998, -0.07914485498571408 
0.3399999999999789, -0.07865206442395159 
0.3499999999999778, -0.07805980791444292 
0.35999999999997667, -0.07734733296989917 
0.36999999999997557, -0.0765020702701342 
0.37999999999997447, -0.07553063377346711 
0.38999999999997337, -0.0744672854896066 
0.39999999999997227, -0.07337158193933327 
0.40999999999997117, -0.07231249171045767 
0.41999999999997006, -0.07134739954012291 
0.42999999999996896, -0.07050856332357887 
0.43999999999996786, -0.06980207108628299 
0.44999999999996676, -0.06921512681407048 
0.45999999999996566, -0.06872514603398765 
0.46999999999996456, -0.06830686710222814 
0.47999999999996346, -0.06793660510937753 
0.48999999999996235, -0.06759409199057984 
0.49999999999996125, -0.06726259305244872 
0.5099999999999602, -0.066927891528945 
0.519999999999959, -0.06657656153379167 
0.529999999999958, -0.06619376414234433 
0.5399999999999568, -0.06576068506883856 
0.5499999999999557, -0.06525186596814012 
0.5599999999999546, -0.06463334646562183 
0.5699999999999535, -0.06386395364929007 
0.5799999999999524, -0.06290365713981745 
0.5899999999999513, -0.06173184573164009 
0.5999999999999502, -0.060370470803892295 
0.6099999999999491, -0.05889490790384102 
0.619999999999948, -0.05741596810073242 
0.6299999999999469, -0.05603999905046429 
0.6399999999999458, -0.054835291956876385 
0.6499999999999447, -0.053823773417869744 
0.6599999999999436, -0.052992875489674 
0.6699999999999425, -0.05231265803598088 
0.6799999999999414, -0.05174880175561597 
0.6899999999999403, -0.05126963460056527 
0.6999999999999392, -0.050848742501936064 
0.7099999999999381, -0.05046503497744834 
0.719999999999937, -0.050101503072756313 
0.7299999999999359, -0.04974327682882096 
0.7399999999999348, -0.049375134752627114 
0.7499999999999337, -0.04897831859850694 
0.7599999999999326, -0.04852643571353249 
0.7699999999999315, -0.047980721927835354 
0.7799999999999304, -0.047286688219722726 
0.7899999999999293, -0.04637769153206596 
0.7999999999999282, -0.04519398627150883 
0.8099999999999271, -0.043719839639180996 
0.819999999999926, -0.042019137948152305 
0.8299999999999249, -0.04023175538641728 
0.8399999999999238, -0.03851919569015468 
0.8499999999999227, -0.03700071739653358 
0.8599999999999216, -0.035726472939855376 
0.8699999999999205, -0.03469029265633496 
0.8799999999999194, -0.03385648016666444 
0.8899999999999183, -0.033181212973077384 
0.8999999999999172, -0.032623950186692945 
0.9099999999999161, -0.03215151023908217 
0.919999999999915, -0.03173826846528364 
0.9299999999999139, -0.031364668695359546 
0.9399999999999128, -0.03101504253382034 
0.9499999999999117, -0.030674949836823485 
0.9599999999999106, -0.03032775583074046 
0.9699999999999095, -0.02994986348479627 
0.9799999999999084, -0.029504172596715266 
0.9899999999999073, -0.02893283305936728 
0.9999999999999062, -0.028154685220845084 
1.0099999999999052, -0.027079459278587313 
1.019999999999904, -0.0256503806951039 
1.029999999999903, -0.023901635656574806 
1.039999999999902, -0.02197837299194835 
1.0499999999999008, -0.02008080375772257 
1.0599999999998997, -0.0183738225896866 
1.0699999999998986, -0.016937277810543615 
1.0799999999998975, -0.0157750539137049 
1.0899999999998964, -0.014849408518015705 
1.0999999999998953, -0.014110154314373008 
1.1099999999998942, -0.013510333290359448 
1.119999999999893, -0.013011791880927537 
1.129999999999892, -0.012585568434249905 
1.1399999999998909, -0.012210194650646673 
1.1499999999998898, -0.011869282077711114 
1.1599999999998887, -0.011548697358838912 
1.1699999999998876, -0.011232985884898676 
1.1799999999998865, -0.010900279576994042 
1.1899999999998854, -0.010514895420662721 
1.1999999999998843, -0.01001816013253738 
1.2099999999998832, -0.009322653013157791 
1.219999999999882, -0.008323586367758951 
1.229999999999881, -0.006943752564808304 
1.2399999999998799, -0.005202100737412217 
1.2499999999998788, -0.003246007161780042 
1.2599999999998777, -0.001294092614697939 
1.2699999999998766, 0.00034541187904553347 
1.2799999999998755, 0.0013904811783867388 
1.2899999999998744, 0.002147822670003093 
1.2999999999998733, 0.0026572523466965904 
1.3099999999998722, 0.0029720990586237232 
1.319999999999871, 0.0031419743356821614 
1.32999999999987, 0.0032068844252549017 
1.3399999999998689, 0.003196987037724403 
1.3499999999998678, 0.003134518423121276 
1.3599999999998666, 0.0030364127445098926 
1.3699999999998655, 0.002917315658373305 
1.3799999999998644, 0.002793375819642947 
1.3899999999998633, 0.002687621964133969 
1.3999999999998622, 0.0026376989381702615 
1.4099999999998611, 0.0027051810684362546 
1.41999999999986, 0.0029805573196410567 
1.429999999999859, 0.0035692076109051945 
1.4399999999998578, 0.004542613687938699 
1.4499999999998567, 0.0058694083398596105 
1.4599999999998556, 0.0073904698333784715 
1.4699999999998545, 0.008885157138103577 
1.4799999999998534, 0.010175898425134586 
1.4899999999998523, 0.011181411284283647 
1.4999999999998512, 0.01190234575283216 
1.5099999999998501, 0.012381604783010968 
1.519999999999849, 0.012673002387860283 
1.529999999999848, 0.012825531795023663 
1.5399999999998468, 0.012878373914278759 
1.5499999999998457, 0.012861073889593181 
1.5599999999998446, 0.01279565762437596 
1.5699999999998435, 0.012699381298366934 
1.5799999999998424, 0.012587909448023243 
1.5899999999998413, 0.01247933776025644 
1.5999999999998402, 0.012399799401485279 
1.6099999999998391, 0.012391105863711057 
1.619999999999838, 0.012518801234572075 
1.629999999999837, 0.012873400894634832 
1.6399999999998358, 0.013550030424270299 
1.6499999999998347, 0.014595895039337498 
1.6599999999998336, 0.015950126910676495 
1.6699999999998325, 0.017439324588502333 
1.6799999999998314, 0.018854753968682674 
1.6899999999998303, 0.020045540124888014 
1.6999999999998292, 0.020953727042114276 
1.709999999999828, 0.0215921486960462 
1.719999999999827, 0.022006827121208425 
1.729999999999826, 0.022250204496645404 
1.7399999999998248, 0.022368629703196086 
1.7499999999998237, 0.02239889472845226 
1.7599999999998226, 0.022368958681229782 
1.7699999999998215, 0.022300229142112077 
1.7799999999998204, 0.02221040880350572 
1.7899999999998193, 0.022116822689339708 
1.7999999999998182, 0.022040615611456812 
1.809999999999817, 0.02201230995965995 
1.819999999999816, 0.02207847854205708 
1.8299999999998149, 0.02230657795064039 
1.8399999999998138, 0.022779532989669178 
1.8499999999998127, 0.023567745322978707 
1.8599999999998116, 0.02467817041342824 
1.8699999999998105, 0.026014925788595693 
1.8799999999998094, 0.027401601227205297 
1.8899999999998083, 0.02866082328444809 
1.8999999999998072, 0.029683095006102327 
1.909999999999806, 0.030439415102135443 
1.919999999999805, 0.03095441600733805 
1.9299999999998039, 0.03127470318360866 
1.9399999999998028, 0.0314487559123108 
1.9499999999998017, 0.031518309662284034 
1.9599999999998006, 0.03151647227491383 
1.9699999999997995, 0.03146887584008172 
1.9799999999997984, 0.03139599952172336 
1.9899999999997973, 0.03131600864711652 
1.9999999999997962, 0.031248088972213546 
2.0099999999998173, 0.031216504781462557 
2.0199999999998384, 0.03125538180785812 
2.0299999999998595, 0.031412988332632966 
2.0399999999998806, 0.03175136224265024 
2.0499999999999017, 0.03233343213208627 
2.059999999999923, 0.03319165520650648 
2.069999999999944, 0.034289392296458485 
2.079999999999965, 0.035509818744754416 
2.089999999999986, 0.03669687086829569 
2.100000000000007, 0.03772085266095716 
2.1100000000000283, 0.03851693405925735 
2.1200000000000494, 0.039080800931063184 
2.1300000000000705, 0.03944344731927939 
2.1400000000000916, 0.03964808186862479 
2.1500000000001127, 0.039736845139212044 
2.160000000000134, 0.039745553951520796 
2.170000000000155, 0.039702917379744684 
2.180000000000176, 0.039631810597393076 
2.190000000000197, 0.03955144272384102 
2.2000000000002182, 0.03947999765902519 
2.2100000000002393, 0.039437665338586614 
2.2200000000002604, 0.03944997780772537 
2.2300000000002815, 0.03955083905198758 
2.2400000000003026, 0.03978324435622109 
2.2500000000003237, 0.040193568853791835 
2.260000000000345, 0.04081481217807098 
2.270000000000366, 0.041640665004112995 
2.280000000000387, 0.04260682569241404 
2.290000000000408, 0.04360217204082435 
2.3000000000004293, 0.04451016825469818 
2.3100000000004504, 0.04525039162797962 
2.3200000000004715, 0.04579303691530947 
2.3300000000004926, 0.046148065447799834 
2.3400000000005137, 0.046346320205675626 
2.3500000000005348, 0.04642473283528784 
2.360000000000556, 0.04641825648937849 
2.370000000000577, 0.0463567292136987 
2.380000000000598, 0.04626451277952437 
2.390000000000619, 0.046161565412798436 
2.4000000000006403, 0.046065268270130584 
2.4100000000006614, 0.04599265734910245 
2.4200000000006825, 0.045962804204505776 
2.4300000000007036, 0.045998917081397556 
2.4400000000007247, 0.04612915685237741 
2.450000000000746, 0.04638418475052631 
2.460000000000767, 0.046788891133089316 
2.470000000000788, 0.04734783613910545 
2.480000000000809, 0.04803053874859513 
2.49000000000083, 0.04876941024308 
2.5000000000008513, 0.04947827116927695 
2.5100000000008724, 0.05008184014602226 
2.5200000000008935, 0.050536464057836336 
2.5300000000009146, 0.050832598846823854 
2.5400000000009357, 0.050984995516724516 
2.550000000000957, 0.05102068322653512 
2.560000000000978, 0.05097013252479933 
2.570000000000999, 0.05086223470248598 
2.58000000000102, 0.05072203058664225 
2.5900000000010412, 0.05057021277380308 
2.6000000000010624, 0.05042380411810711 
2.6100000000010835, 0.05029758117043744 
2.6200000000011046, 0.05020583049229309 
2.6300000000011257, 0.05016398205476682 
2.6400000000011468, 0.05018950005273868 
2.650000000001168, 0.05030107040214179 
2.660000000001189, 0.05051484063042734 
2.67000000000121, 0.05083706168581713 
2.680000000001231, 0.0512550119801536 
2.6900000000012523, 0.05173187871345904 
2.7000000000012734, 0.052211975703333705 
2.7100000000012945, 0.05263626822307758 
2.7200000000013156, 0.05295945359371892 
2.7300000000013367, 0.05315902297172057 
2.740000000001358, 0.053234320829335116 
2.750000000001379, 0.053200135246374014 
2.7600000000014, 0.05307969683603746 
2.770000000001421, 0.052899199882788996 
2.780000000001442, 0.05268399990728092 
2.7900000000014633, 0.052456254278559 
2.8000000000014844, 0.05223394423122664 
2.8100000000015055, 0.05203116781299325 
2.8200000000015266, 0.05185932190777618 
2.8300000000015477, 0.05172858817407967 
2.840000000001569, 0.0516490950940673 
2.85000000000159, 0.05163113021172509 
2.860000000001611, 0.05168376588553145 
2.870000000001632, 0.05181146240075 
2.8800000000016532, 0.05200909519496828 
2.8900000000016743, 0.05225756334046301 
2.9000000000016954, 0.052523488651797165 
2.9100000000017165, 0.05276522917497535 
2.9200000000017377, 0.05294320945367372 
2.9300000000017588, 0.05302925714011848 
2.94000000000178, 0.05301090969042205 
2.950000000001801, 0.05289070664202868 
2.960000000001822, 0.05268286436033095 
2.970000000001843, 0.052409244280452946 
2.9800000000018643, 0.05209522697703347 
2.9900000000018854, 0.05176573749142969 
3.0000000000019065, 0.051442072984982726 
3.0100000000019276, 0.05114030483597202 
3.0200000000019487, 0.05087144530979976 
3.03000000000197, 0.05064280911520626 
3.040000000001991, 0.0504596597305514 
3.050000000002012, 0.05032634347872887 
3.060000000002033, 0.050246378377656234 
3.070000000002054, 0.05022121396554071 
3.0800000000020753, 0.050247739529743464 
3.0900000000020964, 0.050315305808186384 
3.1000000000021175, 0.05040389136488427 
3.1100000000021386, 0.050485263487023826 
3.1200000000021597, 0.05052768372548168 
3.130000000002181, 0.05050246833334411 
3.140000000002202, 0.05038962002437858 
3.150000000002223, 0.050180869569703135 
3.160000000002244, 0.04988030201732272 
3.1700000000022652, 0.04950331898437136 
3.1800000000022863, 0.04907404243868476 
3.1900000000023074, 0.04862096526268338 
3.2000000000023285, 0.04817156508908735 
3.2100000000023496, 0.04774773549843199 
3.2200000000023707, 0.04736371862465714 
3.230000000002392, 0.047026743830496945 
3.240000000002413, 0.04673921356494184 
3.250000000002434, 0.04650098672428431 
3.260000000002455, 0.04631080498414538 
3.2700000000024763, 0.04616650026849444 
3.2800000000024974, 0.04606401901451728 
3.2900000000025185, 0.04599561850977025 
3.3000000000025396, 0.04594799478922386 
3.3100000000025607, 0.04590146428562873 
3.3200000000025818, 0.045831192704470364 
3.330000000002603, 0.045710570372706025 
3.340000000002624, 0.0455157154491658 
3.350000000002645, 0.04522976369549751 
3.360000000002666, 0.04484624864775513 
3.3700000000026873, 0.0443714152733964 
3.3800000000027084, 0.04382484644548747 
3.3900000000027295, 0.0432370347730615 
3.4000000000027506, 0.04264324799726229 
3.4100000000027717, 0.04207551761826346 
3.420000000002793, 0.041556425811645946 
3.430000000002814, 0.04109725053438191 
3.440000000002835, 0.04070004989093355 
3.450000000002856, 0.04036136240633477 
3.460000000002877, 0.04007540338256961 
3.4700000000028983, 0.039835801177705125 
3.4800000000029194, 0.03963583256569198 
3.4900000000029405, 0.039467518795751555 
3.5000000000029616, 0.039320108643559525 
3.5100000000029827, 0.03917863670842787 
3.520000000003004, 0.03902335716292376 
3.530000000003025, 0.03883067494340927 
3.540000000003046, 0.03857565418191637 
3.550000000003067, 0.03823564975446177 
3.5600000000030882, 0.03779455028888994 
3.5700000000031094, 0.03724733556211035 
3.5800000000031305, 0.036604236586474395 
3.5900000000031516, 0.03589241782371081 
3.6000000000031727, 0.03515234843499107 
3.6100000000031938, 0.034428274731455474 
3.620000000003215, 0.033756766637625016 
3.630000000003236, 0.033159392115532246 
3.640000000003257, 0.03264236528615318 
3.650000000003278, 0.03220110896543898 
3.6600000000032993, 0.03182580888729832 
3.6700000000033204, 0.031505377755043834 
3.6800000000033415, 0.031229215818570615 
3.6900000000033626, 0.030987215282954884 
3.7000000000033837, 0.030768684903994058 
3.710000000003405, 0.03056082134672187 
3.720000000003426, 0.03034733780791831 
3.730000000003447, 0.03010786287319203 
3.740000000003468, 0.02981858745213813 
3.750000000003489, 0.02945434558358982 
3.7600000000035103, 0.028992103910338907 
3.7700000000035314, 0.028415865115597204 
3.7800000000035525, 0.027722801821053376 
3.7900000000035736, 0.02692913211118687 
3.8000000000035947, 0.026072015225927465 
3.810000000003616, 0.025203344730352184 
3.820000000003637, 0.024375797426038088 
3.830000000003658, 0.023628211456782438 
3.840000000003679, 0.022978534667367004 
3.8500000000037002, 0.022426265467199995 
3.8600000000037213, 0.021959878072997856 
3.8700000000037424, 0.021563893147861536 
3.8800000000037635, 0.02122310027806428 
3.8900000000037847, 0.02092397851678282 
3.9000000000038058, 0.020654275194209225 
3.910000000003827, 0.0204016403278601 
3.920000000003848, 0.020151965955086993 
3.930000000003869, 0.019887961483016633 
3.94000000000389, 0.01958846930010323 
3.9500000000039113, 0.019228953890899205 
3.9600000000039324, 0.01878347266570262 
3.9700000000039535, 0.018228406642391358 
3.9800000000039746, 0.017548258054805914 
3.9900000000039957, 0.016743238978153892 
4.000000000004016, 0.01583626853577453 
4.010000000003993, 0.014874156582753614 
4.02000000000397, 0.013918182189063544 
4.030000000003946, 0.01302616776437961 
4.040000000003923, 0.012236175552864619 
4.0500000000039, 0.011561085165080778 
4.0600000000038765, 0.010994067658592985 
4.070000000003853, 0.010518196743494234 
4.08000000000383, 0.010114221400056255 
4.090000000003807, 0.009764557776692865 
4.100000000003783, 0.009454214497017605 
4.11000000000376, 0.009169958380043025 
4.120000000003737, 0.008898702095568325 
4.130000000003713, 0.008625730521888138 
4.14000000000369, 0.008333232149569656 
4.150000000003667, 0.007999584642540417 
4.1600000000036434, 0.007599822327458644 
4.17000000000362, 0.007107675344470472 
4.180000000003597, 0.006499611405240813 
4.1900000000035735, 0.00576128068366743 
4.20000000000355, 0.004895874565456776 
4.210000000003527, 0.003931321083889513 
4.220000000003504, 0.0029202875497086134 
4.23000000000348, 0.0019283624964936332 
4.240000000003457, 0.001014183358029694 
4.250000000003434, 0.00021326355804677567 
4.26000000000341, -0.00015964563307160347 
4.270000000003387, -0.00029091796668877896 
4.280000000003364, -0.0003300318208716318 
4.2900000000033405, -0.0002975725098589664 
4.300000000003317, -0.00021172042620338198 
4.310000000003294, -0.00008769481327812536 
4.320000000003271, 1.3994142103980844e-7 
4.330000000003247, -6.097776288540333e-7 
4.340000000003224, -9.616780337677523e-8 
4.350000000003201, -2.293602714175573e-7 
4.360000000003177, -8.913562843615557e-7 
4.370000000003154, -0.0000015861109442161817 
4.380000000003131, -0.00006905772016902725 
4.390000000003107, -0.0002531567204576281 
4.400000000003084, -0.0005671478961962793 
4.410000000003061, -0.0010062240725299861 
4.4200000000030375, -0.0015406789351776833 
4.430000000003014, -0.0021166896831264098 
4.440000000002991, -0.002668865074692872 
4.450000000002968, -0.0031400975254917917 
4.460000000002944, -0.0034968987772710986 
4.470000000002921, -0.0037320353707268397 
4.480000000002898, -0.003856797732721225 
4.490000000002874, -0.0038907007449919687 
4.500000000002851, -0.003854093984921743 
4.510000000002828, -0.003764819009624251 
4.520000000002804, -0.0036377844605516864 
4.530000000002781, -0.0034860843425774226 
4.540000000002758, -0.003322736766074759 
4.5500000000027345, -0.003162485767316759 
4.560000000002711, -0.0030232286145229557 
4.570000000002688, -0.002926626776065977 
4.580000000002665, -0.0028974745185199476 
4.590000000002641, -0.0029614434286410604 
4.600000000002618, -0.0031408081136921396 
4.610000000002595, -0.0034478745688799766 
4.620000000002571, -0.00387686345645186 
4.630000000002548, -0.0043975958284976574 
4.640000000002525, -0.0049568200016808835 
4.6500000000025015, -0.005490837197244987 
4.660000000002478, -0.005944691932637545 
4.670000000002455, -0.006286545769192109 
4.6800000000024315, -0.0065097868088628 
4.690000000002408, -0.006625427608036275 
4.700000000002385, -0.0066522453011355915 
4.710000000002362, -0.006609768067572057 
4.720000000002338, -0.006515122706939198 
4.730000000002315, -0.006382662182997008 
4.740000000002292, -0.0062250760151505696 
4.750000000002268, -0.00605510621287556 
4.760000000002245, -0.005887320280886659 
4.770000000002222, -0.005739490033734361 
4.7800000000021985, -0.0056331179268555315 
4.790000000002175, -0.005592688643189685 
4.800000000002152, -0.005643306285397272 
