t, s[1].omega / s[0].omega 
0, -0.6299977166959206 
0.009999999999999995, -0.6297639738085581 
0.019999999999999934, -0.6295162538798089 
0.029999999999999874, -0.6292465177035874 
0.04000000000000012, -0.6289459735229588 
0.050000000000000405, -0.6286090558805129 
0.06000000000000069, -0.628235618347226 
0.07000000000000098, -0.6278312895008739 
0.08000000000000126, -0.6274071651029688 
0.09000000000000155, -0.626980143787421 
0.10000000000000184, -0.6265747055108541 
0.11000000000000212, -0.6262263976578563 
0.12000000000000241, -0.6259869276585059 
0.130000000000002, -0.6259304044497199 
0.1400000000000009, -0.6261596447891492 
0.1499999999999998, -0.6268102568246496 
0.1599999999999987, -0.6280481260638983 
0.1699999999999976, -0.6300529562510587 
0.1799999999999965, -0.6329781569839615 
0.1899999999999954, -0.6368810482703957 
0.1999999999999943, -0.6416370467615908 
0.2099999999999932, -0.6468894963174394 
0.2199999999999921, -0.6521079501264098 
0.229999999999991, -0.6567669175325052 
0.2399999999999899, -0.6605351852497997 
0.2499999999999888, -0.6633398585024534 
0.2599999999999877, -0.6652938669867896 
0.2699999999999866, -0.6665819326652155 
0.2799999999999855, -0.6673814835049201 
0.2899999999999844, -0.6678307379039066 
0.2999999999999833, -0.6680250501167148 
0.3099999999999822, -0.6680233462046837 
0.3199999999999811, -0.6678552536177298 
0.32999999999998, -0.6675255875537391 
0.3399999999999789, -0.6670155844550486 
0.3499999999999778, -0.6662814912534267 
0.35999999999997667, -0.6652524359210451 
0.36999999999997557, -0.6638320129142551 
0.37999999999997447, -0.6619115650392234 
0.38999999999997337, -0.6594039926216577 
0.39999999999997227, -0.6562967167941738 
0.40999999999997117, -0.6526983261329489 
0.41999999999997006, -0.6488377888047304 
0.42999999999996896, -0.6450015695223599 
0.43999999999996786, -0.6414464824567008 
0.44999999999996676, -0.6383420234631507 
0.45999999999996566, -0.6357612893492293 
0.46999999999996456, -0.6337033577408142 
0.47999999999996346, -0.6321230166500921 
0.48999999999996235, -0.6309545651557904 
0.49999999999996125, -0.630126967793125 
0.5099999999999602, -0.6295722791378366 
0.519999999999959, -0.6292298700890562 
0.529999999999958, -0.6290482331576435 
0.5399999999999568, -0.6289853726492408 
0.5499999999999557, -0.629008350724585 
0.5599999999999546, -0.6290923892974299 
0.5699999999999535, -0.6292198478745377 
0.5799999999999524, -0.6293792598473523 
0.5899999999999513, -0.6295643344559434 
0.5999999999999502, -0.6297724744785367 
0.6099999999999491, -0.6300021978643122 
0.619999999999948, -0.630249301513163 
0.6299999999999469, -0.630502786150952 
0.6399999999999458, -0.6307427782058596 
0.6499999999999447, -0.6309425882712043 
0.6599999999999436, -0.6310748736190822 
0.6699999999999425, -0.6311189034083216 
0.6799999999999414, -0.6310649596481931 
0.6899999999999403, -0.6309141189173756 
0.6999999999999392, -0.6306748443150663 
0.7099999999999381, -0.6303591737785685 
0.719999999999937, -0.6299805658637564 
0.7299999999999359, -0.6295542171641972 
0.7399999999999348, -0.6291000194241207 
0.7499999999999337, -0.628648316197647 
0.7599999999999326, -0.6282487457191774 
0.7699999999999315, -0.6279820599071297 
0.7799999999999304, -0.627973012168103 
0.7899999999999293, -0.6283980615039848 
0.7999999999999282, -0.6294742572612179 
0.8099999999999271, -0.6314090400296197 
0.819999999999926, -0.6342992365439991 
0.8299999999999249, -0.6380126352067618 
0.8399999999999238, -0.6421523730986018 
0.8499999999999227, -0.6461914016900862 
0.8599999999999216, -0.6497042674354435 
0.8699999999999205, -0.6525033194163605 
0.8799999999999194, -0.6546045886759533 
0.8899999999999183, -0.656120326854831 
0.8999999999999172, -0.6571785413048556 
0.9099999999999161, -0.657888950934529 
0.919999999999915, -0.6583355751038871 
0.9299999999999139, -0.6585785934101647 
0.9399999999999128, -0.6586578911343302 
0.9499999999999117, -0.6585959527115856 
0.9599999999999106, -0.6583995769600268 
0.9699999999999095, -0.6580605184015416 
0.9799999999999084, -0.6575556986853636 
0.9899999999999073, -0.6568485027958462 
0.9999999999999062, -0.6558938254184973 
1.0099999999999052, -0.6546499645716882 
1.019999999999904, -0.6530979060071507 
1.029999999999903, -0.6512615843090095 
1.039999999999902, -0.64921590814237 
1.0499999999999008, -0.6470728991334112 
1.0599999999998997, -0.6449518187736685 
1.0699999999998986, -0.6429510881832728 
1.0799999999998975, -0.6411352585508012 
1.0899999999998964, -0.6395370508703693 
1.0999999999998953, -0.6381667322301398 
1.1099999999998942, -0.6370217577286273 
1.119999999999893, -0.6360935002789033 
1.129999999999892, -0.6353708650114587 
1.1399999999998909, -0.6348417930342802 
1.1499999999998898, -0.6344937553771334 
1.1599999999998887, -0.6343140141138639 
1.1699999999998876, -0.6342900444669357 
1.1799999999998865, -0.6344101983015078 
1.1899999999998854, -0.6346644724524668 
1.1999999999998843, -0.6350451012744067 
1.2099999999998832, -0.6355465669355242 
1.219999999999882, -0.6361644769454233 
1.229999999999881, -0.6368926848027072 
1.2399999999998799, -0.6377183422520645 
1.2499999999998788, -0.6386157143190158 
1.2599999999998777, -0.6395415774737049 
1.2699999999998766, -0.6404365502210883 
1.2799999999998755, -0.6412351653873178 
1.2899999999998744, -0.6418818146473493 
1.2999999999998733, -0.6423440934415956 
1.3099999999998722, -0.6426161179460698 
1.319999999999871, -0.6427117747175983 
1.32999999999987, -0.6426538394767247 
1.3399999999998689, -0.6424647673518484 
1.3499999999998678, -0.6421614212297857 
1.3599999999998666, -0.6417532560579112 
1.3699999999998655, -0.641242731950667 
1.3799999999998644, -0.640627155562692 
1.3899999999998633, -0.6399017770652387 
1.3999999999998622, -0.6390642044351224 
1.4099999999998611, -0.6381195168212528 
1.41999999999986, -0.6370833296303762 
1.429999999999859, -0.6359771278858208 
1.4399999999998578, -0.6348114826380693 
1.4499999999998567, -0.6335681082606646 
1.4599999999998556, -0.6322161970547799 
1.4699999999998545, -0.6307819782706707 
1.4799999999998534, -0.6294034894049474 
1.4899999999998523, -0.6282757187905474 
1.4999999999998512, -0.627526993510178 
1.5099999999998501, -0.6271574828914295 
1.519999999999849, -0.6270745026432646 
1.529999999999848, -0.6271596713843784 
1.5399999999998468, -0.6273133127972074 
1.5499999999998457, -0.6274679845159004 
1.5599999999998446, -0.6275842921198708 
1.5699999999998435, -0.6276412902550194 
1.5799999999998424, -0.6276275399283262 
1.5899999999998413, -0.6275345862836715 
1.5999999999998402, -0.6273528691821919 
1.6099999999998391, -0.627069837067584 
1.619999999999838, -0.6266704043841862 
1.629999999999837, -0.626140192242461 
1.6399999999998358, -0.6254715071668694 
1.6499999999998347, -0.6246702789089069 
1.6599999999998336, -0.6237600687334032 
1.6699999999998325, -0.6227793750315698 
1.6799999999998314, -0.6217723835389997 
1.6899999999998303, -0.6207781121789949 
1.6999999999998292, -0.6198237044941259 
1.709999999999828, -0.618923984027415 
1.719999999999827, -0.6180853813236741 
1.729999999999826, -0.6173110432764204 
1.7399999999998248, -0.6166049655522946 
1.7499999999998237, -0.6159745527043812 
1.7599999999998226, -0.6154319493337422 
1.7699999999998215, -0.6149946746119659 
1.7799999999998204, -0.6146859063490651 
1.7899999999998193, -0.614534544268793 
1.7999999999998182, -0.6145750626835126 
1.809999999999817, -0.614847097795007 
1.819999999999816, -0.6153945841344072 
1.8299999999998149, -0.6162639259057369 
1.8399999999998138, -0.6175000854223145 
1.8499999999998127, -0.6191387150919005 
1.8599999999998116, -0.6211921812517888 
1.8699999999998105, -0.6236290521597314 
1.8799999999998094, -0.6263523918078712 
1.8899999999998083, -0.6291914442927806 
1.8999999999998072, -0.6319251682914174 
1.909999999999806, -0.6343402987153993 
1.919999999999805, -0.6362951054273889 
1.9299999999998039, -0.6377481093405946 
1.9399999999998028, -0.6387397191037786 
1.9499999999998017, -0.639350505355773 
1.9599999999998006, -0.6396648320783539 
1.9699999999997995, -0.6397510775369504 
1.9799999999997984, -0.6396551305213715 
1.9899999999997973, -0.6394001157593824 
1.9999999999997962, -0.6389871769901296 
2.0099999999998173, -0.6383945964296178 
2.0199999999998384, -0.6375740648385438 
2.0299999999998595, -0.6364440362734879 
2.0399999999998806, -0.6348821568216392 
2.0499999999999017, -0.6327236648225527 
2.059999999999923, -0.6297813163253025 
2.069999999999944, -0.6259082173679359 
2.079999999999965, -0.621106121148247 
2.089999999999986, -0.6156220151949493 
2.100000000000007, -0.6099301411137268 
2.1100000000000283, -0.6045690129022879 
2.1200000000000494, -0.5999465355093048 
2.1300000000000705, -0.5962476095875433 
2.1400000000000916, -0.5934625396776448 
2.1500000000001127, -0.5914682695508435 
2.160000000000134, -0.5901016583911459 
2.170000000000155, -0.5892040892325521 
2.180000000000176, -0.588641316353066 
2.190000000000197, -0.5883083698880376 
2.2000000000002182, -0.5881272709944524 
2.2100000000002393, -0.5880421143745573 
2.2200000000002604, -0.5880138242567893 
2.2300000000002815, -0.5880156421588507 
2.2400000000003026, -0.5880297819057425 
2.2500000000003237, -0.5880453482175398 
2.260000000000345, -0.5880573090027192 
2.270000000000366, -0.5880659071946096 
2.280000000000387, -0.5880755100555664 
2.290000000000408, -0.5880919505741491 
2.3000000000004293, -0.5881183314114413 
2.3100000000004504, -0.5881507694955324 
2.3200000000004715, -0.5881765164705786 
2.3300000000004926, -0.5881761400924392 
2.3400000000005137, -0.5881290778184926 
2.3500000000005348, -0.5880196113487852 
2.360000000000556, -0.587840211471744 
2.370000000000577, -0.5875913527136415 
2.380000000000598, -0.5872792024515789 
2.390000000000619, -0.5869133021214961 
2.4000000000006403, -0.5865057096138593 
2.4100000000006614, -0.5860722281572822 
2.4200000000006825, -0.5856359620581719 
2.4300000000007036, -0.5852334269756954 
2.4400000000007247, -0.5849233489654253 
2.450000000000746, -0.5847974480670997 
2.460000000000767, -0.5849899305281534 
2.470000000000788, -0.585676977853761 
2.480000000000809, -0.5870498209867688 
2.49000000000083, -0.5892429278100939 
2.5000000000008513, -0.5922231235339975 
2.5100000000008724, -0.5957095706743579 
2.5200000000008935, -0.5992370516205167 
2.5300000000009146, -0.6023701759970358 
2.5400000000009357, -0.6048895200678832 
2.550000000000957, -0.6067961886040801 
2.560000000000978, -0.608197738717491 
2.570000000000999, -0.6092121127517047 
2.58000000000102, -0.6099322346815712 
2.5900000000010412, -0.6104249172566312 
2.6000000000010624, -0.6107376110410137 
2.6100000000010835, -0.6109035160183693 
2.6200000000011046, -0.6109442293624932 
2.6300000000011257, -0.6108709063887692 
2.6400000000011468, -0.6106847107815708 
2.650000000001168, -0.6103771536532138 
2.660000000001189, -0.6099311567205719 
2.67000000000121, -0.609324165418432 
2.680000000001231, -0.6085348047025892 
2.6900000000012523, -0.607553330635214 
2.7000000000012734, -0.6063927801711892 
2.7100000000012945, -0.605094174860106 
2.7200000000013156, -0.6037202016208605 
2.7300000000013367, -0.6023392448360037 
2.740000000001358, -0.6010088652564262 
2.750000000001379, -0.5997671072085534 
2.7600000000014, -0.5986331642554406 
2.770000000001421, -0.5976134965617992 
2.780000000001442, -0.5967087948137593 
2.7900000000014633, -0.5959192301644306 
2.8000000000014844, -0.5952474972015377 
2.8100000000015055, -0.5947001823489149 
2.8200000000015266, -0.594288161196937 
2.8300000000015477, -0.5940265440258478 
2.840000000001569, -0.5939344753348632 
2.85000000000159, -0.5940349407663331 
2.860000000001611, -0.59435459595891 
2.870000000001632, -0.5949234144745452 
2.8800000000016532, -0.5957735704454439 
2.8900000000016743, -0.5969363960753339 
2.9000000000016954, -0.5984356361586585 
2.9100000000017165, -0.6002751699423975 
2.9200000000017377, -0.6024212434950957 
2.9300000000017588, -0.604784628339745 
2.94000000000178, -0.6072158006860119 
2.950000000001801, -0.6095278903952687 
2.960000000001822, -0.6115467608401632 
2.970000000001843, -0.6131619207628028 
2.9800000000018643, -0.6143460678112638 
2.9900000000018854, -0.6151369835650599 
3.0000000000019065, -0.6156027151127434 
3.0100000000019276, -0.6158124299045381 
3.0200000000019487, -0.6158207749026768 
3.03000000000197, -0.6156625624160819 
3.040000000001991, -0.6153520622173495 
3.050000000002012, -0.614882738388238 
3.060000000002033, -0.614225172210946 
3.070000000002054, -0.6133221800828712 
3.0800000000020753, -0.6120814028808399 
3.0900000000020964, -0.6103684285554283 
3.1000000000021175, -0.6080097694427906 
3.1100000000021386, -0.6048242337773913 
3.1200000000021597, -0.6007020110251046 
3.130000000002181, -0.5957178115878825 
3.140000000002202, -0.5901981671959733 
3.150000000002223, -0.584649667624045 
3.160000000002244, -0.5795701964966632 
3.1700000000022652, -0.5752839824385305 
3.1800000000022863, -0.5718990583606206 
3.1900000000023074, -0.5693626292094669 
3.2000000000023285, -0.5675413125586691 
3.2100000000023496, -0.5662815734330215 
3.2200000000023707, -0.5654422339560138 
3.230000000002392, -0.5649069013598513 
3.240000000002413, -0.5645855510386865 
3.250000000002434, -0.5644114353283088 
3.260000000002455, -0.5643366042889415 
3.2700000000024763, -0.5643275690981501 
3.2800000000024974, -0.5643617493115004 
3.2900000000025185, -0.5644249173078244 
3.3000000000025396, -0.5645095837774439 
3.3100000000025607, -0.5646139672582846 
3.3200000000025818, -0.5647408228852849 
3.330000000002603, -0.5648951870229291 
3.340000000002624, -0.5650804532694618 
3.350000000002645, -0.5652933745745421 
3.360000000002666, -0.5655201071375393 
3.3700000000026873, -0.5657360369767226 
3.3800000000027084, -0.5659106932929296 
3.3900000000027295, -0.5660158780110414 
3.4000000000027506, -0.5660327043351645 
3.4100000000027717, -0.5659540618611282 
3.420000000002793, -0.5657823914921574 
3.430000000002814, -0.5655252833467468 
3.440000000002835, -0.5651915402137297 
3.450000000002856, -0.5647890231323177 
3.460000000002877, -0.5643244484521903 
3.4700000000028983, -0.5638049003889277 
3.4800000000029194, -0.5632408499660079 
3.4900000000029405, -0.562650364252833 
3.5000000000029616, -0.5620632894399342 
3.5100000000029827, -0.5615217396050662 
3.520000000003004, -0.5610692061093258 
3.530000000003025, -0.5607190953870178 
3.540000000003046, -0.5604073779683434 
3.550000000003067, -0.5599743103944603 
3.5600000000030882, -0.5592452538363482 
3.5700000000031094, -0.5581894960006994 
3.5800000000031305, -0.556985646516047 
3.5900000000031516, -0.5558954019967317 
3.6000000000031727, -0.555091834413368 
3.6100000000031938, -0.5546050622274487 
3.620000000003215, -0.5543719289789377 
3.630000000003236, -0.5543021747985081 
3.640000000003257, -0.5543168131570563 
3.650000000003278, -0.55435957172681 
3.6600000000032993, -0.554394629938954 
3.6700000000033204, -0.554400293711012 
3.6800000000033415, -0.5543629875001027 
3.6900000000033626, -0.5542729180434574 
3.7000000000033837, -0.5541216242061942 
3.710000000003405, -0.553901414699565 
3.720000000003426, -0.5536066837508421 
3.730000000003447, -0.5532367593480824 
3.740000000003468, -0.5527990476369926 
3.750000000003489, -0.5523102790758783 
3.7600000000035103, -0.5517939092576655 
3.7700000000035314, -0.5512739167027598 
3.7800000000035525, -0.5507679462597888 
3.7900000000035736, -0.5502834158115869 
3.8000000000035947, -0.5498182016963924 
3.810000000003616, -0.5493647449456465 
3.820000000003637, -0.5489149851944934 
3.830000000003658, -0.548464003106395 
3.840000000003679, -0.5480117742243665 
3.8500000000037002, -0.5475637396168916 
3.8600000000037213, -0.5471313352653152 
3.8700000000037424, -0.5467333998504378 
3.8800000000037635, -0.546399002200953 
3.8900000000037847, -0.5461719626390086 
3.9000000000038058, -0.5461171267203573 
3.910000000003827, -0.5463280004354589 
3.920000000003848, -0.5469341828021224 
3.930000000003869, -0.5481043919863487 
3.94000000000389, -0.5500360672397783 
3.9500000000039113, -0.5529165956631867 
3.9600000000039324, -0.5568416099718455 
3.9700000000039535, -0.5617004708007948 
3.9800000000039746, -0.5670989924601414 
3.9900000000039957, -0.5724308763247261 
4.000000000004016, -0.5771156010190424 
4.010000000003993, -0.580830775240152 
4.02000000000397, -0.5835554414138686 
4.030000000003946, -0.5854500686028675 
4.040000000003923, -0.5867201345703108 
4.0500000000039, -0.5875426649624071 
4.0600000000038765, -0.5880473251366993 
4.070000000003853, -0.588321484128836 
4.08000000000383, -0.5884203114916412 
4.090000000003807, -0.5883750953618774 
4.100000000003783, -0.5881986015937064 
4.11000000000376, -0.5878881034565085 
4.120000000003737, -0.5874273105596513 
4.130000000003713, -0.5867889829121755 
4.14000000000369, -0.5859406552091122 
4.150000000003667, -0.584855704629002 
4.1600000000036434, -0.5835292080623325 
4.17000000000362, -0.5819922361688964 
4.180000000003597, -0.5803140954569319 
4.1900000000035735, -0.5785871178034907 
4.20000000000355, -0.5769015024456547 
4.210000000003527, -0.575324981246937 
4.220000000003504, -0.5738960891761636 
4.23000000000348, -0.5726290820881924 
4.240000000003457, -0.5715235409795597 
4.250000000003434, -0.5705731609691711 
4.26000000000341, -0.5697715961193334 
4.270000000003387, -0.5691155157002258 
4.280000000003364, -0.568605823535911 
4.2900000000033405, -0.5682479426772883 
4.300000000003317, -0.5680517688703511 
4.310000000003294, -0.5680316248258758 
4.320000000003271, -0.5682063452065224 
4.330000000003247, -0.5685994269900982 
4.340000000003224, -0.5692389001215863 
4.350000000003201, -0.5701561251949274 
4.360000000003177, -0.5713820929658009 
4.370000000003154, -0.5729392147310801 
4.380000000003131, -0.5748268727660026 
4.390000000003107, -0.5770017906339515 
4.400000000003084, -0.5793609690858679 
4.410000000003061, -0.5817425879527903 
4.4200000000030375, -0.5839579786717005 
4.430000000003014, -0.5858465477827327 
4.440000000002991, -0.5873211712824572 
4.450000000002968, -0.5883760562126696 
4.460000000002944, -0.5890607476726168 
4.470000000002921, -0.589445095525007 
4.480000000002898, -0.5895940326821674 
4.490000000002874, -0.5895556796711308 
4.500000000002851, -0.589357979286556 
4.510000000002828, -0.5890083930849815 
4.520000000002804, -0.5884931661667837 
4.530000000002781, -0.5877744484743087 
4.540000000002758, -0.5867848921047826 
4.5500000000027345, -0.5854212722281368 
4.560000000002711, -0.5835428611611382 
4.570000000002688, -0.580987482055872 
4.580000000002665, -0.5776230018954278 
4.590000000002641, -0.5734369036177174 
4.600000000002618, -0.5686184012375667 
4.610000000002595, -0.5635496509795295 
4.620000000002571, -0.5586783175752726 
4.630000000002548, -0.5543590134995366 
4.640000000002525, -0.5507725768379352 
4.6500000000025015, -0.5479421096064141 
4.660000000002478, -0.5457939740713567 
4.670000000002455, -0.5442150596223206 
4.6800000000024315, -0.543088737413957 
4.690000000002408, -0.5423118282476376 
4.700000000002385, -0.5418000101945355 
4.710000000002362, -0.5414876263173525 
4.720000000002338, -0.5413253505845209 
4.730000000002315, -0.5412773953516062 
4.740000000002292, -0.541318980965253 
4.750000000002268, -0.5414343252713898 
4.760000000002245, -0.5416151597808783 
4.770000000002222, -0.5418595451336061 
4.7800000000021985, -0.542170454653613 
4.790000000002175, -0.542553304192656 
4.800000000002152, -0.543011641774781 
4.810000000002129, -0.5435410029039212 
4.820000000002105, -0.5441226254646541 
4.830000000002082, -0.5447205530769039 
4.840000000002059, -0.5452857487050224 
4.850000000002035, -0.5457674361929212 
4.860000000002012, -0.5461264501762114 
4.870000000001989, -0.546343165860768 
4.880000000001965, -0.5464165868751383 
4.890000000001942, -0.5463572477263162 
4.900000000001919, -0.5461789361569768 
4.9100000000018955, -0.5458924324571776 
4.920000000001872, -0.5455017601696327 
