t, s[1].omega / s[0].omega 
0, -0.31999779592653677 
0.009999999999999995, -0.3198016254409778 
0.019999999999999934, -0.3196479009785819 
0.029999999999999874, -0.31952178678177345 
0.04000000000000012, -0.3194035409033783 
0.050000000000000405, -0.3192736289337315 
0.06000000000000069, -0.31911646842871044 
0.07000000000000098, -0.3189216461910329 
0.08000000000000126, -0.3186828450883361 
0.09000000000000155, -0.31839550781672465 
0.10000000000000184, -0.31805414727804027 
0.11000000000000212, -0.3176496349729262 
0.12000000000000241, -0.31716627625988114 
0.130000000000002, -0.3165782614284189 
0.1400000000000009, -0.3158453350976226 
0.1499999999999998, -0.3149086939496585 
0.1599999999999987, -0.31369094898376526 
0.1699999999999976, -0.312108267183642 
0.1799999999999965, -0.3101037256913189 
0.1899999999999954, -0.3076974570791613 
0.1999999999999943, -0.3050201899522699 
0.2099999999999932, -0.30228764007367237 
0.2199999999999921, -0.2997202341006349 
0.229999999999991, -0.2974680651237727 
0.2399999999999899, -0.2955882918699105 
0.2499999999999888, -0.2940676275746053 
0.2599999999999877, -0.2928575278405612 
0.2699999999999866, -0.29190102630868275 
0.2799999999999855, -0.29114709628763896 
0.2899999999999844, -0.29055614421778897 
0.2999999999999833, -0.29010099305300907 
0.3099999999999822, -0.28976626991367704 
0.3199999999999811, -0.28954773962002867 
0.32999999999998, -0.28945228946152307 
0.3399999999999789, -0.289498821753 
0.3499999999999778, -0.2897199851920946 
0.35999999999997667, -0.2901641734988419 
0.36999999999997557, -0.2908961501619133 
0.37999999999997447, -0.29199258345516815 
0.38999999999997337, -0.2935258211261995 
0.39999999999997227, -0.29552813634200714 
0.40999999999997117, -0.29793773501392395 
0.41999999999997006, -0.3005560378060913 
0.42999999999996896, -0.3030746939662288 
0.43999999999996786, -0.3051967262376444 
0.44999999999996676, -0.306769678236582 
0.45999999999996566, -0.30781533280063134 
0.46999999999996456, -0.30845525140047564 
0.47999999999996346, -0.30882327297185796 
0.48999999999996235, -0.30902187835221984 
0.49999999999996125, -0.3091168604276472 
0.5099999999999602, -0.30914690563295066 
0.519999999999959, -0.30913407475037624 
0.529999999999958, -0.30909115447258684 
0.5399999999999568, -0.30902612556456777 
0.5499999999999557, -0.3089448816787929 
0.5599999999999546, -0.30885311551462147 
0.5699999999999535, -0.3087578733633639 
0.5799999999999524, -0.30866885467626015 
0.5899999999999513, -0.3085991195368645 
0.5999999999999502, -0.3085645711337128 
0.6099999999999491, -0.3085816247721055 
0.619999999999948, -0.3086630156104105 
0.6299999999999469, -0.3088126317553638 
0.6399999999999458, -0.30902125410878056 
0.6499999999999447, -0.3092656131080675 
0.6599999999999436, -0.30951241694189424 
0.6699999999999425, -0.30972649706983113 
0.6799999999999414, -0.30987934678198503 
0.6899999999999403, -0.3099538887248297 
0.6999999999999392, -0.309944006545611 
0.7099999999999381, -0.3098505220403323 
0.719999999999937, -0.3096762802430391 
0.7299999999999359, -0.30942201230969746 
0.7399999999999348, -0.30908331987333415 
0.7499999999999337, -0.30864846872841534 
0.7599999999999326, -0.3080967949017815 
0.7699999999999315, -0.30739825833493295 
0.7799999999999304, -0.30651589670490975 
0.7899999999999293, -0.30541406079162414 
0.7999999999999282, -0.3040744403984236 
0.8099999999999271, -0.302516268701291 
0.819999999999926, -0.3008081087890056 
0.8299999999999249, -0.2990570421652249 
0.8399999999999238, -0.29737630241828544 
0.8499999999999227, -0.29585145757517567 
0.8599999999999216, -0.29452484400602175 
0.8699999999999205, -0.29340042884456724 
0.8799999999999194, -0.29245848893219806 
0.8899999999999183, -0.2916698592421564 
0.8999999999999172, -0.29100546060133914 
0.9099999999999161, -0.2904411882114343 
0.919999999999915, -0.2899597684034383 
0.9299999999999139, -0.2895511561637046 
0.9399999999999128, -0.2892125624568001 
0.9499999999999117, -0.2889487379413941 
0.9599999999999106, -0.28877278427765757 
0.9699999999999095, -0.2887074152515029 
0.9799999999999084, -0.2887860097884738 
0.9899999999999073, -0.28905160056522755 
0.9999999999999062, -0.2895497267968768 
1.0099999999999052, -0.29030835467963134 
1.019999999999904, -0.2912990117096227 
1.029999999999903, -0.292388731171605 
1.039999999999902, -0.29332880540589723 
1.0499999999999008, -0.2938434625757536 
1.0599999999998997, -0.2937954358643367 
1.0699999999998986, -0.2932735085140978 
1.0799999999998975, -0.2925061483089949 
1.0899999999998964, -0.2917095701877451 
1.0999999999998953, -0.29100935431842984 
1.1099999999998942, -0.2904472612408148 
1.119999999999893, -0.2900179425927063 
1.129999999999892, -0.28969891064592046 
1.1399999999998909, -0.28946645757951484 
1.1499999999998898, -0.2893018612651045 
1.1599999999998887, -0.28919288966942525 
1.1699999999998876, -0.2891336335929141 
1.1799999999998865, -0.2891240798414212 
1.1899999999998854, -0.2891699314513868 
1.1999999999998843, -0.289282693535677 
1.2099999999998832, -0.28947969384482575 
1.219999999999882, -0.28978334924245686 
1.229999999999881, -0.29021862246433067 
1.2399999999998799, -0.29080743522262936 
1.2499999999998788, -0.29155933316321997 
1.2599999999998777, -0.292459778615714 
1.2699999999998766, -0.2934613370918405 
1.2799999999998755, -0.2944860741454759 
1.2899999999998744, -0.29544379104157553 
1.2999999999998733, -0.29625886351689784 
1.3099999999998722, -0.29688958215299427 
1.319999999999871, -0.2973298974173174 
1.32999999999987, -0.29759762880921603 
1.3399999999998689, -0.2977198165846041 
1.3499999999998678, -0.297722253273604 
1.3599999999998666, -0.2976243573220271 
1.3699999999998655, -0.29743770091059124 
1.3799999999998644, -0.2971664197837271 
1.3899999999998633, -0.2968086427195714 
1.3999999999998622, -0.29635894803187196 
1.4099999999998611, -0.2958122828795922 
1.41999999999986, -0.29516944227990777 
1.429999999999859, -0.2944428522940912 
1.4399999999998578, -0.29365964194679817 
1.4499999999998567, -0.2928588150140039 
1.4599999999998556, -0.29208236098948603 
1.4699999999998545, -0.2913644696099458 
1.4799999999998534, -0.2907243007377149 
1.4899999999998523, -0.29016484946806803 
1.4999999999998512, -0.28967666700749173 
1.5099999999998501, -0.28924355380653594 
1.519999999999849, -0.2888477708177917 
1.529999999999848, -0.2884734777523287 
1.5399999999998468, -0.2881081732988255 
1.5499999999998457, -0.2877425887970788 
1.5599999999998446, -0.2873696909090374 
1.5699999999998435, -0.2869832673930318 
1.5799999999998424, -0.28657619401239864 
1.5899999999998413, -0.2861380475168905 
1.5999999999998402, -0.28565127160946513 
1.6099999999998391, -0.28508470234159544 
1.619999999999838, -0.2843834908949415 
1.629999999999837, -0.28345716428247913 
1.6399999999998358, -0.28217583699799653 
1.6499999999998347, -0.28039722388615246 
1.6599999999998336, -0.27804404995279225 
1.6699999999998325, -0.27520012821278245 
1.6799999999998314, -0.2721282725922908 
1.6899999999998303, -0.2691596754286876 
1.6999999999998292, -0.26654660735376384 
1.709999999999828, -0.2643978174749342 
1.719999999999827, -0.26270593655101904 
1.729999999999826, -0.26140548900926414 
1.7399999999998248, -0.2604174189064842 
1.7499999999998237, -0.2596715431313304 
1.7599999999998226, -0.25911401346559215 
1.7699999999998215, -0.25870772539569736 
1.7799999999998204, -0.2584304896017815 
1.7899999999998193, -0.2582732141185309 
1.7999999999998182, -0.2582389564211404 
1.809999999999817, -0.2583430659951749 
1.819999999999816, -0.25861428351141924 
1.8299999999998149, -0.259096218022013 
1.8399999999998138, -0.25984771561872166 
1.8499999999998127, -0.26093888852241365 
1.8599999999998116, -0.2624370963804897 
1.8699999999998105, -0.2643761810333607 
1.8799999999998094, -0.2667094603173464 
1.8899999999998083, -0.26926992199153005 
1.8999999999998072, -0.2717861583299307 
1.909999999999806, -0.2739794135628745 
1.919999999999805, -0.27568190174433155 
1.9299999999998039, -0.27687856479771156 
1.9399999999998028, -0.27765699887291373 
1.9499999999998017, -0.2781331351895672 
1.9599999999998006, -0.27840606208202295 
1.9699999999997995, -0.278545788518304 
1.9799999999997984, -0.2785973351458404 
1.9899999999997973, -0.2785885134302163 
1.9999999999997962, -0.27853647437003454 
2.0099999999998173, -0.2784522806213551 
2.0199999999998384, -0.2783440655477114 
2.0299999999998595, -0.27821943461802695 
2.0399999999998806, -0.278087465360083 
2.0499999999999017, -0.2779602359860269 
2.059999999999923, -0.2778533949535597 
2.069999999999944, -0.27778509621566083 
2.079999999999965, -0.2777729055934643 
2.089999999999986, -0.27782903626037914 
2.100000000000007, -0.2779552065072569 
2.1100000000000283, -0.2781391743710921 
2.1200000000000494, -0.2783551487040469 
2.1300000000000705, -0.278569082659629 
2.1400000000000916, -0.2787471801100806 
2.1500000000001127, -0.27886360143044053 
2.160000000000134, -0.2789038232168518 
2.170000000000155, -0.2788631249696151 
2.180000000000176, -0.27874229144282237 
2.190000000000197, -0.27854296258022215 
2.2000000000002182, -0.27826390422203573 
2.2100000000002393, -0.27789834942532665 
2.2200000000002604, -0.27743218048885426 
2.2300000000002815, -0.2768430692631501 
2.2400000000003026, -0.27610158220500136 
2.2500000000003237, -0.2751763291294164 
2.260000000000345, -0.274045338670822 
2.270000000000366, -0.2727127715398604 
2.280000000000387, -0.27122309759745916 
2.290000000000408, -0.2696599316131869 
2.3000000000004293, -0.2681240616524939 
2.3100000000004504, -0.26670234702766965 
2.3200000000004715, -0.2654467481560582 
2.3300000000004926, -0.26437199570139547 
2.3400000000005137, -0.26346608142255923 
2.3500000000005348, -0.26270365667642576 
2.360000000000556, -0.2620563845159758 
2.370000000000577, -0.26149892415772935 
2.380000000000598, -0.2610115095380482 
2.390000000000619, -0.2605805443269923 
2.4000000000006403, -0.2601983532695838 
2.4100000000006614, -0.25986279154878594 
2.4200000000006825, -0.2595770057211545 
2.4300000000007036, -0.2593492365090738 
2.4400000000007247, -0.259191990227194 
2.450000000000746, -0.25911890665299253 
2.460000000000767, -0.2591360209615036 
2.470000000000788, -0.2592226264142133 
2.480000000000809, -0.25929970381719414 
2.49000000000083, -0.25920017333469236 
2.5000000000008513, -0.2586870905175224 
2.5100000000008724, -0.2575686504779181 
2.5200000000008935, -0.2558574082982997 
2.5300000000009146, -0.25380406338218414 
2.5400000000009357, -0.25174561546726615 
2.550000000000957, -0.24992910274937272 
2.560000000000978, -0.24845479966692322 
2.570000000000999, -0.24731688258081408 
2.58000000000102, -0.24646263161627688 
2.5900000000010412, -0.245831339339931 
2.6000000000010624, -0.2453715147684005 
2.6100000000010835, -0.24504560532498237 
2.6200000000011046, -0.24482961281276672 
2.6300000000011257, -0.2447114495186346 
2.6400000000011468, -0.24468961973692038 
2.650000000001168, -0.24477271709959997 
2.660000000001189, -0.24497971520335132 
2.67000000000121, -0.2453406508527185 
2.680000000001231, -0.2458967411574023 
2.6900000000012523, -0.24669800725587607 
2.7000000000012734, -0.24779512874159654 
2.7100000000012945, -0.2492215256077391 
2.7200000000013156, -0.2509646873772296 
2.7300000000013367, -0.25293680932920204 
2.740000000001358, -0.2549703426141249 
2.750000000001379, -0.25686167350756073 
2.7600000000014, -0.25844689317801517 
2.770000000001421, -0.2596547796897072 
2.780000000001442, -0.26050275858845157 
2.7900000000014633, -0.26105614994260884 
2.8000000000014844, -0.26138894071033325 
2.8100000000015055, -0.2615632326040146 
2.8200000000015266, -0.26162411919348805 
2.8300000000015477, -0.2616017919713497 
2.840000000001569, -0.261515522505211 
2.85000000000159, -0.26137743724210094 
2.860000000001611, -0.2611957382785391 
2.870000000001632, -0.2609775838437126 
2.8800000000016532, -0.2607317570462757 
2.8900000000016743, -0.26047082184722037 
2.9000000000016954, -0.26021198639381266 
2.9100000000017165, -0.259975815067309 
2.9200000000017377, -0.2597825895791944 
2.9300000000017588, -0.2596472534571422 
2.94000000000178, -0.25957471891610123 
2.950000000001801, -0.25955739468562056 
2.960000000001822, -0.2595761909643625 
2.970000000001843, -0.2596050518740776 
2.9800000000018643, -0.25961739791438915 
2.9900000000018854, -0.2595917034301388 
3.0000000000019065, -0.25951398259173797 
3.0100000000019276, -0.2593768857022809 
3.0200000000019487, -0.259176711801046 
3.03000000000197, -0.2589098805950626 
3.040000000001991, -0.25856971327425693 
3.050000000002012, -0.2581436662342574 
3.060000000002033, -0.25761096066279193 
3.070000000002054, -0.2569409996298599 
3.0800000000020753, -0.2560941103247686 
3.0900000000020964, -0.2550277060630211 
3.1000000000021175, -0.2537112947982348 
3.1100000000021386, -0.2521493357189609 
3.1200000000021597, -0.25040037669442167 
3.130000000002181, -0.24857376484030258 
3.140000000002202, -0.24679748074097568 
3.150000000002223, -0.24517625374327978 
3.160000000002244, -0.2437670364839005 
3.1700000000022652, -0.24258024368467254 
3.1800000000022863, -0.2415957951171272 
3.1900000000023074, -0.24078037029528132 
3.2000000000023285, -0.24009935360725088 
3.2100000000023496, -0.23952302204795903 
3.2200000000023707, -0.23902881512525012 
3.230000000002392, -0.23860158316992924 
3.240000000002413, -0.23823311460821867 
3.250000000002434, -0.23792165485277436 
3.260000000002455, -0.2376716674273423 
3.2700000000024763, -0.23749364786336705 
3.2800000000024974, -0.2374031508707644 
3.2900000000025185, -0.2374169955517707 
3.3000000000025396, -0.23754267397859166 
3.3100000000025607, -0.2377554082923548 
3.3200000000025818, -0.2379614647593476 
3.330000000002603, -0.23796737218860872 
3.340000000002624, -0.23751117342406394 
3.350000000002645, -0.23640273715656743 
3.360000000002666, -0.2346897800126057 
3.3700000000026873, -0.2326602455023497 
3.3800000000027084, -0.23065930800578274 
3.3900000000027295, -0.2289179425226709 
3.4000000000027506, -0.227517424829952 
3.4100000000027717, -0.22644127039633483 
3.420000000002793, -0.22563424875333946 
3.430000000002814, -0.22503759682449948 
3.440000000002835, -0.22460336384760268 
3.450000000002856, -0.224297765453415 
3.460000000002877, -0.22410041719471918 
3.4700000000028983, -0.22400280033860023 
3.4800000000029194, -0.2240072738154843 
3.4900000000029405, -0.22412700086492773 
3.5000000000029616, -0.22438669255266813 
3.5100000000029827, -0.224823634317527 
3.520000000003004, -0.22548770619112046 
3.530000000003025, -0.22643775444413472 
3.540000000003046, -0.22772987039709447 
3.550000000003067, -0.22939265086874983 
3.5600000000030882, -0.23139029944025213 
3.5700000000031094, -0.23359151656617372 
3.5800000000031305, -0.23578010685998674 
3.5900000000031516, -0.23772665474520874 
3.6000000000031727, -0.2392800150288492 
3.6100000000031938, -0.24040701266155673 
3.620000000003215, -0.24116265341601148 
3.630000000003236, -0.24163507848961804 
3.640000000003257, -0.24190687404571048 
3.650000000003278, -0.2420406820078377 
3.6600000000032993, -0.2420792387205828 
3.6700000000033204, -0.24205023589048108 
3.6800000000033415, -0.24197140772219963 
3.6900000000033626, -0.2418546202017247 
3.7000000000033837, -0.2417090736061629 
3.710000000003405, -0.24154396420427898 
3.720000000003426, -0.24137070561227691 
3.730000000003447, -0.24120438419781137 
3.740000000003468, -0.24106378399124656 
3.750000000003489, -0.24096937823142306 
3.7600000000035103, -0.24093927716670457 
3.7700000000035314, -0.24098399136633653 
3.7800000000035525, -0.24110163018456113 
3.7900000000035736, -0.24127560387942837 
3.8000000000035947, -0.24147667724169994 
3.810000000003616, -0.24166961653755892 
3.820000000003637, -0.2418219178893397 
3.830000000003658, -0.2419104548613833 
3.840000000003679, -0.24192330028682899 
3.8500000000037002, -0.24185716422771203 
3.8600000000037213, -0.2417128583303998 
3.8700000000037424, -0.24149093860506304 
3.8800000000037635, -0.24118843817904775 
3.8900000000037847, -0.240796728233951 
3.9000000000038058, -0.24030045743661246 
3.910000000003827, -0.23967806829443566 
3.920000000003848, -0.2389052264240985 
3.930000000003869, -0.2379628507547221 
3.94000000000389, -0.23684977199607116 
3.9500000000039113, -0.23559530023129516 
3.9600000000039324, -0.234262150769245 
3.9700000000039535, -0.23293289665633626 
3.9800000000039746, -0.23168534571241203 
3.9900000000039957, -0.23057174733858027 
4.000000000004016, -0.229612172313942 
4.010000000003993, -0.22880054753609214 
4.02000000000397, -0.22811565785339788 
4.030000000003946, -0.22753099463378876 
4.040000000003923, -0.22702115544669016 
4.0500000000039, -0.22656495236982974 
4.0600000000038765, -0.22614622468319778 
4.070000000003853, -0.22575335570701527 
4.08000000000383, -0.22537818713965083 
4.090000000003807, -0.22501461847815887 
4.100000000003783, -0.2246567258642343 
4.11000000000376, -0.22429568583138887 
4.120000000003737, -0.22391407342856348 
4.130000000003713, -0.22347543286270705 
4.14000000000369, -0.22290777201464987 
4.150000000003667, -0.22208576767350005 
4.1600000000036434, -0.220832798335374 
4.17000000000362, -0.21898044315845372 
4.180000000003597, -0.2164929894163381 
4.1900000000035735, -0.21356294722960828 
4.20000000000355, -0.21054853484789765 
4.210000000003527, -0.20778891884577483 
4.220000000003504, -0.20547219184550064 
4.23000000000348, -0.20363284625315564 
4.240000000003457, -0.2022166190911574 
4.250000000003434, -0.2011408312504434 
4.26000000000341, -0.2003275019628023 
4.270000000003387, -0.1997154481121926 
4.280000000003364, -0.19926198697888944 
4.2900000000033405, -0.1989411104731003 
4.300000000003317, -0.19874137696537872 
4.310000000003294, -0.1986647752976362 
4.320000000003271, -0.19872693501048252 
4.330000000003247, -0.19895862821385918 
4.340000000003224, -0.19940800442193357 
4.350000000003201, -0.20014186135397888 
4.360000000003177, -0.20124178772720053 
4.370000000003154, -0.20278696918994288 
4.380000000003131, -0.20481273938660718 
4.390000000003107, -0.20724390462239956 
4.400000000003084, -0.2098401664945369 
4.410000000003061, -0.21223509103355614 
4.4200000000030375, -0.2141014565668639 
4.430000000003014, -0.2153172988205725 
4.440000000002991, -0.21597407404633584 
4.450000000002968, -0.21625538697838134 
4.460000000002944, -0.21632663047457115 
4.470000000002921, -0.21629642378138528 
4.480000000002898, -0.21622431921114335 
4.490000000002874, -0.2161397013825585 
4.500000000002851, -0.2160566640636154 
4.510000000002828, -0.2159828674364265 
4.520000000002804, -0.21592430858105233 
4.530000000002781, -0.21588797399738965 
4.540000000002758, -0.21588358105371955 
4.5500000000027345, -0.21592494353891825 
4.560000000002711, -0.21603097962962395 
4.570000000002688, -0.21622593082748476 
4.580000000002665, -0.21653794213987645 
4.590000000002641, -0.21699484397163768 
4.600000000002618, -0.21761608782569045 
4.610000000002595, -0.21840109287056625 
4.620000000002571, -0.21931766387970003 
4.630000000002548, -0.22029854381402508 
4.640000000002525, -0.2212540070586861 
4.6500000000025015, -0.2220983370174538 
4.660000000002478, -0.2227750091216209 
4.670000000002455, -0.22326549496129516 
4.6800000000024315, -0.22358084109025156 
4.690000000002408, -0.2237464649988051 
4.700000000002385, -0.22378968252247056 
4.710000000002362, -0.2237330024618581 
4.720000000002338, -0.22359197844185497 
4.730000000002315, -0.22337561057430774 
4.740000000002292, -0.22308805053565392 
4.750000000002268, -0.22273120985635814 
4.760000000002245, -0.22230822616515145 
4.770000000002222, -0.22182742468218097 
4.7800000000021985, -0.22130553232467925 
4.790000000002175, -0.22076817545881533 
4.800000000002152, -0.22024629019470318 
4.810000000002129, -0.21976927645650357 
4.820000000002105, -0.21935786290053855 
4.830000000002082, -0.21901971798012826 
4.840000000002059, -0.2187490547747549 
4.850000000002035, -0.21852965811371705 
