t, s[1].omega / s[0].omega 
0, -0.27999780538790364 
0.009999999999999995, -0.2798348720204119 
0.019999999999999934, -0.2797727370480271 
0.029999999999999874, -0.27978105793238317 
0.04000000000000012, -0.2798182451649912 
0.050000000000000405, -0.27984198851091185 
0.06000000000000069, -0.27981812269551226 
0.07000000000000098, -0.27972424830811377 
0.08000000000000126, -0.2795477032341743 
0.09000000000000155, -0.279280121789584 
0.10000000000000184, -0.27891094853139375 
0.11000000000000212, -0.2784207471097886 
0.12000000000000241, -0.27777360567888076 
0.130000000000002, -0.27690726584839287 
0.1400000000000009, -0.2757205079604197 
0.1499999999999998, -0.2740618410101111 
0.1599999999999987, -0.27173506721094565 
0.1699999999999976, -0.26855313671049436 
0.1799999999999965, -0.2644628838498301 
0.1899999999999954, -0.2596821537317455 
0.1999999999999943, -0.25469398466577203 
0.2099999999999932, -0.25003586300939984 
0.2199999999999921, -0.24606353609064016 
0.229999999999991, -0.24288187457549487 
0.2399999999999899, -0.24042252724112725 
0.2499999999999888, -0.23854821353702133 
0.2599999999999877, -0.23711923228513898 
0.2699999999999866, -0.2360208765690444 
0.2799999999999855, -0.23516905456907028 
0.2899999999999844, -0.2345075176501834 
0.2999999999999833, -0.2340034985882395 
0.3099999999999822, -0.23364461232631925 
0.3199999999999811, -0.23343818622623136 
0.32999999999998, -0.23341369312105065 
0.3399999999999789, -0.2336289346116923 
0.3499999999999778, -0.23418040659637834 
0.35999999999997667, -0.23521653141024376 
0.36999999999997557, -0.23694570019809452 
0.37999999999997447, -0.23961206129750864 
0.38999999999997337, -0.2433750319214077 
0.39999999999997227, -0.24801178813183192 
0.40999999999997117, -0.25254048632163145 
0.41999999999997006, -0.2553578831583362 
0.42999999999996896, -0.25539654823924085 
0.43999999999996786, -0.25313468222926805 
0.44999999999996676, -0.2499770783562362 
0.45999999999996566, -0.2470341719139347 
0.46999999999996456, -0.2447395491729786 
0.47999999999996346, -0.24310024148239404 
0.48999999999996235, -0.2419781961257224 
0.49999999999996125, -0.24122810918464554 
0.5099999999999602, -0.24073860477376857 
0.519999999999959, -0.24043496140982482 
0.529999999999958, -0.2402719348756047 
0.5399999999999568, -0.24022664015236303 
0.5499999999999557, -0.24029399546084332 
0.5599999999999546, -0.24048489406956824 
0.5699999999999535, -0.24082668266032542 
0.5799999999999524, -0.24136528343264962 
0.5899999999999513, -0.24216777279986004 
0.5999999999999502, -0.24332292071279443 
0.6099999999999491, -0.2449345281649435 
0.619999999999948, -0.24709855989520454 
0.6299999999999469, -0.249854287501056 
0.6399999999999458, -0.2531143560615327 
0.6499999999999447, -0.25661851494140875 
0.6599999999999436, -0.2599840464962875 
0.6699999999999425, -0.26286039107806364 
0.6799999999999414, -0.2650704506153751 
0.6899999999999403, -0.26662610521539576 
0.6999999999999392, -0.26764565324933365 
0.7099999999999381, -0.26826755902899413 
0.719999999999937, -0.2686059549537837 
0.7299999999999359, -0.2687403893522058 
0.7399999999999348, -0.2687205395903574 
0.7499999999999337, -0.26857426814224045 
0.7599999999999326, -0.2683151497858845 
0.7699999999999315, -0.26794937616233133 
0.7799999999999304, -0.26748293750463936 
0.7899999999999293, -0.26692921364118016 
0.7999999999999282, -0.26631514097858205 
0.8099999999999271, -0.265682420055431 
0.819999999999926, -0.26508127558586747 
0.8299999999999249, -0.26455859913811786 
0.8399999999999238, -0.26414609181605114 
0.8499999999999227, -0.26385338347116416 
0.8599999999999216, -0.2636675527177826 
0.8699999999999205, -0.2635580260666227 
0.8799999999999194, -0.2634850964466592 
0.8899999999999183, -0.26340946722711933 
0.8999999999999172, -0.2632994392941493 
0.9099999999999161, -0.26313334204049965 
0.919999999999915, -0.2628973210687445 
0.9299999999999139, -0.2625803691684245 
0.9399999999999128, -0.2621683112208505 
0.9499999999999117, -0.2616371066401083 
0.9599999999999106, -0.2609445173722167 
0.9699999999999095, -0.2600186257333227 
0.9799999999999084, -0.25874290320837806 
0.9899999999999073, -0.256943407109158 
0.9999999999999062, -0.25439853092594494 
1.0099999999999052, -0.2509102404475182 
1.019999999999904, -0.24645663210074426 
1.029999999999903, -0.24133559224488219 
1.039999999999902, -0.23611336662061438 
1.0499999999999008, -0.23135582632753754 
1.0599999999998997, -0.22738871124191537 
1.0699999999998986, -0.22426779870579963 
1.0799999999998975, -0.2218869472335369 
1.0899999999998964, -0.22008876540076572 
1.0999999999998953, -0.21872595752663745 
1.1099999999998942, -0.21768270113048782 
1.119999999999893, -0.21687647189709117 
1.129999999999892, -0.21625344749647185 
1.1399999999998909, -0.21578348348694845 
1.1499999999998898, -0.21545695455426922 
1.1599999999998887, -0.21528434215024425 
1.1699999999998876, -0.21529910208957675 
1.1799999999998865, -0.215564292334399 
1.1899999999998854, -0.21618284020083062 
1.1999999999998843, -0.21730825784571053 
1.2099999999998832, -0.2191423250776202 
1.219999999999882, -0.22188044232322754 
1.229999999999881, -0.22552663184353006 
1.2399999999998799, -0.22953161231616875 
1.2499999999998788, -0.2325381470373423 
1.2599999999998777, -0.23299362868342777 
1.2699999999998766, -0.23056894270121225 
1.2799999999998755, -0.22651017302997176 
1.2899999999998744, -0.2223645487712687 
1.2999999999998733, -0.2189679233568096 
1.3099999999998722, -0.21647544946427127 
1.319999999999871, -0.21474032175665228 
1.32999999999987, -0.21356100120759422 
1.3399999999998689, -0.21277128309721044 
1.3499999999998678, -0.21225537873797212 
1.3599999999998666, -0.21194007837910908 
1.3699999999998655, -0.21178419186821765 
1.3799999999998644, -0.21177091897461714 
1.3899999999998633, -0.21190397222004426 
1.3999999999998622, -0.21220711519302884 
1.4099999999998611, -0.21272664323623883 
1.41999999999986, -0.21353614982799335 
1.429999999999859, -0.21474195583103314 
1.4399999999998578, -0.21648473171497312 
1.4499999999998567, -0.21892662978511607 
1.4599999999998556, -0.22220450971896416 
1.4699999999998545, -0.2263311816025567 
1.4799999999998534, -0.23107048672155744 
1.4899999999998523, -0.2359046740872289 
1.4999999999998512, -0.2402194000842542 
1.5099999999998501, -0.24360581169069678 
1.519999999999849, -0.24599736497443486 
1.529999999999848, -0.2475633771814842 
1.5399999999998468, -0.248536362125848 
1.5499999999998457, -0.24911218337339275 
1.5599999999998446, -0.24942628675957096 
1.5699999999998435, -0.2495636744234336 
1.5799999999998424, -0.24957501504656573 
1.5899999999998413, -0.24948973699698387 
1.5999999999998402, -0.24932538794756898 
1.6099999999998391, -0.24909472819595263 
1.619999999999838, -0.2488117811881764 
1.629999999999837, -0.24849692649462427 
1.6399999999998358, -0.24817979400894452 
1.6499999999998347, -0.24789818118854812 
1.6599999999998336, -0.24769234394489043 
1.6699999999998325, -0.2475961871043905 
1.6799999999998314, -0.24762816908456528 
1.6899999999998303, -0.24778448985643262 
1.6999999999998292, -0.24803681147541665 
1.709999999999828, -0.24833677710273871 
1.719999999999827, -0.24862765387741415 
1.729999999999826, -0.2488587733687911 
1.7399999999998248, -0.2489955258941859 
1.7499999999998237, -0.2490206498723874 
1.7599999999998226, -0.24892843307286977 
1.7699999999998215, -0.2487162827022197 
1.7799999999998204, -0.24837682870402827 
1.7899999999998193, -0.24789126122500757 
1.7999999999998182, -0.24722335228408782 
1.809999999999817, -0.24631425142159902 
1.819999999999816, -0.2450809837501473 
1.8299999999998149, -0.24342668957014307 
1.8399999999998138, -0.24127446313126338 
1.8499999999998127, -0.2386269281149596 
1.8599999999998116, -0.23561968735064193 
1.8699999999998105, -0.23250879713381295 
1.8799999999998094, -0.22957536478128754 
1.8899999999998083, -0.22701799205733103 
1.8999999999998072, -0.2249116556064325 
1.909999999999806, -0.22323459919387006 
1.919999999999805, -0.22191690474217046 
1.9299999999998039, -0.22087772648385645 
1.9399999999998028, -0.22004470633203463 
1.9499999999998017, -0.2193609600547326 
1.9599999999998006, -0.218785725947206 
1.9699999999997995, -0.21829254484491706 
1.9799999999997984, -0.2178670337876869 
1.9899999999997973, -0.21750524405703464 
1.9999999999997962, -0.2172128904520516 
2.0099999999998173, -0.2170049793444498 
2.0199999999998384, -0.2169038398100951 
2.0299999999998595, -0.21692977026357033 
2.0399999999998806, -0.2170698830000965 
2.0499999999999017, -0.21719685973054087 
2.059999999999923, -0.21691085391357978 
2.069999999999944, -0.21537909747772838 
2.079999999999965, -0.2115266257976971 
2.089999999999986, -0.2049294653711146 
2.100000000000007, -0.19662438255408374 
2.1100000000000283, -0.18845644843954065 
2.1200000000000494, -0.1817114868723497 
2.1300000000000705, -0.17669820644629047 
2.1400000000000916, -0.17316201518706537 
2.1500000000001127, -0.17071454895208074 
2.160000000000134, -0.1690239627675688 
2.170000000000155, -0.16785405698663305 
2.180000000000176, -0.1670507319992505 
2.190000000000197, -0.16652018155336942 
2.2000000000002182, -0.16621200732798946 
2.2100000000002393, -0.16610929754084866 
2.2200000000002604, -0.16622509227453272 
2.2300000000002815, -0.1666047620184207 
2.2400000000003026, -0.1673345265419241 
2.2500000000003237, -0.1685566234246513 
2.260000000000345, -0.17048981295538151 
2.270000000000366, -0.17344546322057217 
2.280000000000387, -0.17780496737366397 
2.290000000000408, -0.1838782902836248 
2.3000000000004293, -0.1915523463350222 
2.3100000000004504, -0.1998693199652372 
2.3200000000004715, -0.20717474225779148 
2.3300000000004926, -0.21218849296152578 
2.3400000000005137, -0.21485131414916792 
2.3500000000005348, -0.21593174278823085 
2.360000000000556, -0.2162206461659844 
2.370000000000577, -0.21619971533632282 
2.380000000000598, -0.21609071789425188 
2.390000000000619, -0.2159772681893264 
2.4000000000006403, -0.21588493682884277 
2.4100000000006614, -0.21581944280471926 
2.4200000000006825, -0.21578237100664563 
2.4300000000007036, -0.2157774036327964 
2.4400000000007247, -0.21581327309180373 
2.450000000000746, -0.2159059889277827 
2.460000000000767, -0.2160811508389274 
2.470000000000788, -0.2163761992819683 
2.480000000000809, -0.21684169961250324 
2.49000000000083, -0.2175399035999694 
2.5000000000008513, -0.2185376314069447 
2.5100000000008724, -0.21988925939018414 
2.5200000000008935, -0.22160690081066486 
2.5300000000009146, -0.22362447931002594 
2.5400000000009357, -0.2257810914302159 
2.550000000000957, -0.22785537041656578 
2.560000000000978, -0.22964614143811266 
2.570000000000999, -0.2310426371809216 
2.58000000000102, -0.23203515041605147 
2.5900000000010412, -0.2326772199897187 
2.6000000000010624, -0.2330410573516665 
2.6100000000010835, -0.23319029563885216 
2.6200000000011046, -0.23317025858136048 
2.6300000000011257, -0.23300785997087353 
2.6400000000011468, -0.23271526340528204 
2.650000000001168, -0.23229511209801132 
2.660000000001189, -0.23174737452115668 
2.67000000000121, -0.23107812286041934 
2.680000000001231, -0.23030875744997056 
2.6900000000012523, -0.2294812721535049 
2.7000000000012734, -0.22865445645912522 
2.7100000000012945, -0.22789057957691758 
2.7200000000013156, -0.22723909321299737 
2.7300000000013367, -0.22672563909278315 
2.740000000001358, -0.22634966293846404 
2.750000000001379, -0.22608871994781068 
2.7600000000014, -0.2259063882969194 
2.770000000001421, -0.22576148039920646 
2.780000000001442, -0.22561627104339638 
2.7900000000014633, -0.2254413808450897 
2.8000000000014844, -0.22521621075488074 
2.8100000000015055, -0.22492572514854312 
2.8200000000015266, -0.2245552158395018 
2.8300000000015477, -0.22408404188337094 
2.840000000001569, -0.22347810035960997 
2.85000000000159, -0.22267988830007202 
2.860000000001611, -0.22159538768104717 
2.870000000001632, -0.22008069771834632 
2.8800000000016532, -0.21794217381650186 
2.8900000000016743, -0.2149814488908409 
2.9000000000016954, -0.21111544284315303 
2.9100000000017165, -0.20652637649117853 
2.9200000000017377, -0.2016819695305216 
2.9300000000017588, -0.19713253553901217 
2.94000000000178, -0.19325509909352723 
2.950000000001801, -0.19016588308789178 
2.960000000001822, -0.18779681843282023 
2.970000000001843, -0.18600623052348955 
2.9800000000018643, -0.1846497442465853 
2.9900000000018854, -0.18360891583207578 
3.0000000000019065, -0.18279657127480853 
3.0100000000019276, -0.18215335507551544 
3.0200000000019487, -0.18164257112924734 
3.03000000000197, -0.18124607857103192 
3.040000000001991, -0.18096216561080242 
3.050000000002012, -0.1808056239199148 
3.060000000002033, -0.1808097539179005 
3.070000000002054, -0.18102876836174972 
3.0800000000020753, -0.1815350598360706 
3.0900000000020964, -0.18239494175174817 
3.1000000000021175, -0.18358429161112547 
3.1100000000021386, -0.18478846793621143 
3.1200000000021597, -0.1851256442173017 
3.130000000002181, -0.18321279164817844 
3.140000000002202, -0.17818339294134436 
3.150000000002223, -0.17087992670011343 
3.160000000002244, -0.1632923606802117 
3.1700000000022652, -0.15691419806882054 
3.1800000000022863, -0.1521649622525612 
3.1900000000023074, -0.14883014031077857 
3.2000000000023285, -0.14653758149937526 
3.2100000000023496, -0.14496621381399918 
3.2200000000023707, -0.1438888949523266 
3.230000000002392, -0.1431591623230631 
3.240000000002413, -0.14268957240822977 
3.250000000002434, -0.14243525088299172 
3.260000000002455, -0.14238463599601717 
3.2700000000024763, -0.14255682970302824 
3.2800000000024974, -0.14300518316700067 
3.2900000000025185, -0.1438274958595595 
3.3000000000025396, -0.1451833273448812 
3.3100000000025607, -0.14731616865741434 
3.3200000000025818, -0.15056659458669786 
3.330000000002603, -0.15533046887338317 
3.340000000002624, -0.16186348744578044 
3.350000000002645, -0.16985496311609458 
3.360000000002666, -0.17804818380096737 
3.3700000000026873, -0.18468272055410467 
3.3800000000027084, -0.18876517071847873 
3.3900000000027295, -0.19061716027551484 
3.4000000000027506, -0.19115461086629829 
3.4100000000027717, -0.19112323128508432 
3.420000000002793, -0.19091893321553893 
3.430000000002814, -0.19070244509999978 
3.440000000002835, -0.19052423119845957 
3.450000000002856, -0.19039387914423023 
3.460000000002877, -0.1903101680899133 
3.4700000000028983, -0.19027259638093605 
3.4800000000029194, -0.1902858420097568 
3.4900000000029405, -0.19036218786982592 
3.5000000000029616, -0.19052385077030115 
3.5100000000029827, -0.1908057347587122 
3.520000000003004, -0.19125828361859717 
3.530000000003025, -0.1919492227699205 
3.540000000003046, -0.1929615293759785 
3.550000000003067, -0.1943825005524224 
3.5600000000030882, -0.1962763686177162 
3.5700000000031094, -0.19863656465887988 
3.5800000000031305, -0.20133411541604335 
3.5900000000031516, -0.204110636851513 
3.6000000000031727, -0.20665826452220415 
3.6100000000031938, -0.20874725956579873 
3.620000000003215, -0.21029820791403364 
3.630000000003236, -0.2113566986903231 
3.640000000003257, -0.21202333269679524 
3.650000000003278, -0.21239928066344724 
3.6600000000032993, -0.21256304129425468 
3.6700000000033204, -0.2125674316141768 
3.6800000000033415, -0.21244446544214063 
3.6900000000033626, -0.2122119596082576 
3.7000000000033837, -0.21188025219115086 
3.710000000003405, -0.21145917121487026 
3.720000000003426, -0.2109651110082759 
3.730000000003447, -0.2104265494577128 
3.740000000003468, -0.20988502778230994 
3.750000000003489, -0.2093896037591946 
3.7600000000035103, -0.2089863737878311 
3.7700000000035314, -0.20870764256813684 
3.7800000000035525, -0.20856467742932994 
3.7900000000035736, -0.2085453103809002 
3.8000000000035947, -0.208616402989202 
3.810000000003616, -0.2087312369642061 
3.820000000003637, -0.20884050326752046 
3.830000000003658, -0.20890280680467693 
3.840000000003679, -0.20889006503580726 
3.8500000000037002, -0.20878631207183201 
3.8600000000037213, -0.20858202301772036 
3.8700000000037424, -0.20826698009490224 
3.8800000000037635, -0.20782333585345855 
3.8900000000037847, -0.20721903147022402 
3.9000000000038058, -0.20640154152085494 
3.910000000003827, -0.20529379744678647 
3.920000000003848, -0.20379868893977465 
3.930000000003869, -0.20182410957654584 
3.94000000000389, -0.19933737643029234 
3.9500000000039113, -0.19642997625896064 
3.9600000000039324, -0.19333329094074136 
3.9700000000039535, -0.1903417352957192 
3.9800000000039746, -0.1876922781024515 
3.9900000000039957, -0.18549614071995454 
4.000000000004016, -0.18375125305672466 
4.010000000003993, -0.1823922322167581 
4.02000000000397, -0.18133430771470144 
4.030000000003946, -0.18049790887513897 
4.040000000003923, -0.17981826993735284 
4.0500000000039, -0.17924701878847893 
4.0600000000038765, -0.17875031379469022 
4.070000000003853, -0.17830586050418204 
4.08000000000383, -0.17789982701993715 
4.090000000003807, -0.1775237883672955 
4.100000000003783, -0.17717084504807307 
4.11000000000376, -0.17682835990098075 
4.120000000003737, -0.17646131723702452 
4.130000000003713, -0.17597418659152894 
4.14000000000369, -0.1751341087203747 
4.150000000003667, -0.17345927722673032 
4.1600000000036434, -0.17018710261418896 
4.17000000000362, -0.1646158155521354 
4.180000000003597, -0.15688225526957061 
4.1900000000035735, -0.14829070746841425 
4.20000000000355, -0.1404396322794102 
4.210000000003527, -0.13420233773396978 
4.220000000003504, -0.1296363796317436 
4.23000000000348, -0.12641457114845364 
4.240000000003457, -0.12415984686021156 
4.250000000003434, -0.12257172726881838 
4.26000000000341, -0.12144187169042522 
4.270000000003387, -0.12063598865732408 
4.280000000003364, -0.12007336335136312 
4.2900000000033405, -0.11971229529588034 
4.300000000003317, -0.11954226467516545 
4.310000000003294, -0.11958223153367478 
4.320000000003271, -0.11988482495340466 
4.330000000003247, -0.12054655987249037 
4.340000000003224, -0.12172293219288399 
4.350000000003201, -0.12363996631974335 
4.360000000003177, -0.12656985336340307 
4.370000000003154, -0.13068432869932695 
4.380000000003131, -0.13565960187396775 
4.390000000003107, -0.14015873313020882 
4.400000000003084, -0.14211206588032094 
4.410000000003061, -0.14048598581801763 
4.4200000000030375, -0.13642453937893823 
4.430000000003014, -0.1318883839909524 
4.440000000002991, -0.1280629249102777 
4.450000000002968, -0.12522657990705865 
4.460000000002944, -0.12323799414426242 
4.470000000002921, -0.12187282768920804 
4.480000000002898, -0.1209449639544004 
4.490000000002874, -0.1203267976125277 
4.500000000002851, -0.11994027764785724 
4.510000000002828, -0.11974510701986611 
4.520000000002804, -0.11973109577642818 
4.530000000002781, -0.11991580323859134 
4.540000000002758, -0.12034757694059987 
4.5500000000027345, -0.12111438285970874 
4.560000000002711, -0.12235887150971929 
4.570000000002688, -0.12429796873774449 
4.580000000002665, -0.12723611214540925 
4.590000000002641, -0.13153580446098673 
4.600000000002618, -0.1374657620420474 
4.610000000002595, -0.14485418379306117 
4.620000000002571, -0.1527332915782587 
4.630000000002548, -0.15958616873746717 
4.640000000002525, -0.16434795413785958 
4.6500000000025015, -0.1670287377955541 
4.660000000002478, -0.16828969061829555 
4.670000000002455, -0.16879042892635185 
4.6800000000024315, -0.16894413654995846 
4.690000000002408, -0.1689574210212243 
4.700000000002385, -0.16892204614128564 
4.710000000002362, -0.1688770818223643 
4.720000000002338, -0.1688406246458905 
4.730000000002315, -0.16882451200216736 
4.740000000002292, -0.16884144238354332 
4.750000000002268, -0.1689092671020371 
4.760000000002245, -0.16905451326254659 
4.770000000002222, -0.16931575084848133 
4.7800000000021985, -0.1697464800945491 
4.790000000002175, -0.17041627022682082 
4.800000000002152, -0.17140736871605974 
4.810000000002129, -0.17280152856324588 
4.820000000002105, -0.17465003273951454 
4.830000000002082, -0.17692588611255217 
