t, s[1].omega / s[0].omega 
0, -1.2799973878916426 
0.009999999999999995, -1.2796581566710148 
0.019999999999999934, -1.2791688796227823 
0.029999999999999874, -1.2785433489933586 
0.04000000000000012, -1.2778065021928833 
0.050000000000000405, -1.2769970597516012 
0.06000000000000069, -1.276169125268095 
0.07000000000000098, -1.2753891794461336 
0.08000000000000126, -1.2747247070033039 
0.09000000000000155, -1.2742244410322054 
0.10000000000000184, -1.2738984675069003 
0.11000000000000212, -1.273712572027728 
0.12000000000000241, -1.273603246471874 
0.130000000000002, -1.2735015526669593 
0.1400000000000009, -1.2733481672246856 
0.1499999999999998, -1.2730938076946272 
0.1599999999999987, -1.2726909093638177 
0.1699999999999976, -1.272084320136774 
0.1799999999999965, -1.2712064483368428 
0.1899999999999954, -1.2699814363828652 
0.1999999999999943, -1.2683434824029356 
0.2099999999999932, -1.2662729389550051 
0.2199999999999921, -1.2638457508284968 
0.229999999999991, -1.2612736056224667 
0.2399999999999899, -1.2588893068641167 
0.2499999999999888, -1.2570365004414197 
0.2599999999999877, -1.255900182144237 
0.2699999999999866, -1.2554147592726723 
0.2799999999999855, -1.2553414744548006 
0.2899999999999844, -1.2554275288712982 
0.2999999999999833, -1.2555032631506664 
0.3099999999999822, -1.255486091213618 
0.3199999999999811, -1.2553433672077507 
0.32999999999998, -1.2550572934158426 
0.3399999999999789, -1.2546031392482955 
0.3499999999999778, -1.2539382644150878 
0.35999999999997667, -1.2530013447147441 
0.36999999999997557, -1.2517305350772756 
0.37999999999997447, -1.2501195401111727 
0.38999999999997337, -1.248321894749195 
0.39999999999997227, -1.2467458656132553 
0.40999999999997117, -1.2459726958964024 
0.41999999999997006, -1.2463984213016877 
0.42999999999996896, -1.247886174742544 
0.43999999999996786, -1.2498583625279065 
0.44999999999996676, -1.2517216850107187 
0.45999999999996566, -1.253152887197761 
0.46999999999996456, -1.2540915533616528 
0.47999999999996346, -1.254610172203487 
0.48999999999996235, -1.2548107407924511 
0.49999999999996125, -1.2547784118889065 
0.5099999999999602, -1.2545715317924189 
0.519999999999959, -1.254227882621919 
0.529999999999958, -1.2537788141373531 
0.5399999999999568, -1.2532706827397648 
0.5499999999999557, -1.2527920860552586 
0.5599999999999546, -1.252492159189892 
0.5699999999999535, -1.2525575392591424 
0.5799999999999524, -1.2531296733886184 
0.5899999999999513, -1.2542106903891352 
0.5999999999999502, -1.2556454403395825 
0.6099999999999491, -1.2571971750501734 
0.619999999999948, -1.2586457940173 
0.6299999999999469, -1.2598444110836466 
0.6399999999999458, -1.2607271512993756 
0.6499999999999447, -1.2612904063583283 
0.6599999999999436, -1.2615674768054899 
0.6699999999999425, -1.2616069739919036 
0.6799999999999414, -1.2614589777538237 
0.6899999999999403, -1.26116950108227 
0.6999999999999392, -1.2607818476981127 
0.7099999999999381, -1.2603420421139322 
0.719999999999937, -1.2599037461212905 
0.7299999999999359, -1.2595265482795304 
0.7399999999999348, -1.2592639269409989 
0.7499999999999337, -1.2591457184873482 
0.7599999999999326, -1.2591670623748406 
0.7699999999999315, -1.2592914774845974 
0.7799999999999304, -1.25946455456504 
0.7899999999999293, -1.2596292113447571 
0.7999999999999282, -1.2597358819580848 
0.8099999999999271, -1.2597461761627236 
0.819999999999926, -1.2596323148913988 
0.8299999999999249, -1.2593754964981474 
0.8399999999999238, -1.2589650988322492 
0.8499999999999227, -1.2583991520081788 
0.8599999999999216, -1.2576859060136754 
0.8699999999999205, -1.2568463681349 
0.8799999999999194, -1.2559175204312845 
0.8899999999999183, -1.2549547936720908 
0.8999999999999172, -1.254030379860343 
0.9099999999999161, -1.2532227142375914 
0.919999999999915, -1.2525952137416116 
0.9299999999999139, -1.252171567376193 
0.9399999999999128, -1.2519243770741404 
0.9499999999999117, -1.2517882594296916 
0.9599999999999106, -1.2516872819305913 
0.9699999999999095, -1.2515555504264528 
0.9799999999999084, -1.2513410526788855 
0.9899999999999073, -1.250997691695467 
0.9999999999999062, -1.2504741831607629 
1.0099999999999052, -1.2497057145122248 
1.019999999999904, -1.2486127007271288 
1.029999999999903, -1.2471121510971284 
1.039999999999902, -1.245147978129944 
1.0499999999999008, -1.242741597554094 
1.0599999999998997, -1.2400477715126885 
1.0699999999998986, -1.2373738903076608 
1.0799999999998975, -1.2351074711453276 
1.0899999999998964, -1.2335470006328757 
1.0999999999998953, -1.2327463791444955 
1.1099999999998942, -1.2325172595766318 
1.119999999999893, -1.2325794984623688 
1.129999999999892, -1.2327066349498619 
1.1399999999998909, -1.2327719739107748 
1.1499999999998898, -1.2327228140453061 
1.1599999999998887, -1.2325398442018787 
1.1699999999998876, -1.232207958543095 
1.1799999999998865, -1.2317000344873938 
1.1899999999998854, -1.2309698864635201 
1.1999999999998843, -1.2299558185234676 
1.2099999999998832, -1.2286058310615118 
1.219999999999882, -1.2269425686076612 
1.229999999999881, -1.2251673965109984 
1.2399999999998799, -1.2237254104328055 
1.2499999999998788, -1.2231693124461005 
1.2599999999998777, -1.223792824498553 
1.2699999999998766, -1.225366484745348 
1.2799999999998755, -1.2273069048342315 
1.2899999999998744, -1.2290780995685686 
1.2999999999998733, -1.2304123273787755 
1.3099999999998722, -1.2312750959855951 
1.319999999999871, -1.2317423471302913 
1.32999999999987, -1.2319105160431174 
1.3399999999998689, -1.2318578985461532 
1.3499999999998678, -1.231637187546626 
1.3599999999998666, -1.2312817812771568 
1.3699999999998655, -1.23081925979191 
1.3799999999998644, -1.2302923696749384 
1.3899999999998633, -1.229787171617802 
1.3999999999998622, -1.229455367091488 
1.4099999999998611, -1.2294979973467828 
1.41999999999986, -1.2300844097937955 
1.429999999999859, -1.2312446824174361 
1.4399999999998578, -1.232830233038461 
1.4499999999998567, -1.2345824948282302 
1.4599999999998556, -1.2362451415822944 
1.4699999999998545, -1.2376398424042727 
1.4799999999998534, -1.2386840532606436 
1.4899999999998523, -1.2393716890356798 
1.4999999999998512, -1.2397420343296914 
1.5099999999998501, -1.2398522807137975 
1.519999999999849, -1.2397599085481923 
1.529999999999848, -1.2395154786643772 
1.5399999999998468, -1.2391636855014356 
1.5499999999998457, -1.238749540473426 
1.5599999999998446, -1.2383254846875416 
1.5699999999998435, -1.237953322934212 
1.5799999999998424, -1.2376950771532622 
1.5899999999998413, -1.2375939626226937 
1.5999999999998402, -1.2376573619103122 
1.6099999999998391, -1.237854536166851 
1.619999999999838, -1.238129561447158 
1.629999999999837, -1.238419351766474 
1.6399999999998358, -1.2386672967906418 
1.6499999999998347, -1.238829474507861 
1.6599999999998336, -1.2388752853077156 
1.6699999999998325, -1.2387857353362113 
1.6799999999998314, -1.2385516489008077 
1.6899999999998303, -1.2381726523952024 
1.6999999999998292, -1.237656993609932 
1.709999999999828, -1.2370221917407231 
1.719999999999827, -1.2362965171817746 
1.729999999999826, -1.2355206843914186 
1.7399999999998248, -1.2347478058204016 
1.7499999999998237, -1.2340385713227915 
1.7599999999998226, -1.233449509665839 
1.7699999999998215, -1.2330162276493257 
1.7799999999998204, -1.2327394506035705 
1.7899999999998193, -1.2325838411780476 
1.7999999999998182, -1.2324917847269992 
1.809999999999817, -1.2324021165984989 
1.819999999999816, -1.2322614367957376 
1.8299999999998149, -1.2320245358245996 
1.8399999999998138, -1.2316485706981646 
1.8499999999998127, -1.231087104993565 
1.8599999999998116, -1.2302883737834638 
1.8699999999998105, -1.2292006213401092 
1.8799999999998094, -1.2277861121676856 
1.8899999999998083, -1.2260431724918108 
1.8999999999998072, -1.224031720936136 
1.909999999999806, -1.221891856414152 
1.919999999999805, -1.219837664624961 
1.9299999999998039, -1.2181071040774198 
1.9399999999998028, -1.216871986248911 
1.9499999999998017, -1.2161599696470053 
1.9599999999998006, -1.2158553192889456 
1.9699999999997995, -1.2157782478139119 
1.9799999999997984, -1.215770173907959 
1.9899999999997973, -1.21572902571559 
1.9999999999997962, -1.2155997522515434 
2.0099999999998173, -1.2153495883650067 
2.0199999999998384, -1.2149460570725197 
2.0299999999998595, -1.214341389727883 
2.0399999999998806, -1.213462710752977 
2.0499999999999017, -1.2122110920046452 
2.059999999999923, -1.2104813758541058 
2.069999999999944, -1.2082227291052001 
2.079999999999965, -1.2055473494555957 
2.089999999999986, -1.2028301149940859 
2.100000000000007, -1.2006521870372748 
2.1100000000000283, -1.1995009112353607 
2.1200000000000494, -1.1994405229201799 
2.1300000000000705, -1.200107269161613 
2.1400000000000916, -1.201013805638374 
2.1500000000001127, -1.2018179016829156 
2.160000000000134, -1.202377595401584 
2.170000000000155, -1.2026794031305417 
2.180000000000176, -1.2027589138726 
2.190000000000197, -1.2026554353936225 
2.2000000000002182, -1.2023947308065333 
2.2100000000002393, -1.2019866120615226 
2.2200000000002604, -1.2014311012762944 
2.2300000000002815, -1.200734805205681 
2.2400000000003026, -1.199943879173958 
2.2500000000003237, -1.1991941852010604 
2.260000000000345, -1.1987501113253372 
2.270000000000366, -1.1989607278129142 
2.280000000000387, -1.200083868945011 
2.290000000000408, -1.202079381163692 
2.3000000000004293, -1.2045815472769055 
2.3100000000004504, -1.2070984004055207 
2.3200000000004715, -1.2092482026138605 
2.3300000000004926, -1.2108588990634097 
2.3400000000005137, -1.2119307772290198 
2.3500000000005348, -1.212551446206986 
2.360000000000556, -1.2128280454583567 
2.370000000000577, -1.212853095198766 
2.380000000000598, -1.212695476699637 
2.390000000000619, -1.2124048682460258 
2.4000000000006403, -1.2120227345546593 
2.4100000000006614, -1.2115969271976226 
2.4200000000006825, -1.2111963478747303 
2.4300000000007036, -1.2109165515057927 
2.4400000000007247, -1.2108632463977957 
2.450000000000746, -1.2111120691531643 
2.460000000000767, -1.2116689123952749 
2.470000000000788, -1.2124631948121534 
2.480000000000809, -1.2133780030003771 
2.49000000000083, -1.2142912271753572 
2.5000000000008513, -1.2151037885863452 
2.5100000000008724, -1.2157499920420354 
2.5200000000008935, -1.2161963241856868 
2.5300000000009146, -1.2164353834100436 
2.5400000000009357, -1.2164784767756955 
2.550000000000957, -1.2163485083008898 
2.560000000000978, -1.2160744711945617 
2.570000000000999, -1.2156887581716644 
2.58000000000102, -1.2152276314914128 
2.5900000000010412, -1.2147334668969585 
2.6000000000010624, -1.2142554312210536 
2.6100000000010835, -1.2138447314526242 
2.6200000000011046, -1.2135435827432333 
2.6300000000011257, -1.2133726249913004 
2.6400000000011468, -1.2133242223462006 
2.650000000001168, -1.213365533881737 
2.660000000001189, -1.213449040579338 
2.67000000000121, -1.2135245475576417 
2.680000000001231, -1.2135474011971366 
2.6900000000012523, -1.2134814186949365 
2.7000000000012734, -1.21329849240395 
2.7100000000012945, -1.212977680805746 
2.7200000000013156, -1.2125053905827419 
2.7300000000013367, -1.211876798580397 
2.740000000001358, -1.2110980427324105 
2.750000000001379, -1.2101888495582556 
2.7600000000014, -1.2091853555465815 
2.770000000001421, -1.2081421099510856 
2.780000000001442, -1.2071305545632558 
2.7900000000014633, -1.2062299420238238 
2.8000000000014844, -1.2055084601986132 
2.8100000000015055, -1.2049996648893546 
2.8200000000015266, -1.2046882538209585 
2.8300000000015477, -1.2045173657450887 
2.840000000001569, -1.2044127601580095 
2.85000000000159, -1.204305670396825 
2.860000000001611, -1.204141579765666 
2.870000000001632, -1.2038760567105786 
2.8800000000016532, -1.203465237239395 
2.8900000000016743, -1.202857181233872 
2.9000000000016954, -1.20198798965243 
2.9100000000017165, -1.2007863184928096 
2.9200000000017377, -1.1991903636685255 
2.9300000000017588, -1.197179302764805 
2.94000000000178, -1.1948137905134821 
2.950000000001801, -1.1922673604402563 
2.960000000001822, -1.1898181438051787 
2.970000000001843, -1.1877744083737904 
2.9800000000018643, -1.186349575618386 
2.9900000000018854, -1.1855663619081518 
3.0000000000019065, -1.1852713425901986 
3.0100000000019276, -1.1852426258809898 
3.0200000000019487, -1.1852932234964277 
3.03000000000197, -1.1853087470773533 
3.040000000001991, -1.1852330364346932 
3.050000000002012, -1.1850386893854759 
3.060000000002033, -1.184702775128244 
3.070000000002054, -1.1841908798658596 
3.0800000000020753, -1.1834472383716077 
3.0900000000020964, -1.1823913555866654 
3.1000000000021175, -1.1809286490363533 
3.1100000000021386, -1.178991194204959 
3.1200000000021597, -1.176622850210812 
3.130000000002181, -1.1740840311271061 
3.140000000002202, -1.171868791519303 
3.150000000002223, -1.1705075640372455 
3.160000000002244, -1.17023233164471 
3.1700000000022652, -1.1708273159309148 
3.1800000000022863, -1.1718260424740994 
3.1900000000023074, -1.1728158917684883 
3.2000000000023285, -1.1735789029529697 
3.2100000000023496, -1.1740605544484706 
3.2200000000023707, -1.1742869249352186 
3.230000000002392, -1.174304083826987 
3.240000000002413, -1.1741497541896107 
3.250000000002434, -1.173844991228951 
3.260000000002455, -1.1733956308655646 
3.2700000000024763, -1.1728006123444674 
3.2800000000024974, -1.172070667942613 
3.2900000000025185, -1.1712635362979096 
3.3000000000025396, -1.1705329793418342 
3.3100000000025607, -1.1701578752802795 
3.3200000000025818, -1.1704818936265018 
3.330000000002603, -1.1717314832498862 
3.340000000002624, -1.1738274702331828 
3.350000000002645, -1.1763833257710272 
3.360000000002666, -1.1789111136634063 
3.3700000000026873, -1.1810462450149903 
3.3800000000027084, -1.182633764623687 
3.3900000000027295, -1.1836848485116984 
3.4000000000027506, -1.184291556684181 
3.4100000000027717, -1.1845612823134664 
3.420000000002793, -1.1845848249691593 
3.430000000002814, -1.1844286090946556 
3.440000000002835, -1.184139396781307 
3.450000000002856, -1.1837550343424756 
3.460000000002877, -1.1833190844624648 
3.4700000000028983, -1.1828972283687056 
3.4800000000029194, -1.1825878289181762 
3.4900000000029405, -1.1825121293472414 
3.5000000000029616, -1.1827749783277948 
3.5100000000029827, -1.1834132024278257 
3.520000000003004, -1.1843703812899737 
3.530000000003025, -1.1855182723799047 
3.540000000003046, -1.1867050947449624 
3.550000000003067, -1.187797975115053 
3.5600000000030882, -1.188704440899289 
3.5700000000031094, -1.1893759108096913 
3.5800000000031305, -1.1898011123357446 
3.5900000000031516, -1.1899952505670073 
3.6000000000031727, -1.1899885889769786 
3.6100000000031938, -1.189817230600243 
3.620000000003215, -1.1895180436365633 
3.630000000003236, -1.189128261619207 
3.640000000003257, -1.1886885692158389 
3.650000000003278, -1.1882466159658764 
3.6600000000032993, -1.187856390212786 
3.6700000000033204, -1.187569853466821 
3.6800000000033415, -1.1874226130628212 
3.6900000000033626, -1.187421776241861 
3.7000000000033837, -1.1875439718784628 
3.710000000003405, -1.1877440943755395 
3.720000000003426, -1.1879686584903473 
3.730000000003447, -1.188167094040388 
3.740000000003468, -1.1882978759596612 
3.750000000003489, -1.1883301070303722 
3.7600000000035103, -1.1882428435295262 
3.7700000000035314, -1.1880240836988765 
3.7800000000035525, -1.1876702145189164 
3.7900000000035736, -1.1871859656537245 
3.8000000000035947, -1.1865848024871566 
3.810000000003616, -1.1858897971403661 
3.820000000003637, -1.1851347801346286 
3.830000000003658, -1.1843647116077922 
3.840000000003679, -1.1836331476622781 
3.8500000000037002, -1.1829946351306693 
3.8600000000037213, -1.182492043356794 
3.8700000000037424, -1.1821429925859397 
3.8800000000037635, -1.1819328644035276 
3.8900000000037847, -1.1818198065052952 
3.9000000000038058, -1.1817489507233527 
3.910000000003827, -1.1816664365871188 
3.920000000003848, -1.1815259656649233 
3.930000000003869, -1.1812877979738383 
3.94000000000389, -1.1809145776487937 
3.9500000000039113, -1.1803684485833488 
3.9600000000039324, -1.179612213141421 
3.9700000000039535, -1.1786155027537235 
3.9800000000039746, -1.1773651853296505 
3.9900000000039957, -1.1758776654754357 
4.000000000004016, -1.174209738527431 
4.010000000003993, -1.1724637304314103 
4.02000000000397, -1.1707807314927867 
4.030000000003946, -1.1693147367229915 
4.040000000003923, -1.1681875596571525 
4.0500000000039, -1.1674430820555566 
4.0600000000038765, -1.16703288135049 
4.070000000003853, -1.1668470023481874 
4.08000000000383, -1.1667652975580665 
4.090000000003807, -1.1666929243762392 
4.100000000003783, -1.1665672179025113 
4.11000000000376, -1.1663463742868876 
4.120000000003737, -1.1659935382861601 
4.130000000003713, -1.1654629684226645 
4.14000000000369, -1.1646900780751481 
4.150000000003667, -1.1635873852189644 
4.1600000000036434, -1.1620523009607122 
4.17000000000362, -1.159996930883991 
4.180000000003597, -1.1574073717408506 
4.1900000000035735, -1.1544194589451977 
4.20000000000355, -1.151359087945995 
4.210000000003527, -1.148674204473555 
4.220000000003504, -1.1467460593420382 
4.23000000000348, -1.1456990093070878 
4.240000000003457, -1.1453713365452347 
4.250000000003434, -1.1454594545778327 
4.26000000000341, -1.145687677928858 
4.270000000003387, -1.1458852478886143 
4.280000000003364, -1.1459755989164953 
4.2900000000033405, -1.145935191822629 
4.300000000003317, -1.145758613757438 
4.310000000003294, -1.145437702420078 
4.320000000003271, -1.1449505729009914 
4.330000000003247, -1.1442564375864663 
4.340000000003224, -1.1432966683982717 
4.350000000003201, -1.142009075763893 
4.360000000003177, -1.1403683775167393 
4.370000000003154, -1.1384605949555584 
4.380000000003131, -1.1365615510184244 
4.390000000003107, -1.135123432395247 
4.400000000003084, -1.1345772186429408 
4.410000000003061, -1.1350463446626393 
4.4200000000030375, -1.136251929755894 
4.430000000003014, -1.1377182181046976 
4.440000000002991, -1.139051539628521 
4.450000000002968, -1.1400597900439335 
4.460000000002944, -1.140713442855746 
4.470000000002921, -1.141060690745831 
4.480000000002898, -1.1411661517972247 
4.490000000002874, -1.141082658093965 
4.500000000002851, -1.1408436173970875 
4.510000000002828, -1.1404648659621588 
4.520000000002804, -1.1399517198607136 
4.530000000002781, -1.1393127378760668 
4.540000000002758, -1.138585021036662 
4.5500000000027345, -1.1378727914006757 
4.560000000002711, -1.1373834380739198 
4.570000000002688, -1.137414617311259 
4.580000000002665, -1.138242828984716 
4.590000000002641, -1.1399460397199042 
4.600000000002618, -1.1423051724535784 
4.610000000002595, -1.1448948510990415 
4.620000000002571, -1.1472904847924201 
4.630000000002548, -1.1492247839502365 
4.640000000002525, -1.1506159636683342 
4.6500000000025015, -1.1515088961698428 
4.660000000002478, -1.1520010262781448 
4.670000000002455, -1.1521922282388588 
4.6800000000024315, -1.1521629331804688 
4.690000000002408, -1.1519707857092416 
4.700000000002385, -1.1516566264279338 
4.710000000002362, -1.151255330084634 
4.720000000002338, -1.1508103077014735 
4.730000000002315, -1.150389776380972 
4.740000000002292, -1.150097128422109 
4.750000000002268, -1.1500608414396756 
4.760000000002245, -1.1503943856567502 
4.770000000002222, -1.151141905496136 
4.7800000000021985, -1.1522481492617371 
4.790000000002175, -1.1535761988059314 
4.800000000002152, -1.1549571156033187 
4.810000000002129, -1.156238333903199 
4.820000000002105, -1.1573117006125835 
4.830000000002082, -1.158120730872415 
4.840000000002059, -1.1586540636049898 
4.850000000002035, -1.1589319848406068 
4.860000000002012, -1.158991576294963 
4.870000000001989, -1.1588748192025997 
4.880000000001965, -1.1586221233118565 
4.890000000001942, -1.1582716081129998 
4.900000000001919, -1.157862780300683 
4.9100000000018955, -1.157441828488269 
4.920000000001872, -1.157064129583691 
4.930000000001849, -1.156789029325401 
4.940000000001826, -1.156665637658288 
