t, s[1].omega / s[0].omega 
0, -0.5799977333223291 
0.009999999999999995, -0.5797751611964873 
0.019999999999999934, -0.5795556832867177 
0.029999999999999874, -0.5793265932454912 
0.04000000000000012, -0.5790729360585927 
0.050000000000000405, -0.5787830392943484 
0.06000000000000069, -0.5784516750065143 
0.07000000000000098, -0.5780804999987209 
0.08000000000000126, -0.5776771713529182 
0.09000000000000155, -0.5772549071061733 
0.10000000000000184, -0.5768337231687524 
0.11000000000000212, -0.5764440010078112 
0.12000000000000241, -0.5761327878808942 
0.130000000000002, -0.5759731200466665 
0.1400000000000009, -0.5760762048661214 
0.1499999999999998, -0.5766047210188809 
0.1599999999999987, -0.5777815583880974 
0.1699999999999976, -0.5798806403614155 
0.1799999999999965, -0.5831762214782674 
0.1899999999999954, -0.5878259370341079 
0.1999999999999943, -0.5937011128006588 
0.2099999999999932, -0.6002743538273877 
0.2199999999999921, -0.6067353978488566 
0.229999999999991, -0.6123418075562127 
0.2399999999999899, -0.6167240414183042 
0.2499999999999888, -0.6199017339873029 
0.2599999999999877, -0.6220991472977762 
0.2699999999999866, -0.6235727700776853 
0.2799999999999855, -0.6245327818196829 
0.2899999999999844, -0.6251294760534546 
0.2999999999999833, -0.6254632231420489 
0.3099999999999822, -0.6255972697173123 
0.3199999999999811, -0.6255673029747129 
0.32999999999998, -0.6253872394135962 
0.3399999999999789, -0.6250521330490512 
0.3499999999999778, -0.6245395687360003 
0.35999999999997667, -0.6238116380921377 
0.36999999999997557, -0.6228207509625953 
0.37999999999997447, -0.6215230048823666 
0.38999999999997337, -0.6198998895055741 
0.39999999999997227, -0.6179808759834946 
0.40999999999997117, -0.6158513632458786 
0.41999999999997006, -0.613635073935342 
0.42999999999996896, -0.6114589731854612 
0.43999999999996786, -0.6094223487103807 
0.44999999999996676, -0.6075847239218499 
0.45999999999996566, -0.6059709937970954 
0.46999999999996456, -0.604583876209745 
0.47999999999996346, -0.6034155727384806 
0.48999999999996235, -0.6024554479952375 
0.49999999999996125, -0.6016938666219789 
0.5099999999999602, -0.6011234932825777 
0.519999999999959, -0.6007393317493721 
0.529999999999958, -0.6005383882480533 
0.5399999999999568, -0.600519460986576 
0.5499999999999557, -0.6006832588764335 
0.5599999999999546, -0.6010328073845222 
0.5699999999999535, -0.6015738552253425 
0.5799999999999524, -0.6023146975741078 
0.5899999999999513, -0.6032644569914132 
0.5999999999999502, -0.6044285355191688 
0.6099999999999491, -0.6058001368389511 
0.619999999999948, -0.6073483557522765 
0.6299999999999469, -0.6090070820574198 
0.6399999999999458, -0.6106734593631777 
0.6499999999999447, -0.6122243381237197 
0.6599999999999436, -0.6135484807797555 
0.6699999999999425, -0.6145773200685336 
0.6799999999999414, -0.6152954408623917 
0.6899999999999403, -0.6157281894801344 
0.6999999999999392, -0.615919347907133 
0.7099999999999381, -0.6159122219746341 
0.719999999999937, -0.6157388863254065 
0.7299999999999359, -0.6154157245551646 
0.7399999999999348, -0.6149416681731903 
0.7499999999999337, -0.6142962726821246 
0.7599999999999326, -0.6134357415430118 
0.7699999999999315, -0.6122855399418765 
0.7799999999999304, -0.6107288018862728 
0.7899999999999293, -0.608592150218228 
0.7999999999999282, -0.6056390305375426 
0.8099999999999271, -0.6015997315397327 
0.819999999999926, -0.5962844714423272 
0.8299999999999249, -0.5897833846201792 
0.8399999999999238, -0.5826121612135455 
0.8499999999999227, -0.5755882373590252 
0.8599999999999216, -0.5694660639542911 
0.8699999999999205, -0.5646457654092122 
0.8799999999999194, -0.5611505486357818 
0.8899999999999183, -0.5587765306552759 
0.8999999999999172, -0.5572487895983921 
0.9099999999999161, -0.5563127891541504 
0.919999999999915, -0.5557679045328914 
0.9299999999999139, -0.5554693627130682 
0.9399999999999128, -0.5553181360563554 
0.9499999999999117, -0.5552486847745322 
0.9599999999999106, -0.5552183983310457 
0.9699999999999095, -0.5551997561711947 
0.9799999999999084, -0.5551751762280533 
0.9899999999999073, -0.5551342188959356 
0.9999999999999062, -0.5550726572627321 
1.0099999999999052, -0.5549925814324136 
1.019999999999904, -0.5549021920655243 
1.029999999999903, -0.5548137616500629 
1.039999999999902, -0.5547390959113702 
1.0499999999999008, -0.5546836829473757 
1.0599999999998997, -0.5546423424935502 
1.0699999999998986, -0.5545990932989112 
1.0799999999998975, -0.5545318054166467 
1.0899999999998964, -0.5544192975688443 
1.0999999999998953, -0.5542471267241436 
1.1099999999998942, -0.5540096528327088 
1.119999999999893, -0.5537087330130005 
1.129999999999892, -0.5533511650164732 
1.1399999999998909, -0.5529469261009178 
1.1499999999998898, -0.5525093324327622 
1.1599999999998887, -0.5520575764269102 
1.1699999999998876, -0.5516219568758287 
1.1799999999998865, -0.5512521521353462 
1.1899999999998854, -0.5510284222857236 
1.1999999999998843, -0.551073523853348 
1.2099999999998832, -0.5515575902527974 
1.219999999999882, -0.552678111383004 
1.229999999999881, -0.5545883973810142 
1.2399999999998799, -0.5572665024741262 
1.2499999999998788, -0.5603988079566371 
1.2599999999998777, -0.5634443812070777 
1.2699999999998766, -0.5659309094056189 
1.2799999999998755, -0.5677146987563545 
1.2899999999998744, -0.5689381971380295 
1.2999999999998733, -0.5698124327000016 
1.3099999999998722, -0.570480455981005 
1.319999999999871, -0.5710073988708542 
1.32999999999987, -0.5714163479616025 
1.3399999999998689, -0.5717162581140319 
1.3499999999998678, -0.5719134519819584 
1.3599999999998666, -0.5720136213909324 
1.3699999999998655, -0.5720204841025354 
1.3799999999998644, -0.5719340052798393 
1.3899999999998633, -0.5717492538927246 
1.3999999999998622, -0.571456463178402 
1.4099999999998611, -0.571042987610843 
1.41999999999986, -0.5704978617097038 
1.429999999999859, -0.5698187598099123 
1.4399999999998578, -0.5690189707697803 
1.4499999999998567, -0.5681299135574148 
1.4599999999998556, -0.567195761458317 
1.4699999999998545, -0.5662618167781733 
1.4799999999998534, -0.5653630337468606 
1.4899999999998523, -0.5645185597888995 
1.4999999999998512, -0.5637334063725478 
1.5099999999998501, -0.5630043135606811 
1.519999999999849, -0.5623260993622775 
1.529999999999848, -0.5616963158697782 
1.5399999999998468, -0.5611179239580303 
1.5499999999998457, -0.5606007880047237 
1.5599999999998446, -0.5601629593917777 
1.5699999999998435, -0.5598323991536136 
1.5799999999998424, -0.559649413400753 
1.5899999999998413, -0.5596698019201912 
1.5999999999998402, -0.5599684848928155 
1.6099999999998391, -0.5606429710977865 
1.619999999999838, -0.5618151346016235 
1.629999999999837, -0.5636279282342227 
1.6399999999998358, -0.5662305996531141 
1.6499999999998347, -0.5697427765303347 
1.6599999999998336, -0.5741896747184165 
1.6699999999998325, -0.579418862900109 
1.6799999999998314, -0.585049310671788 
1.6899999999998303, -0.5905312481200227 
1.6999999999998292, -0.5953342972743754 
1.709999999999828, -0.5991451612272358 
1.719999999999827, -0.6019254565062891 
1.729999999999826, -0.6038229749085792 
1.7399999999998248, -0.6050463463194125 
1.7499999999998237, -0.6057845000106842 
1.7599999999998226, -0.6061783904096855 
1.7699999999998215, -0.6063212019179535 
1.7799999999998204, -0.6062671029741658 
1.7899999999998193, -0.606039232076847 
1.7999999999998182, -0.6056341411371277 
1.809999999999817, -0.605022729932623 
1.819999999999816, -0.6041492253486804 
1.8299999999998149, -0.6029318379458266 
1.8399999999998138, -0.6012719956837237 
1.8499999999998127, -0.5990811534062072 
1.8599999999998116, -0.5963277281640971 
1.8699999999998105, -0.5930855961243997 
1.8799999999998094, -0.5895449772963802 
1.8899999999998083, -0.5859624445848172 
1.8999999999998072, -0.5825784254648249 
1.909999999999806, -0.5795569469618189 
1.919999999999805, -0.5769732316440574 
1.9299999999998039, -0.5748347775937441 
1.9399999999998028, -0.5731106737969701 
1.9499999999998017, -0.5717544612100821 
1.9599999999998006, -0.5707175088741807 
1.9699999999997995, -0.5699552231192766 
1.9799999999997984, -0.569429198456709 
1.9899999999997973, -0.5691075568875383 
1.9999999999997962, -0.568964723637915 
2.0099999999998173, -0.5689811931512403 
2.0199999999998384, -0.5691434462415847 
2.0299999999998595, -0.5694439649858517 
2.0399999999998806, -0.5698811204166386 
2.0499999999999017, -0.5704584664627069 
2.059999999999923, -0.571182632084061 
2.069999999999944, -0.572058736552602 
2.079999999999965, -0.5730825624937811 
2.089999999999986, -0.5742303457922505 
2.100000000000007, -0.5754502448648626 
2.1100000000000283, -0.5766625796422422 
2.1200000000000494, -0.5777742814934723 
2.1300000000000705, -0.5787038021550492 
2.1400000000000916, -0.5794026474258093 
2.1500000000001127, -0.579860973541982 
2.160000000000134, -0.5800972686534563 
2.170000000000155, -0.580141948036511 
2.180000000000176, -0.5800237885046495 
2.190000000000197, -0.5797619887467936 
2.2000000000002182, -0.5793623215424205 
2.2100000000002393, -0.5788147324535893 
2.2200000000002604, -0.5780901305300887 
2.2300000000002815, -0.57713457528308 
2.2400000000003026, -0.5758592697542089 
2.2500000000003237, -0.5741255974351197 
2.260000000000345, -0.5717288938791164 
2.270000000000366, -0.5683987277161401 
2.280000000000387, -0.5638586602063802 
2.290000000000408, -0.5579914866432225 
2.3000000000004293, -0.5510577043196591 
2.3100000000004504, -0.5437482481396818 
2.3200000000004715, -0.5369157239797049 
2.3300000000004926, -0.5311878292476041 
2.3400000000005137, -0.5267921651131922 
2.3500000000005348, -0.5236385506424346 
2.360000000000556, -0.5214882339378648 
2.370000000000577, -0.5200805179442001 
2.380000000000598, -0.5191925076918656 
2.390000000000619, -0.5186545899627714 
2.4000000000006403, -0.5183458422433511 
2.4100000000006614, -0.5181834387194998 
2.4200000000006825, -0.5181121693064011 
2.4300000000007036, -0.5180960749511864 
2.4400000000007247, -0.518112514640582 
2.450000000000746, -0.5181484202189075 
2.460000000000767, -0.5181983066403699 
2.470000000000788, -0.518263391397449 
2.480000000000809, -0.5183508141111836 
2.49000000000083, -0.5184716508746684 
2.5000000000008513, -0.5186367048381414 
2.5100000000008724, -0.5188503047510599 
2.5200000000008935, -0.5191042000463709 
2.5300000000009146, -0.5193749302658122 
2.5400000000009357, -0.5196273508364275 
2.550000000000957, -0.5198237650676463 
2.560000000000978, -0.5199341713616462 
2.570000000000999, -0.5199421778562907 
2.58000000000102, -0.5198444581143604 
2.5900000000010412, -0.5196458549528747 
2.6000000000010624, -0.5193536711761471 
2.6100000000010835, -0.5189733793071074 
2.6200000000011046, -0.5185061625137537 
2.6300000000011257, -0.517947678255897 
2.6400000000011468, -0.5172870913770298 
2.650000000001168, -0.5165050802948772 
2.660000000001189, -0.5155685204286007 
2.67000000000121, -0.5144176143870507 
2.680000000001231, -0.5129400695163173 
2.6900000000012523, -0.5109347410099571 
2.7000000000012734, -0.5081007282488079 
2.7100000000012945, -0.504140231946171 
2.7200000000013156, -0.4990231031092085 
2.7300000000013367, -0.4932126076162917 
2.740000000001358, -0.48751766091340165 
2.750000000001379, -0.48264650310931945 
2.7600000000014, -0.47891349329561017 
2.770000000001421, -0.4762767584009839 
2.780000000001442, -0.47452082979201504 
2.7900000000014633, -0.4734020745657525 
2.8000000000014844, -0.4727155741447763 
2.8100000000015055, -0.4723103475806221 
2.8200000000015266, -0.4720827757349169 
2.8300000000015477, -0.47196466627235906 
2.840000000001569, -0.4719124155105597 
2.85000000000159, -0.4718989678254001 
2.860000000001611, -0.4719085455315108 
2.870000000001632, -0.47193366290547356 
2.8800000000016532, -0.47197381976580044 
2.8900000000016743, -0.4720350711718343 
2.9000000000016954, -0.47212931809377184 
2.9100000000017165, -0.4722719498917778 
2.9200000000017377, -0.4724769148341624 
2.9300000000017588, -0.4727496756707631 
2.94000000000178, -0.47308041036961956 
2.950000000001801, -0.4734411736644361 
2.960000000001822, -0.4737900955200005 
2.970000000001843, -0.4740821376108311 
2.9800000000018643, -0.47428123579573855 
2.9900000000018854, -0.4743673152118405 
3.0000000000019065, -0.474335556151146 
3.0100000000019276, -0.47419038827957155 
3.0200000000019487, -0.47393836824079993 
3.03000000000197, -0.47358241997121436 
3.040000000001991, -0.47311762076036973 
3.050000000002012, -0.4725273567553542 
3.060000000002033, -0.4717780848253411 
3.070000000002054, -0.4708104873505575 
3.0800000000020753, -0.4695244188034133 
3.0900000000020964, -0.46775636083061095 
3.1000000000021175, -0.46525667906100115 
3.1100000000021386, -0.4616989887900503 
3.1200000000021597, -0.45678764830850216 
3.130000000002181, -0.4504970674707603 
3.140000000002202, -0.4432887908273623 
3.150000000002223, -0.4360123956415617 
3.160000000002244, -0.42948977089249124 
3.1700000000022652, -0.42417431421879437 
3.1800000000022863, -0.4201262773772643 
3.1900000000023074, -0.41717659108331373 
3.2000000000023285, -0.4150862366953655 
3.2100000000023496, -0.41363301042555856 
3.2200000000023707, -0.41264090520357577 
3.230000000002392, -0.4119813116896375 
3.240000000002413, -0.41156473889954626 
3.250000000002434, -0.41133145373701685 
3.260000000002455, -0.4112438754309881 
3.2700000000024763, -0.4112812497095308 
3.2800000000024974, -0.4114363497789026 
3.2900000000025185, -0.41171371863472606 
3.3000000000025396, -0.4121287967642012 
3.3100000000025607, -0.4127069423921923 
3.3200000000025818, -0.4134807892222819 
3.330000000002603, -0.41448377715153306 
3.340000000002624, -0.4157376732540043 
3.350000000002645, -0.4172338890168069 
3.360000000002666, -0.4189141241884492 
3.3700000000026873, -0.42066393630574916 
3.3800000000027084, -0.4223337096848899 
3.3900000000027295, -0.42378419730429345 
3.4000000000027506, -0.42492942348358326 
3.4100000000027717, -0.4257494107008076 
3.420000000002793, -0.42627226256070455 
3.430000000002814, -0.42654585146910123 
3.440000000002835, -0.42661601381965386 
3.450000000002856, -0.42651524674678515 
3.460000000002877, -0.4262584174231798 
3.4700000000028983, -0.42584115128479205 
3.4800000000029194, -0.4252383818166251 
3.4900000000029405, -0.42440282909129146 
3.5000000000029616, -0.4232659222642666 
3.5100000000029827, -0.42174717884409463 
3.520000000003004, -0.41978004505236444 
3.530000000003025, -0.41735544065058805 
3.540000000003046, -0.4145630624042034 
3.550000000003067, -0.41159186391539687 
3.5600000000030882, -0.40867220487210576 
3.5700000000031094, -0.40599605194129557 
3.5800000000031305, -0.4036702426344173 
3.5900000000031516, -0.40171925984406426 
3.6000000000031727, -0.4001149985959095 
3.6100000000031938, -0.3988074980107191 
3.620000000003215, -0.3977453751161229 
3.630000000003236, -0.3968860303562092 
3.640000000003257, -0.3961993870030906 
3.650000000003278, -0.3956686445043257 
3.6600000000032993, -0.3952903126454793 
3.6700000000033204, -0.3950748077592006 
3.6800000000033415, -0.3950483281090464 
3.6900000000033626, -0.3952564614014717 
3.7000000000033837, -0.3957697856810412 
3.710000000003405, -0.3966912435563349 
3.720000000003426, -0.3981636193137542 
3.730000000003447, -0.4003717898278499 
3.740000000003468, -0.4035270297125197 
3.750000000003489, -0.407810687393049 
3.7600000000035103, -0.4132553447312287 
3.7700000000035314, -0.4195879431645858 
3.7800000000035525, -0.42616611414356587 
3.7900000000035736, -0.43217462425472997 
3.8000000000035947, -0.4370118127424303 
3.810000000003616, -0.44051988645220586 
3.820000000003637, -0.4428880020826093 
3.830000000003658, -0.4444215955834916 
3.840000000003679, -0.4453904150387545 
3.8500000000037002, -0.4459851406583598 
3.8600000000037213, -0.44632731783482094 
3.8700000000037424, -0.44649036613015236 
3.8800000000037635, -0.44651645190182715 
3.8900000000037847, -0.446427343449058 
3.9000000000038058, -0.4462310962451899 
3.910000000003827, -0.44592680163080517 
3.920000000003848, -0.4455093267441267 
3.930000000003869, -0.4449753703237159 
3.94000000000389, -0.44433076814785083 
3.9500000000039113, -0.4435966435087385 
3.9600000000039324, -0.4428102370442847 
3.9700000000039535, -0.4420178409392249 
3.9800000000039746, -0.441262391716462 
3.9900000000039957, -0.4405723107791193 
4.000000000004016, -0.4399569379140026 
4.010000000003993, -0.4394091994564427 
4.02000000000397, -0.4389125313588898 
4.030000000003946, -0.4384483013012175 
4.040000000003923, -0.4380011491424559 
4.0500000000039, -0.4375615061675059 
4.0600000000038765, -0.43712605980256314 
4.070000000003853, -0.4366975435653858 
4.08000000000383, -0.43628507457576965 
4.090000000003807, -0.4359058503203387 
4.100000000003783, -0.4355887171276131 
4.11000000000376, -0.4353799027012105 
4.120000000003737, -0.43535061126758456 
4.130000000003713, -0.43560417991900435 
4.14000000000369, -0.4362752050218216 
4.150000000003667, -0.4375026638656686 
4.1600000000036434, -0.43934861723164004 
4.17000000000362, -0.44165340056600727 
4.180000000003597, -0.44392140745018904 
4.1900000000035735, -0.4454638119567608 
4.20000000000355, -0.44585621960223537 
4.210000000003527, -0.4452617475104127 
4.220000000003504, -0.44421608623076575 
4.23000000000348, -0.44319328960396065 
4.240000000003457, -0.44241491530255683 
4.250000000003434, -0.4419069133710454 
4.26000000000341, -0.4416110769453928 
4.270000000003387, -0.4414553164905044 
4.280000000003364, -0.44138073846807846 
4.2900000000033405, -0.44134625068386957 
4.300000000003317, -0.44132532562596716 
4.310000000003294, -0.4413015368694516 
4.320000000003271, -0.4412651245081197 
4.330000000003247, -0.4412111166167687 
4.340000000003224, -0.44113895227455124 
4.350000000003201, -0.4410532244060361 
4.360000000003177, -0.4409646900521332 
4.370000000003154, -0.4408901618358952 
4.380000000003131, -0.44084984834967955 
4.390000000003107, -0.4408617117447332 
4.400000000003084, -0.4409342346797069 
4.410000000003061, -0.44106056881179195 
4.4200000000030375, -0.4412173150890014 
4.430000000003014, -0.4413695828834242 
4.440000000002991, -0.4414806559083001 
4.450000000002968, -0.441521505670538 
4.460000000002944, -0.44147550415081555 
4.470000000002921, -0.4413371925020405 
4.480000000002898, -0.4411074154252169 
4.490000000002874, -0.44078781036182113 
4.500000000002851, -0.4403761875526927 
4.510000000002828, -0.43986265695496496 
4.520000000002804, -0.4392252967829178 
4.530000000002781, -0.43842346182843805 
4.540000000002758, -0.43738608380889676 
4.5500000000027345, -0.4359919634232406 
4.560000000002711, -0.434042246475476 
4.570000000002688, -0.4312406146887196 
4.580000000002665, -0.4272326699766936 
4.590000000002641, -0.42178058871897306 
4.600000000002618, -0.4150460540785195 
4.610000000002595, -0.4077119943841746 
4.620000000002571, -0.40069729047761315 
4.630000000002548, -0.3946958597447889 
4.640000000002525, -0.3899685788284863 
4.6500000000025015, -0.3864420537434379 
4.660000000002478, -0.3838961176734916 
4.670000000002455, -0.38209336948550193 
4.6800000000024315, -0.3808345719150382 
4.690000000002408, -0.3799704056908683 
4.700000000002385, -0.37939582831873997 
4.710000000002362, -0.3790404183985045 
4.720000000002338, -0.3788597849538913 
4.730000000002315, -0.3788293623617007 
4.740000000002292, -0.37894055790195436 
4.750000000002268, -0.37919882963406976 
4.760000000002245, -0.37962312309691354 
4.770000000002222, -0.3802458235176725 
4.7800000000021985, -0.3811117716601048 
4.790000000002175, -0.3822738566931211 
4.800000000002152, -0.38378152097630047 
4.810000000002129, -0.3856585803432366 
4.820000000002105, -0.38787146611655177 
4.830000000002082, -0.39030163646348387 
4.840000000002059, -0.39274973125025875 
4.850000000002035, -0.3949899370605229 
4.860000000002012, -0.39684973820563274 
4.870000000001989, -0.3982585428963211 
4.880000000001965, -0.39923780598632813 
4.890000000001942, -0.3998573905049513 
