t, s[1].omega / s[0].omega 
0, -0.7099976878244109 
0.009999999999999995, -0.709749982273885 
0.019999999999999934, -0.7094675292686388 
0.029999999999999874, -0.709145551598165 
0.04000000000000012, -0.7087801079805961 
0.050000000000000405, -0.7083714545151456 
0.06000000000000069, -0.7079258451526911 
0.07000000000000098, -0.7074559820235115 
0.08000000000000126, -0.706981262882037 
0.09000000000000155, -0.7065287929982167 
0.10000000000000184, -0.7061353769130398 
0.11000000000000212, -0.7058499743354949 
0.12000000000000241, -0.7057356228891525 
0.130000000000002, -0.705869634128098 
0.1400000000000009, -0.7063409616559412 
0.1499999999999998, -0.7072439205247849 
0.1599999999999987, -0.7086676109967643 
0.1699999999999976, -0.7106802009634341 
0.1799999999999965, -0.7133070615116854 
0.1899999999999954, -0.7165034328704218 
0.1999999999999943, -0.7201285806277278 
0.2099999999999932, -0.7239391210101085 
0.2199999999999921, -0.727624085129029 
0.229999999999991, -0.730885130577419 
0.2399999999999899, -0.7335245434504395 
0.2499999999999888, -0.7354857070844988 
0.2599999999999877, -0.7368276565557121 
0.2699999999999866, -0.7376658847203499 
0.2799999999999855, -0.7381206525828704 
0.2899999999999844, -0.7382895187369888 
0.2999999999999833, -0.7382393712008744 
0.3099999999999822, -0.7380077111264789 
0.3199999999999811, -0.737605902484089 
0.32999999999998, -0.737020930020916 
0.3399999999999789, -0.7362145294189542 
0.3499999999999778, -0.7351197556978315 
0.35999999999997667, -0.7336361483268842 
0.36999999999997557, -0.7316267895302773 
0.37999999999997447, -0.7289251867802076 
0.38999999999997337, -0.7253678134769279 
0.39999999999997227, -0.7208732911491293 
0.40999999999997117, -0.7155672155840448 
0.41999999999997006, -0.7098769891438839 
0.42999999999996896, -0.704459906909339 
0.43999999999996786, -0.6999388984579039 
0.44999999999996676, -0.6966411796405583 
0.45999999999996566, -0.6945411055174834 
0.46999999999996456, -0.6933879763794387 
0.47999999999996346, -0.6928702381262879 
0.48999999999996235, -0.6927192200325946 
0.49999999999996125, -0.6927436442447338 
0.5099999999999602, -0.6928235186448393 
0.519999999999959, -0.6928899449913605 
0.529999999999958, -0.6929049595054648 
0.5399999999999568, -0.6928461752356381 
0.5499999999999557, -0.6926965377206773 
0.5599999999999546, -0.6924382680873074 
0.5699999999999535, -0.6920503863754326 
0.5799999999999524, -0.6915099777058663 
0.5899999999999513, -0.6907976284688812 
0.5999999999999502, -0.6899062153094095 
0.6099999999999491, -0.6888493702235103 
0.619999999999948, -0.6876638720485353 
0.6299999999999469, -0.6864026462714075 
0.6399999999999458, -0.685121578129838 
0.6499999999999447, -0.6838677028421476 
0.6599999999999436, -0.6826741730933414 
0.6699999999999425, -0.6815619125534915 
0.6799999999999414, -0.6805444902549411 
0.6899999999999403, -0.6796328860624384 
0.6999999999999392, -0.6788385377073055 
0.7099999999999381, -0.6781744957236058 
0.719999999999937, -0.6776551434018458 
0.7299999999999359, -0.6772950606210919 
0.7399999999999348, -0.6771075812827501 
0.7499999999999337, -0.6771035374860105 
0.7599999999999326, -0.6772905558236244 
0.7699999999999315, -0.6776730179410828 
0.7799999999999304, -0.6782524356869414 
0.7899999999999293, -0.6790275960410802 
0.7999999999999282, -0.6799935056081957 
0.8099999999999271, -0.6811380893112187 
0.819999999999926, -0.6824361576890826 
0.8299999999999249, -0.6838418970203962 
0.8399999999999238, -0.6852840620691574 
0.8499999999999227, -0.6866702103307162 
0.8599999999999216, -0.6879036468403888 
0.8699999999999205, -0.6889077223056923 
0.8799999999999194, -0.6896439814054032 
0.8899999999999183, -0.6901137948053815 
0.8999999999999172, -0.6903454883349502 
0.9099999999999161, -0.6903772582126738 
0.919999999999915, -0.6902442668426322 
0.9299999999999139, -0.6899721999820392 
0.9399999999999128, -0.6895757482991705 
0.9499999999999117, -0.6890599613028747 
0.9599999999999106, -0.6884234795219663 
0.9699999999999095, -0.687663884288564 
0.9799999999999084, -0.6867861548509306 
0.9899999999999073, -0.6858148030657945 
0.9999999999999062, -0.6848073596334857 
1.0099999999999052, -0.6838603859615853 
1.019999999999904, -0.6830924886764318 
1.029999999999903, -0.6825964360388201 
1.039999999999902, -0.6823893342647938 
1.0499999999999008, -0.6824209715848372 
1.0599999999998997, -0.6826428848723477 
1.0699999999998986, -0.6830444735689886 
1.0799999999998975, -0.6836115770958199 
1.0899999999998964, -0.6842849837831768 
1.0999999999998953, -0.6849749314977738 
1.1099999999998942, -0.685600039348647 
1.119999999999893, -0.6861095825976948 
1.129999999999892, -0.6864831576170054 
1.1399999999998909, -0.6867197208452006 
1.1499999999998898, -0.6868259927581357 
1.1599999999998887, -0.6868079188283769 
1.1699999999998876, -0.686665192515681 
1.1799999999998865, -0.6863878664249065 
1.1899999999998854, -0.6859545366318333 
1.1999999999998843, -0.685332700372297 
1.2099999999998832, -0.6844831504102606 
1.219999999999882, -0.6833706303242896 
1.229999999999881, -0.6819805393529773 
1.2399999999998799, -0.6803355317528601 
1.2499999999998788, -0.6785009094141846 
1.2599999999998777, -0.6765718806341628 
1.2699999999998766, -0.6746487558261413 
1.2799999999998755, -0.6728147393858478 
1.2899999999998744, -0.6711262663668535 
1.2999999999998733, -0.6696151953795415 
1.3099999999998722, -0.6682964316015632 
1.319999999999871, -0.6671753671334052 
1.32999999999987, -0.6662527037993817 
1.3399999999998689, -0.6655266119757066 
1.3499999999998678, -0.6649931668479669 
1.3599999999998666, -0.6646461041961204 
1.3699999999998655, -0.6644766721429742 
1.3799999999998644, -0.664473987189745 
1.3899999999998633, -0.6646259448573111 
1.3999999999998622, -0.664920451656198 
1.4099999999998611, -0.6653465620677612 
1.41999999999986, -0.6658949905672991 
1.429999999999859, -0.6665573759285119 
1.4399999999998578, -0.6673236665069717 
1.4499999999998567, -0.6681773765289326 
1.4599999999998556, -0.6690896732795063 
1.4699999999998545, -0.6700152527178608 
1.4799999999998534, -0.6708943223541636 
1.4899999999998523, -0.6716631310876673 
1.4999999999998512, -0.6722696486706209 
1.5099999999998501, -0.6726858209447618 
1.519999999999849, -0.6729095820066995 
1.529999999999848, -0.6729573629817468 
1.5399999999998468, -0.6728533029116112 
1.5499999999998457, -0.6726207423091319 
1.5599999999998446, -0.6722780238112027 
1.5699999999998435, -0.6718381669111319 
1.5799999999998424, -0.6713115736244057 
1.5899999999998413, -0.6707116347694237 
1.5999999999998402, -0.6700639317846876 
1.6099999999998391, -0.6694198500879506 
1.619999999999838, -0.6688736651304733 
1.629999999999837, -0.6685767017916777 
1.6399999999998358, -0.6687320930000726 
1.6499999999998347, -0.6695451910796 
1.6599999999998336, -0.6711197557595441 
1.6699999999998325, -0.6733513636588735 
1.6799999999998314, -0.6759298878480184 
1.6899999999998303, -0.6784917178483878 
1.6999999999998292, -0.6807866180801649 
1.709999999999828, -0.6827154629174859 
1.719999999999827, -0.6842706136207719 
1.729999999999826, -0.6854794398725867 
1.7399999999998248, -0.6863811828838198 
1.7499999999998237, -0.6870194464895577 
1.7599999999998226, -0.6874368907184223 
1.7699999999998215, -0.687670216613591 
1.7799999999998204, -0.6877464676302791 
1.7899999999998193, -0.6876807578471269 
1.7999999999998182, -0.6874747808000687 
1.809999999999817, -0.6871155596161636 
1.819999999999816, -0.6865746466131102 
1.8299999999998149, -0.6858092441851313 
1.8399999999998138, -0.6847682037908575 
1.8499999999998127, -0.6834062100621636 
1.8599999999998116, -0.6817059635838937 
1.8699999999998105, -0.6796998146255169 
1.8799999999998094, -0.6774756510211027 
1.8899999999998083, -0.6751583434548596 
1.8999999999998072, -0.6728762155340023 
1.909999999999806, -0.6707325641145963 
1.919999999999805, -0.6687943815868176 
1.9299999999998039, -0.6670960867523285 
1.9399999999998028, -0.6656494895854019 
1.9499999999998017, -0.6644531031336399 
1.9599999999998006, -0.6634981875297362 
1.9699999999997995, -0.6627717660046203 
1.9799999999997984, -0.6622578572809151 
1.9899999999997973, -0.6619381036085252 
1.9999999999997962, -0.6617925205947919 
2.0099999999998173, -0.6618006112992626 
2.0199999999998384, -0.6619427314480297 
2.0299999999998595, -0.6622014142275143 
2.0399999999998806, -0.6625623191496954 
2.0499999999999017, -0.6630144506614313 
2.059999999999923, -0.6635492137122544 
2.069999999999944, -0.6641578215346463 
2.079999999999965, -0.6648268910296329 
2.089999999999986, -0.6655331608580843 
2.100000000000007, -0.6662399841325448 
2.1100000000000283, -0.6668991819702188 
2.1200000000000494, -0.6674599062047946 
2.1300000000000705, -0.6678812711304338 
2.1400000000000916, -0.6681417713876823 
2.1500000000001127, -0.6682404508410593 
2.160000000000134, -0.6681908186259747 
2.170000000000155, -0.668012492711652 
2.180000000000176, -0.6677248923242156 
2.190000000000197, -0.6673446081638897 
2.2000000000002182, -0.666886317931181 
2.2100000000002393, -0.6663669111152639 
2.2200000000002604, -0.6658130909903688 
2.2300000000002815, -0.6652732439309192 
2.2400000000003026, -0.6648338918808697 
2.2500000000003237, -0.6646381860259729 
2.260000000000345, -0.6648967997165001 
2.270000000000366, -0.6658701489964092 
2.280000000000387, -0.6677939132593753 
2.290000000000408, -0.6707431078440818 
2.3000000000004293, -0.674505416706759 
2.3100000000004504, -0.6786006883050616 
2.3200000000004715, -0.6824911101474138 
2.3300000000004926, -0.6858136362172759 
2.3400000000005137, -0.6884466629912466 
2.3500000000005348, -0.6904307130588487 
2.360000000000556, -0.6918699531793865 
2.370000000000577, -0.6928756883117487 
2.380000000000598, -0.6935446174840028 
2.390000000000619, -0.6939528948292204 
2.4000000000006403, -0.6941557814305742 
2.4100000000006614, -0.694188934403918 
2.4200000000006825, -0.6940696854964211 
2.4300000000007036, -0.6937975149941231 
2.4400000000007247, -0.69335356453018 
2.450000000000746, -0.6926999403559001 
2.460000000000767, -0.6917810461885716 
2.470000000000788, -0.6905310651489742 
2.480000000000809, -0.6888921944460996 
2.49000000000083, -0.6868435218604498 
2.5000000000008513, -0.6844289911123945 
2.5100000000008724, -0.6817639806873432 
2.5200000000008935, -0.6790094779382028 
2.5300000000009146, -0.6763276409866665 
2.5400000000009357, -0.6738455391007081 
2.550000000000957, -0.6716419029570635 
2.560000000000978, -0.6697527764254082 
2.570000000000999, -0.6681844350465582 
2.58000000000102, -0.6669251780051664 
2.5900000000010412, -0.6659531715273237 
2.6000000000010624, -0.6652408795403792 
2.6100000000010835, -0.6647575829047087 
2.6200000000011046, -0.6644712044338295 
2.6300000000011257, -0.6643500264907032 
2.6400000000011468, -0.664364367283137 
2.650000000001168, -0.6644880287032414 
2.660000000001189, -0.664699314319305 
2.67000000000121, -0.6649814980155696 
2.680000000001231, -0.6653226309684053 
2.6900000000012523, -0.6657144285679713 
2.7000000000012734, -0.6661498253961884 
2.7100000000012945, -0.6666190264680844 
2.7200000000013156, -0.6671048858209592 
2.7300000000013367, -0.6675799144443421 
2.740000000001358, -0.6680078021443491 
2.750000000001379, -0.668350462118373 
2.7600000000014, -0.668577706236007 
2.770000000001421, -0.6686741611131786 
2.780000000001442, -0.66863993949818 
2.7900000000014633, -0.6684861312293078 
2.8000000000014844, -0.6682289264618045 
2.8100000000015055, -0.6678856115290308 
2.8200000000015266, -0.6674737856246864 
2.8300000000015477, -0.6670139731703771 
2.840000000001569, -0.6665357125974649 
2.85000000000159, -0.6660875570541311 
2.860000000001611, -0.6657514016046238 
2.870000000001632, -0.6656601856979047 
2.8800000000016532, -0.6660139781263111 
2.8900000000016743, -0.6670814580151847 
2.9000000000016954, -0.6691632828992542 
2.9100000000017165, -0.6724915939905027 
2.9200000000017377, -0.6770715162224532 
2.9300000000017588, -0.6825518050613801 
2.94000000000178, -0.6882728208624832 
2.950000000001801, -0.6935315519281221 
2.960000000001822, -0.6978703859955651 
2.970000000001843, -0.7011661110481804 
2.9800000000018643, -0.7035258384663369 
2.9900000000018854, -0.7051427974702815 
3.0000000000019065, -0.7062059737702919 
3.0100000000019276, -0.7068660927746615 
3.0200000000019487, -0.7072313165505992 
3.03000000000197, -0.7073730014055123 
3.040000000001991, -0.7073325137229569 
3.050000000002012, -0.7071259646949762 
3.060000000002033, -0.7067461167964857 
3.070000000002054, -0.7061617495095798 
3.0800000000020753, -0.7053158271361044 
3.0900000000020964, -0.70412580453363 
3.1000000000021175, -0.7024924574065445 
3.1100000000021386, -0.7003253034236683 
3.1200000000021597, -0.6975865274146085 
3.130000000002181, -0.6943368285454643 
3.140000000002202, -0.6907492133788914 
3.150000000002223, -0.6870694513606704 
3.160000000002244, -0.6835439721145249 
3.1700000000022652, -0.6803602525984529 
3.1800000000022863, -0.6776252139917343 
3.1900000000023074, -0.6753748287589183 
3.2000000000023285, -0.6735957294780298 
3.2100000000023496, -0.672245411182939 
3.2200000000023707, -0.6712666867995337 
3.230000000002392, -0.670597042851617 
3.240000000002413, -0.6701746845566003 
3.250000000002434, -0.6699425302918901 
3.260000000002455, -0.6698507045106651 
3.2700000000024763, -0.6698577379761195 
3.2800000000024974, -0.6699307023439063 
3.2900000000025185, -0.6700446544480595 
3.3000000000025396, -0.670181814615528 
3.3100000000025607, -0.6703307149589846 
3.3200000000025818, -0.6704851352818144 
3.330000000002603, -0.6706422401843743 
3.340000000002624, -0.6707994278464107 
3.350000000002645, -0.6709503505450911 
3.360000000002666, -0.6710819257741769 
3.3700000000026873, -0.671174603196834 
3.3800000000027084, -0.6712066306196027 
3.3900000000027295, -0.6711603160932115 
3.4000000000027506, -0.6710267719355898 
3.4100000000027717, -0.6708069692983285 
3.420000000002793, -0.6705097784675427 
3.430000000002814, -0.6701493844441352 
3.440000000002835, -0.6697442279420289 
3.450000000002856, -0.6693185552180905 
3.460000000002877, -0.668906889947498 
3.4700000000028983, -0.668561428942129 
3.4800000000029194, -0.6683620635052478 
3.4900000000029405, -0.6684278714219671 
3.5000000000029616, -0.6689269867425268 
3.5100000000029827, -0.6700783273487875 
3.520000000003004, -0.6721338941469477 
3.530000000003025, -0.6753265672139398 
3.540000000003046, -0.6797733491764599 
3.550000000003067, -0.6853522108721404 
3.5600000000030882, -0.6916255689146857 
3.5700000000031094, -0.6979142402529813 
3.5800000000031305, -0.7035388312531277 
3.5900000000031516, -0.7080739136866886 
3.6000000000031727, -0.7114296087121732 
3.6100000000031938, -0.7137520893497885 
3.620000000003215, -0.7152745517841471 
3.630000000003236, -0.716217566903084 
3.640000000003257, -0.7167509000708572 
3.650000000003278, -0.7169905781081819 
3.6600000000032993, -0.7170078596359387 
3.6700000000033204, -0.7168385256383691 
3.6800000000033415, -0.7164884913578806 
3.6900000000033626, -0.7159349096005072 
3.7000000000033837, -0.7151231099131634 
3.710000000003405, -0.7139609368634333 
3.720000000003426, -0.7123150308210264 
3.730000000003447, -0.710019410871171 
3.740000000003468, -0.706912645661166 
3.750000000003489, -0.7029139059951794 
3.7600000000035103, -0.6981146634106057 
3.7700000000035314, -0.6928180542738434 
3.7800000000035525, -0.6874686482104886 
3.7900000000035736, -0.6825049528275428 
3.8000000000035947, -0.6782341881132357 
3.810000000003616, -0.674791737312859 
3.820000000003637, -0.6721708521611578 
3.830000000003658, -0.6702774586826693 
3.840000000003679, -0.668978939939885 
3.8500000000037002, -0.6681370675292686 
3.8600000000037213, -0.6676264820811284 
3.8700000000037424, -0.6673429119443706 
3.8800000000037635, -0.6672048492581102 
3.8900000000037847, -0.6671514456772386 
3.9000000000038058, -0.6671386524689662 
3.910000000003827, -0.6671350816171708 
3.920000000003848, -0.6671186052535284 
3.930000000003869, -0.6670742677669022 
3.94000000000389, -0.6669935509999386 
3.9500000000039113, -0.6668743371156747 
3.9600000000039324, -0.666720289996445 
3.9700000000039535, -0.6665384723703556 
3.9800000000039746, -0.6663352845388161 
3.9900000000039957, -0.666112544830595 
4.000000000004016, -0.6658660971452697 
4.010000000003993, -0.6655879041112891 
4.02000000000397, -0.6652702838646716 
4.030000000003946, -0.6649098056305505 
4.040000000003923, -0.6645092429984274 
4.0500000000039, -0.664077810476688 
4.0600000000038765, -0.6636310415802327 
4.070000000003853, -0.6631915994987005 
4.08000000000383, -0.6627916318405969 
4.090000000003807, -0.662476615640859 
4.100000000003783, -0.6623101419196854 
4.11000000000376, -0.6623786282560427 
4.120000000003737, -0.6627943744119323 
4.130000000003713, -0.6636945829016232 
4.14000000000369, -0.6652328400613201 
4.150000000003667, -0.6675581509577709 
4.1600000000036434, -0.6707760480608049 
4.17000000000362, -0.6748903456177211 
4.180000000003597, -0.6797392834857512 
4.1900000000035735, -0.6849664388014359 
4.20000000000355, -0.6900794136841892 
4.210000000003527, -0.6946025612889731 
4.220000000003504, -0.6982375753364355 
4.23000000000348, -0.7009212730853726 
4.240000000003457, -0.7027644510516837 
4.250000000003434, -0.7039481961223789 
4.26000000000341, -0.7046476031197287 
4.270000000003387, -0.7049988088318905 
4.280000000003364, -0.7050939812241206 
4.2900000000033405, -0.7049868898878655 
4.300000000003317, -0.7046992145714371 
4.310000000003294, -0.7042236528036707 
4.320000000003271, -0.7035226363593169 
4.330000000003247, -0.7025226183095057 
4.340000000003224, -0.7011053356158563 
4.350000000003201, -0.699101297593488 
4.360000000003177, -0.6962989033325597 
4.370000000003154, -0.6924923441807096 
4.380000000003131, -0.6875858021923636 
4.390000000003107, -0.6817232453575649 
4.400000000003084, -0.6753410206625732 
4.410000000003061, -0.6690532931172464 
4.4200000000030375, -0.6634262648981576 
4.430000000003014, -0.6588042015514655 
4.440000000002991, -0.6552775072268601 
4.450000000002968, -0.652753235064331 
4.460000000002944, -0.6510486085319415 
4.470000000002921, -0.6499616265612964 
4.480000000002898, -0.6493101890407786 
4.490000000002874, -0.6489474975604753 
4.500000000002851, -0.648763554758339 
4.510000000002828, -0.6486800122370885 
4.520000000002804, -0.6486428023852826 
4.530000000002781, -0.6486149912368206 
4.540000000002758, -0.6485710717021352 
4.5500000000027345, -0.64849323854118 
4.560000000002711, -0.648369761431589 
4.570000000002688, -0.6481950855989405 
4.580000000002665, -0.6479705770548863 
4.590000000002641, -0.6477042262052316 
4.600000000002618, -0.6474079666894584 
4.610000000002595, -0.6470929572936129 
4.620000000002571, -0.646765115484442 
4.630000000002548, -0.6464235149809465 
4.640000000002525, -0.6460624692900587 
4.6500000000025015, -0.6456757715111026 
4.660000000002478, -0.645260627937151 
4.670000000002455, -0.6448198133203481 
4.6800000000024315, -0.6443622815668499 
4.690000000002408, -0.6439034463884004 
4.700000000002385, -0.6434662599971094 
4.710000000002362, -0.6430836185385111 
4.720000000002338, -0.6428020459857988 
4.730000000002315, -0.6426861789558553 
4.740000000002292, -0.6428231711473201 
4.750000000002268, -0.6433255909286382 
4.760000000002245, -0.6443305186661984 
4.770000000002222, -0.6459911587478304 
4.7800000000021985, -0.6484554324074229 
4.790000000002175, -0.6518251343795557 
4.800000000002152, -0.6560939661317093 
4.810000000002129, -0.6610805823819395 
4.820000000002105, -0.6664027514048929 
4.830000000002082, -0.6715490162095278 
4.840000000002059, -0.6760455701001058 
4.850000000002035, -0.6796167024960357 
4.860000000002012, -0.6822273095876912 
4.870000000001989, -0.6840073481923353 
4.880000000001965, -0.6851449194672792 
4.890000000001942, -0.6858142370160764 
4.900000000001919, -0.6861475539459115 
4.9100000000018955, -0.6862329260522879 
4.920000000001872, -0.6861207214336353 
