t, s[1].omega / s[0].omega 
0, -0.589997730082331 
0.009999999999999995, -0.5897727506194297 
0.019999999999999934, -0.5895471285314628 
0.029999999999999874, -0.5893091915093567 
0.04000000000000012, -0.5890453514764581 
0.050000000000000405, -0.5887452855632129 
0.06000000000000069, -0.5884048727351322 
0.07000000000000098, -0.5880266091149651 
0.08000000000000126, -0.5876188551006848 
0.09000000000000155, -0.5871955851493871 
0.10000000000000184, -0.5867777833156893 
0.11000000000000212, -0.5863970685959687 
0.12000000000000241, -0.5861018618606195 
0.130000000000002, -0.5859662347992968 
0.1400000000000009, -0.5861010603933549 
0.1499999999999998, -0.5866655319123598 
0.1599999999999987, -0.5878735215530171 
0.1699999999999976, -0.5899826233740891 
0.1799999999999965, -0.5932454466095642 
0.1899999999999954, -0.5978029772559644 
0.1999999999999943, -0.6035333151125739 
0.2099999999999932, -0.609950296317371 
0.2199999999999921, -0.6162992785932783 
0.229999999999991, -0.6218653746118965 
0.2399999999999899, -0.6262619783350516 
0.2499999999999888, -0.6294725546630264 
0.2599999999999877, -0.6316955038107009 
0.2699999999999866, -0.6331787606498835 
0.2799999999999855, -0.6341342290040426 
0.2899999999999844, -0.6347167901477457 
0.2999999999999833, -0.6350306539969026 
0.3099999999999822, -0.6351412164077332 
0.3199999999999811, -0.6350846995335939 
0.32999999999998, -0.6348741362228998 
0.3399999999999789, -0.6345022514842986 
0.3499999999999778, -0.6339425188373082 
0.35999999999997667, -0.6331505656621101 
0.36999999999997557, -0.6320695521505195 
0.37999999999997447, -0.6306441384705751 
0.38999999999997337, -0.6288450592444387 
0.39999999999997227, -0.626697120168268 
0.40999999999997117, -0.624292492984777 
0.41999999999997006, -0.6217738210480052 
0.42999999999996896, -0.6192935094136682 
0.43999999999996786, -0.6169746443208897 
0.44999999999996676, -0.6148933736558119 
0.45999999999996566, -0.6130828066421661 
0.46999999999996456, -0.6115469534057825 
0.47999999999996346, -0.6102745451966505 
0.48999999999996235, -0.6092484635017148 
0.49999999999996125, -0.6084507129082583 
0.5099999999999602, -0.6078644158766324 
0.519999999999959, -0.6074743254288403 
0.529999999999958, -0.6072668780418146 
0.5399999999999568, -0.6072303252890173 
0.5499999999999557, -0.6073551206089831 
0.5599999999999546, -0.6076344904143305 
0.5699999999999535, -0.6080649341298014 
0.5799999999999524, -0.6086462047429176 
0.5899999999999513, -0.6093800722896286 
0.5999999999999502, -0.6102669490265745 
0.6099999999999491, -0.6112996144318709 
0.619999999999948, -0.6124544635824799 
0.6299999999999469, -0.6136833404347894 
0.6399999999999458, -0.6149120180733554 
0.6499999999999447, -0.6160511015403628 
0.6599999999999436, -0.6170180865652918 
0.6699999999999425, -0.6177593342217824 
0.6799999999999414, -0.6182589345197698 
0.6899999999999403, -0.6185315088939541 
0.6999999999999392, -0.6186068653785882 
0.7099999999999381, -0.6185159137385752 
0.719999999999937, -0.6182819848520185 
0.7299999999999359, -0.6179169106901133 
0.7399999999999348, -0.6174195881599805 
0.7499999999999337, -0.6167750707816892 
0.7599999999999326, -0.6159529252344262 
0.7699999999999315, -0.6149039333540387 
0.7799999999999304, -0.6135541548811827 
0.7899999999999293, -0.611795603455042 
0.7999999999999282, -0.6094761595498408 
0.8099999999999271, -0.6064041184982611 
0.819999999999926, -0.6024059010373489 
0.8299999999999249, -0.5974717796273605 
0.8399999999999238, -0.591921057545094 
0.8499999999999227, -0.5863853882330301 
0.8599999999999216, -0.5815302620500675 
0.8699999999999205, -0.5777514156085479 
0.8799999999999194, -0.5750972289492614 
0.8899999999999183, -0.5733883483102178 
0.8999999999999172, -0.572370738485711 
0.9099999999999161, -0.5718107659772135 
0.919999999999915, -0.5715296921821575 
0.9299999999999139, -0.5714041145597385 
0.9399999999999128, -0.5713539477118437 
0.9499999999999117, -0.5713289066889045 
0.9599999999999106, -0.5712974838621335 
0.9699999999999095, -0.5712392215298928 
0.9799999999999084, -0.5711400347663915 
0.9899999999999073, -0.5709901830917982 
0.9999999999999062, -0.57078446380789 
1.0099999999999052, -0.5705238422085446 
1.019999999999904, -0.5702169841872834 
1.029999999999903, -0.5698796586024477 
1.039999999999902, -0.5695307956242025 
1.0499999999999008, -0.5691862549334413 
1.0599999999998997, -0.5688533989992197 
1.0699999999998986, -0.5685294365252431 
1.0799999999998975, -0.5682042142215339 
1.0899999999998964, -0.5678655523278562 
1.0999999999998953, -0.5675042131356081 
1.1099999999998942, -0.5671166246326632 
1.119999999999893, -0.5667054141450205 
1.129999999999892, -0.5662790954755984 
1.1399999999998909, -0.5658523788526111 
1.1499999999998898, -0.565448084170123 
1.1599999999998887, -0.565101192308571 
1.1699999999998876, -0.5648653566273746 
1.1799999999998865, -0.5648219972500989 
1.1899999999998854, -0.5650914423022954 
1.1999999999998843, -0.5658436898021305 
1.2099999999998832, -0.5673020705678697 
1.219999999999882, -0.5697254578110125 
1.229999999999881, -0.5733463480154606 
1.2399999999998799, -0.5782474427255265 
1.2499999999998788, -0.5842072774047853 
1.2599999999998777, -0.5906373535619381 
1.2699999999998766, -0.5967522876723851 
1.2799999999998755, -0.6019142540998906 
1.2899999999998744, -0.6058662481158058 
1.2999999999998733, -0.6086901102485339 
1.3099999999998722, -0.6106212022698712 
1.319999999999871, -0.6119022398779219 
1.32999999999987, -0.6127245181921558 
1.3399999999998689, -0.6132220194962181 
1.3499999999998678, -0.6134826918173903 
1.3599999999998666, -0.6135605863725322 
1.3699999999998655, -0.6134844909135025 
1.3799999999998644, -0.6132629922558203 
1.3899999999998633, -0.6128870198688743 
1.3999999999998622, -0.6123314130996664 
1.4099999999998611, -0.6115578520096815 
1.41999999999986, -0.6105224608936208 
1.429999999999859, -0.60919102110537 
1.4399999999998578, -0.6075603830755896 
1.4499999999998567, -0.6056762627763584 
1.4599999999998556, -0.6036329742034179 
1.4699999999998545, -0.6015500820978252 
1.4799999999998534, -0.5995390652268826 
1.4899999999998523, -0.5976797257804953 
1.4999999999998512, -0.5960150166506116 
1.5099999999998501, -0.5945592008883968 
1.519999999999849, -0.5933099890170255 
1.529999999999848, -0.5922585444911203 
1.5399999999998468, -0.5913955767421993 
1.5499999999998457, -0.5907141560894067 
1.5599999999998446, -0.5902105228113704 
1.5699999999998435, -0.5898839693197664 
1.5799999999998424, -0.5897364967407629 
1.5899999999998413, -0.5897726261630469 
1.5999999999998402, -0.5899994976421866 
1.6099999999998391, -0.5904271610912438 
1.619999999999838, -0.591068686581131 
1.629999999999837, -0.5919393431074607 
1.6399999999998358, -0.5930536277161254 
1.6499999999998347, -0.5944186082263718 
1.6599999999998336, -0.5960225746771899 
1.6699999999998325, -0.5978205549222627 
1.6799999999998314, -0.5997233822341861 
1.6899999999998303, -0.6016016911460156 
1.6999999999998292, -0.6033125021167759 
1.709999999999828, -0.6047397359004008 
1.719999999999827, -0.6058246440937924 
1.729999999999826, -0.6065682832640242 
1.7399999999998248, -0.6070107677678416 
1.7499999999998237, -0.6072051961426802 
1.7599999999998226, -0.6071990061880919 
1.7699999999998215, -0.6070248229243929 
1.7799999999998204, -0.6066971959188254 
1.7899999999998193, -0.6062111145834808 
1.7999999999998182, -0.6055394418627943 
1.809999999999817, -0.6046274715662494 
1.819999999999816, -0.6033835633460313 
1.8299999999998149, -0.6016664057459225 
1.8399999999998138, -0.5992746301583933 
1.8499999999998127, -0.5959570587988022 
1.8599999999998116, -0.5914788761432568 
1.8699999999998105, -0.5857701589911135 
1.8799999999998094, -0.5790975506502578 
1.8899999999998083, -0.5720862184852522 
1.8999999999998072, -0.5654907926026531 
1.909999999999806, -0.5598807233899423 
1.919999999999805, -0.5554892521002809 
1.9299999999998039, -0.5522679073009192 
1.9399999999998028, -0.5500216853167326 
1.9499999999998017, -0.548519657033783 
1.9599999999998006, -0.5475535864442612 
1.9699999999997995, -0.5469579797706384 
1.9799999999997984, -0.5466103284173387 
1.9899999999997973, -0.5464238807125866 
1.9999999999997962, -0.546339029071753 
2.0099999999998173, -0.546315751423557 
2.0199999999998384, -0.5463278474731742 
2.0299999999998595, -0.5463590344946707 
2.0399999999998806, -0.5464006897701821 
2.0499999999999017, -0.5464507784885543 
2.059999999999923, -0.5465131294849657 
2.069999999999944, -0.5465958614321891 
2.079999999999965, -0.5467078965251935 
2.089999999999986, -0.54685356820568 
2.100000000000007, -0.5470270750025497 
2.1100000000000283, -0.5472097990887058 
2.1200000000000494, -0.5473729274483312 
2.1300000000000705, -0.5474849967743347 
2.1400000000000916, -0.5475206148356502 
2.1500000000001127, -0.5474657484645966 
2.160000000000134, -0.5473176604051562 
2.170000000000155, -0.5470811383228673 
2.180000000000176, -0.5467640197396595 
2.190000000000197, -0.5463740883996357 
2.2000000000002182, -0.5459179839403646 
2.2100000000002393, -0.5454019908458063 
2.2200000000002604, -0.5448344337741935 
2.2300000000002815, -0.5442293384306105 
2.2400000000003026, -0.5436102804012706 
2.2500000000003237, -0.5430109900012482 
2.260000000000345, -0.5424646645089675 
2.270000000000366, -0.5419699695011386 
2.280000000000387, -0.5414323591990144 
2.290000000000408, -0.5406270837558143 
2.3000000000004293, -0.5392870922990891 
2.3100000000004504, -0.5373366361911266 
2.3200000000004715, -0.535041942322959 
2.3300000000004926, -0.5328539776062187 
2.3400000000005137, -0.5311132924006707 
2.3500000000005348, -0.5299214915091159 
2.360000000000556, -0.5292053316635039 
2.370000000000577, -0.5288281902668417 
2.380000000000598, -0.5286608423806245 
2.390000000000619, -0.5286063439804957 
2.4000000000006403, -0.5286001321376137 
2.4100000000006614, -0.5286018767612402 
2.4200000000006825, -0.5285868546698874 
2.4300000000007036, -0.5285393648646852 
2.4400000000007247, -0.5284485769612062 
2.450000000000746, -0.5283066470791685 
2.460000000000767, -0.5281088713309476 
2.470000000000788, -0.5278554343510278 
2.480000000000809, -0.5275536524141116 
2.49000000000083, -0.5272188058044204 
2.5000000000008513, -0.5268717107675907 
2.5100000000008724, -0.526532898773089 
2.5200000000008935, -0.5262157884452033 
2.5300000000009146, -0.5259223827143666 
2.5400000000009357, -0.5256436974608615 
2.550000000000957, -0.5253643984346489 
2.560000000000978, -0.5250689517983382 
2.570000000000999, -0.5247463306118115 
2.58000000000102, -0.5243918958738083 
2.5900000000010412, -0.5240070629144495 
2.6000000000010624, -0.5235983589989301 
2.6100000000010835, -0.5231773185513953 
2.6200000000011046, -0.5227620932044458 
2.6300000000011257, -0.5223812854271134 
2.6400000000011468, -0.5220804129543833 
2.650000000001168, -0.5219312273266659 
2.660000000001189, -0.5220431330486407 
2.67000000000121, -0.5225729043136017 
2.680000000001231, -0.523721960831998 
2.6900000000012523, -0.5256995617953055 
2.7000000000012734, -0.528625637557317 
2.7100000000012945, -0.5323811831793142 
2.7200000000013156, -0.5365146750191023 
2.7300000000013367, -0.5403788417730453 
2.740000000001358, -0.5434782666518674 
2.750000000001379, -0.5456991793103827 
2.7600000000014, -0.5472151434448683 
2.770000000001421, -0.5482612734070089 
2.780000000001442, -0.5490083312416647 
2.7900000000014633, -0.549552214098518 
2.8000000000014844, -0.5499427627418321 
2.8100000000015055, -0.5502076914923052 
2.8200000000015266, -0.5503643209113928 
2.8300000000015477, -0.5504236710024276 
2.840000000001569, -0.5503913167281854 
2.85000000000159, -0.5502673391003855 
2.860000000001611, -0.5500465140777486 
2.870000000001632, -0.5497195643090719 
2.8800000000016532, -0.5492762911832887 
2.8900000000016743, -0.5487110011244256 
2.9000000000016954, -0.5480291984537926 
2.9100000000017165, -0.5472523343592987 
2.9200000000017377, -0.5464165911473828 
2.9300000000017588, -0.5455645473657867 
2.94000000000178, -0.544733672962802 
2.950000000001801, -0.5439479435500367 
2.960000000001822, -0.5432161531770295 
2.970000000001843, -0.5425359483865466 
2.9800000000018643, -0.5419001437958424 
2.9900000000018854, -0.5413022716433065 
3.0000000000019065, -0.5407400990083253 
3.0100000000019276, -0.540217448864154 
3.0200000000019487, -0.5397453663978851 
3.03000000000197, -0.5393436070427401 
3.040000000001991, -0.5390430615390999 
3.050000000002012, -0.5388894104521793 
3.060000000002033, -0.5389480631019125 
3.070000000002054, -0.5393101156560186 
3.0800000000020753, -0.5400983217036595 
3.0900000000020964, -0.5414703478625136 
3.1000000000021175, -0.5436131537620631 
3.1100000000021386, -0.5467170632666181 
3.1200000000021597, -0.550914333226816 
3.130000000002181, -0.556176844309892 
3.140000000002202, -0.5622094915358644 
3.150000000002223, -0.5684384202019659 
3.160000000002244, -0.5741821885407399 
3.1700000000022652, -0.5789296551361771 
3.1800000000022863, -0.5825043928376052 
3.1900000000023074, -0.5850122687984557 
3.2000000000023285, -0.5866837403294063 
3.2100000000023496, -0.5877503421371266 
3.2200000000023707, -0.5883931929339326 
3.230000000002392, -0.5887371977182475 
3.240000000002413, -0.5888613408371464 
3.250000000002434, -0.5888101758926915 
3.260000000002455, -0.588601931350207 
3.2700000000024763, -0.5882329583975268 
3.2800000000024974, -0.5876797632985025 
3.2900000000025185, -0.5869008800854033 
3.3000000000025396, -0.5858422323053749 
3.3100000000025607, -0.5844506679321289 
3.3200000000025818, -0.582698034995951 
3.330000000002603, -0.5806091870315887 
3.340000000002624, -0.5782758587730519 
3.350000000002645, -0.5758399820938808 
3.360000000002666, -0.5734520852744478 
3.3700000000026873, -0.5712310692773281 
3.3800000000027084, -0.5692465520820732 
3.3900000000027295, -0.5675239925085156 
3.4000000000027506, -0.5660602774383546 
3.4100000000027717, -0.564838889709989 
3.420000000002793, -0.5638401712072609 
3.430000000002814, -0.5630467007579332 
3.440000000002835, -0.5624453991874607 
3.450000000002856, -0.562027944591025 
3.460000000002877, -0.5617905708792513 
3.4700000000028983, -0.5617338446125352 
3.4800000000029194, -0.5618626789387987 
3.4900000000029405, -0.56218659906237 
3.5000000000029616, -0.5627200306710733 
3.5100000000029827, -0.5634820481312274 
3.520000000003004, -0.564494530600344 
3.530000000003025, -0.5657771086452115 
3.540000000003046, -0.5673371020302602 
3.550000000003067, -0.5691539800195687 
3.5600000000030882, -0.571162213652843 
3.5700000000031094, -0.5732432979994069 
3.5800000000031305, -0.5752407557259664 
3.5900000000031516, -0.577000720825132 
3.6000000000031727, -0.5784179445738364 
3.6100000000031938, -0.579457891409555 
3.620000000003215, -0.5801452746604177 
3.630000000003236, -0.5805348632283682 
3.640000000003257, -0.5806848595624898 
3.650000000003278, -0.5806414116475157 
3.6600000000032993, -0.5804323840392149 
3.6700000000033204, -0.5800653972490619 
3.6800000000033415, -0.5795261125318453 
3.6900000000033626, -0.5787743162945354 
3.7000000000033837, -0.5777365420457812 
3.710000000003405, -0.5762955540817164 
3.720000000003426, -0.5742811549391785 
3.730000000003447, -0.571476303420327 
3.740000000003468, -0.5676655726762005 
3.750000000003489, -0.5627489664159435 
3.7600000000035103, -0.5568855667353688 
3.7700000000035314, -0.5505414225332494 
3.7800000000035525, -0.544342357551235 
3.7900000000035736, -0.5388232996023951 
3.8000000000035947, -0.5342704337269482 
3.810000000003616, -0.5307268609108229 
3.820000000003637, -0.5280857354720331 
3.830000000003658, -0.5261822163924909 
3.840000000003679, -0.524850034115447 
3.8500000000037002, -0.5239463451904101 
3.8600000000037213, -0.5233580611114176 
3.8700000000037424, -0.5229998741640545 
3.8800000000037635, -0.5228095891858772 
3.8900000000037847, -0.5227432812570177 
3.9000000000038058, -0.5227712224570726 
3.910000000003827, -0.5228748285915743 
3.920000000003848, -0.5230445686819445 
3.930000000003869, -0.5232785479929974 
3.94000000000389, -0.5235811650967503 
3.9500000000039113, -0.523960886471839 
3.9600000000039324, -0.5244260675287751 
3.9700000000039535, -0.5249783597780081 
3.9800000000039746, -0.5256049076009983 
3.9900000000039957, -0.5262728368887981 
4.000000000004016, -0.5269307384749118 
4.010000000003993, -0.5275194031657592 
4.02000000000397, -0.5279877956629268 
4.030000000003946, -0.5283054019973007 
4.040000000003923, -0.5284645344555802 
4.0500000000039, -0.5284736796680842 
4.0600000000038765, -0.5283476773023869 
4.070000000003853, -0.5280994739231308 
4.08000000000383, -0.5277348062115867 
4.090000000003807, -0.5272488421601514 
4.100000000003783, -0.5266230686056229 
4.11000000000376, -0.5258206472870637 
4.120000000003737, -0.5247783485695802 
4.130000000003713, -0.5233931275885564 
4.14000000000369, -0.5215032231762822 
4.150000000003667, -0.5188725186194207 
4.1600000000036434, -0.515209807017617 
4.17000000000362, -0.5102797064103561 
4.180000000003597, -0.5041198010076012 
4.1900000000035735, -0.49721034906478767 
4.20000000000355, -0.4903525160960564 
4.210000000003527, -0.48428976014975833 
4.220000000003504, -0.47941706249273447 
4.23000000000348, -0.47576944792649767 
4.240000000003457, -0.4731725994238875 
4.250000000003434, -0.471388706638176 
4.26000000000341, -0.4701972686394201 
4.270000000003387, -0.46942318737042416 
4.280000000003364, -0.46893808130907155 
4.2900000000033405, -0.46865212897643793 
4.300000000003317, -0.4685045475708929 
4.310000000003294, -0.4684555990240046 
4.320000000003271, -0.46848075393244776 
4.330000000003247, -0.46856684459084813 
4.340000000003224, -0.4687097860270614 
4.350000000003201, -0.46891327471547883 
4.360000000003177, -0.4691876000108565 
4.370000000003154, -0.46954737980795064 
4.380000000003131, -0.470006982512147 
4.390000000003107, -0.47057310195653096 
4.400000000003084, -0.4712357401744841 
4.410000000003061, -0.47196141481053927 
4.4200000000030375, -0.47269404428027134 
4.430000000003014, -0.4733666297552707 
4.440000000002991, -0.4739196869815882 
4.450000000002968, -0.47431617530602005 
4.460000000002944, -0.4745449672308803 
4.470000000002921, -0.4746136886807009 
4.480000000002898, -0.47453756333641695 
4.490000000002874, -0.4743298183759575 
4.500000000002851, -0.4739952203692768 
4.510000000002828, -0.4735255402764336 
4.520000000002804, -0.47289487075887193 
4.530000000002781, -0.4720527848734831 
4.540000000002758, -0.4709138565907861 
4.5500000000027345, -0.46934400981356983 
4.560000000002711, -0.4671504866304077 
4.570000000002688, -0.4640964632696571 
4.580000000002665, -0.4599766362964536 
4.590000000002641, -0.45476834795358956 
4.600000000002618, -0.44877285602651346 
4.610000000002595, -0.44257839070769245 
4.620000000002571, -0.43681286873618735 
4.630000000002548, -0.4318929010945092 
4.640000000002525, -0.42795395343054166 
4.6500000000025015, -0.42493175149341605 
4.660000000002478, -0.42267429951729857 
4.670000000002455, -0.42101763622286537 
4.6800000000024315, -0.4198202914656096 
4.690000000002408, -0.41897251769584265 
4.700000000002385, -0.41839444086800964 
4.710000000002362, -0.4180309490372854 
4.720000000002338, -0.4178466873701268 
4.730000000002315, -0.4178222859231573 
4.740000000002292, -0.41795200742100125 
4.750000000002268, -0.41824263588212884 
4.760000000002245, -0.41871319805350005 
4.770000000002222, -0.41939475141027527 
4.7800000000021985, -0.4203288078903643 
4.790000000002175, -0.4215619618297701 
4.800000000002152, -0.42313338047444227 
4.810000000002129, -0.4250525596599628 
4.820000000002105, -0.4272702611822418 
4.830000000002082, -0.4296575759539902 
4.840000000002059, -0.43201787660973395 
4.850000000002035, -0.4341427259547127 
4.860000000002012, -0.43588303728930206 
4.870000000001989, -0.43718598766815486 
4.880000000001965, -0.43808006241851966 
4.890000000001942, -0.43863389761467797 
4.900000000001919, -0.4389204631518974 
4.9100000000018955, -0.43899807026426174 
