t, s[1].omega / s[0].omega 
0, -0.519997751628071 
0.009999999999999995, -0.5197890740657646 
0.019999999999999934, -0.5196054071238969 
0.029999999999999874, -0.5194287021003834 
0.04000000000000012, -0.5192367120374508 
0.050000000000000405, -0.5190102543676322 
0.06000000000000069, -0.5187376170525602 
0.07000000000000098, -0.5184152173547633 
0.08000000000000126, -0.5180459570233239 
0.09000000000000155, -0.5176374379812009 
0.10000000000000184, -0.5172016111290663 
0.11000000000000212, -0.5167566632445021 
0.12000000000000241, -0.5163316225656767 
0.130000000000002, -0.5159741626907455 
0.1400000000000009, -0.515761805503176 
0.1499999999999998, -0.5158150003417296 
0.1599999999999987, -0.5163052169397415 
0.1699999999999976, -0.517439551900926 
0.1799999999999965, -0.5193882837014978 
0.1899999999999954, -0.5221304296207919 
0.1999999999999943, -0.5252854964624911 
0.2099999999999932, -0.5281590330013219 
0.2199999999999921, -0.530148234206311 
0.229999999999991, -0.5311556042678779 
0.2399999999999899, -0.5315240561281609 
0.2499999999999888, -0.531654441572614 
0.2599999999999877, -0.5317729934837969 
0.2699999999999866, -0.5319397235217108 
0.2799999999999855, -0.5321358976486248 
0.2899999999999844, -0.5323258404522652 
0.2999999999999833, -0.532481158495468 
0.3099999999999822, -0.532584384215663 
0.3199999999999811, -0.5326256037210989 
0.32999999999998, -0.5325982381612084 
0.3399999999999789, -0.5324960010303414 
0.3499999999999778, -0.5323115799101051 
0.35999999999997667, -0.5320373322624319 
0.36999999999997557, -0.5316681948565416 
0.37999999999997447, -0.5312063354860659 
0.38999999999997337, -0.5306655833107561 
0.39999999999997227, -0.5300723599178544 
0.40999999999997117, -0.529460746084139 
0.41999999999997006, -0.5288630170343578 
0.42999999999996896, -0.5283004993005727 
0.43999999999996786, -0.5277794493428032 
0.44999999999996676, -0.5272932139282174 
0.45999999999996566, -0.5268284413508608 
0.46999999999996456, -0.5263717983068662 
0.47999999999996346, -0.5259146018658643 
0.48999999999996235, -0.5254548123102434 
0.49999999999996125, -0.5249974730403129 
0.5099999999999602, -0.5245551886059443 
0.519999999999959, -0.5241499199959355 
0.529999999999958, -0.5238169346836697 
0.5399999999999568, -0.5236115341674887 
0.5499999999999557, -0.5236191006737881 
0.5599999999999546, -0.5239686190485512 
0.5699999999999535, -0.5248482498618207 
0.5799999999999524, -0.5265170488849792 
0.5899999999999513, -0.5292970488351011 
0.5999999999999502, -0.5335144390013691 
0.6099999999999491, -0.5393515836841218 
0.619999999999948, -0.5466192339478718 
0.6299999999999469, -0.5546025088009482 
0.6399999999999458, -0.5622385525388341 
0.6499999999999447, -0.5686257244069064 
0.6599999999999436, -0.5734160743905928 
0.6699999999999425, -0.5767599244325382 
0.6799999999999414, -0.5790085052079678 
0.6899999999999403, -0.58049458433604 
0.6999999999999392, -0.5814617245468582 
0.7099999999999381, -0.5820707689468476 
0.719999999999937, -0.5824235955136714 
0.7299999999999359, -0.5825825401864274 
0.7399999999999348, -0.5825825966568352 
0.7499999999999337, -0.5824382650771586 
0.7599999999999326, -0.5821472266198586 
0.7699999999999315, -0.5816928397568326 
0.7799999999999304, -0.5810477483192665 
0.7899999999999293, -0.580181337647488 
0.7999999999999282, -0.5790729536422317 
0.8099999999999271, -0.5777287765665483 
0.819999999999926, -0.5761937675550659 
0.8299999999999249, -0.5745479949693809 
0.8399999999999238, -0.5728857051759547 
0.8499999999999227, -0.5712892014495116 
0.8599999999999216, -0.5698125836312732 
0.8699999999999205, -0.5684804928097877 
0.8799999999999194, -0.5672967288400204 
0.8899999999999183, -0.5662551493272184 
0.8999999999999172, -0.5653482290344325 
0.9099999999999161, -0.5645721597299097 
0.919999999999915, -0.5639292628358068 
0.9299999999999139, -0.5634289062069577 
0.9399999999999128, -0.5630878360229546 
0.9499999999999117, -0.5629304409856212 
0.9599999999999106, -0.5629891910733634 
0.9699999999999095, -0.5633053214012728 
0.9799999999999084, -0.5639296320515081 
0.9899999999999073, -0.5649228670910053 
0.9999999999999062, -0.5663543160928214 
1.0099999999999052, -0.5682959058147767 
1.019999999999904, -0.5708073919071314 
1.029999999999903, -0.5739079310086526 
1.039999999999902, -0.5775344380396219 
1.0499999999999008, -0.5815026353158872 
1.0599999999998997, -0.5855071892842203 
1.0699999999998986, -0.5891933207401248 
1.0799999999998975, -0.5922771813386114 
1.0899999999998964, -0.5946332629356089 
1.0999999999998953, -0.5962914500498998 
1.1099999999998942, -0.5973697633295136 
1.119999999999893, -0.5980045551770873 
1.129999999999892, -0.598310493245094 
1.1399999999998909, -0.598367624907236 
1.1499999999998898, -0.5982217132468943 
1.1599999999998887, -0.5978874571552715 
1.1699999999998876, -0.5973495167239448 
1.1799999999998865, -0.5965594650747168 
1.1899999999998854, -0.5954287093723158 
1.1999999999998843, -0.5938203253686144 
1.2099999999998832, -0.59154925768728 
1.219999999999882, -0.5884106914771035 
1.229999999999881, -0.5842595607536945 
1.2399999999998799, -0.5791323753338061 
1.2499999999998788, -0.5733306427854259 
1.2599999999998777, -0.5673614829406028 
1.2699999999998766, -0.5617475578849818 
1.2799999999998755, -0.5568514398255141 
1.2899999999998744, -0.5528229394290207 
1.2999999999998733, -0.5496483239114556 
1.3099999999998722, -0.5472271588918988 
1.319999999999871, -0.5454309980028776 
1.32999999999987, -0.544135472747876 
1.3399999999998689, -0.5432333932639116 
1.3499999999998678, -0.5426377690807149 
1.3599999999998666, -0.5422805668220925 
1.3699999999998655, -0.5421101703236718 
1.3799999999998644, -0.5420888136379955 
1.3899999999998633, -0.5421904430059407 
1.3999999999998622, -0.542399113581584 
1.4099999999998611, -0.5427078272284926 
1.41999999999986, -0.5431174652256983 
1.429999999999859, -0.5436350808629381 
1.4399999999998578, -0.5442704149816247 
1.4499999999998567, -0.5450295088433206 
1.4599999999998556, -0.5459053636333303 
1.4699999999998545, -0.5468681473165498 
1.4799999999998534, -0.5478606401226958 
1.4899999999998523, -0.5488052649355455 
1.4999999999998512, -0.5496233385652911 
1.5099999999998501, -0.5502572118590225 
1.519999999999849, -0.5506821050158679 
1.529999999999848, -0.5509025264827603 
1.5399999999998468, -0.5509392385362814 
1.5499999999998457, -0.5508157540336824 
1.5599999999998446, -0.5505490466637701 
1.5699999999998435, -0.5501443415548198 
1.5799999999998424, -0.5495917522297782 
1.5899999999998413, -0.5488623232867799 
1.5999999999998402, -0.547901174261603 
1.6099999999998391, -0.546615229487122 
1.619999999999838, -0.5448530866995545 
1.629999999999837, -0.5423783298223117 
1.6399999999998358, -0.5388539038010277 
1.6499999999998347, -0.5338926871799305 
1.6599999999998336, -0.5272547303697566 
1.6699999999998325, -0.5191614412028891 
1.6799999999998314, -0.5104322370315145 
1.6899999999998303, -0.5021617906596252 
1.6999999999998292, -0.49518155955817206 
1.709999999999828, -0.4898010646220129 
1.719999999999827, -0.4859162064471641 
1.729999999999826, -0.4832367328903901 
1.7399999999998248, -0.4814497290302418 
1.7499999999998237, -0.4802917996817362 
1.7599999999998226, -0.479564967585789 
1.7699999999998215, -0.4791291724036547 
1.7799999999998204, -0.4788888743689326 
1.7899999999998193, -0.4787806541906529 
1.7999999999998182, -0.4787637026030672 
1.809999999999817, -0.47881323907529233 
1.819999999999816, -0.47891637489163824 
1.8299999999998149, -0.4790698070737309 
1.8399999999998138, -0.47927856519699813 
1.8499999999998127, -0.479554703261469 
1.8599999999998116, -0.4799145063086252 
1.8699999999998105, -0.4803729280724965 
1.8799999999998094, -0.48093509109253213 
1.8899999999998083, -0.4815868894660812 
1.8999999999998072, -0.4822893344181963 
1.909999999999806, -0.4829821272803871 
1.919999999999805, -0.48359807687014056 
1.9299999999998039, -0.48408205037392193 
1.9399999999998028, -0.4844035692806665 
1.9499999999998017, -0.4845570104775259 
1.9599999999998006, -0.48455250234796576 
1.9699999999997995, -0.4844046031385691 
1.9799999999997984, -0.4841233570554616 
1.9899999999997973, -0.4837082788267141 
1.9999999999997962, -0.48314350837132025 
2.0099999999998173, -0.48239169217616534 
2.0199999999998384, -0.48138397715914233 
2.0299999999998595, -0.4800035745358414 
2.0399999999998806, -0.47806241641225117 
2.0499999999999017, -0.475280088341621 
2.059999999999923, -0.47129995507939765 
2.069999999999944, -0.46580964739182856 
2.079999999999965, -0.45879588651075853 
2.089999999999986, -0.4507695952050887 
2.100000000000007, -0.44265573162334704 
2.1100000000000283, -0.43534909246736103 
2.1200000000000494, -0.4293491529475414 
2.1300000000000705, -0.4247315113692138 
2.1400000000000916, -0.4213220283300533 
2.1500000000001127, -0.4188677362596877 
2.160000000000134, -0.41713078040536755 
2.170000000000155, -0.41592101596561787 
2.180000000000176, -0.41509822146366215 
2.190000000000197, -0.41456388962221247 
2.2000000000002182, -0.4142516360135053 
2.2100000000002393, -0.4141193355705871 
2.2200000000002604, -0.41414361664651295 
2.2300000000002815, -0.414316503216878 
2.2400000000003026, -0.4146437552661026 
2.2500000000003237, -0.4151442973355552 
2.260000000000345, -0.41584977090534175 
2.270000000000366, -0.41680254906149417 
2.280000000000387, -0.4180495493674492 
2.290000000000408, -0.41962841755430375 
2.3000000000004293, -0.42154387711831465 
2.3100000000004504, -0.4237384675509035 
2.3200000000004715, -0.42607454002739586 
2.3300000000004926, -0.4283523334317893 
2.3400000000005137, -0.4303705358535657 
2.3500000000005348, -0.43199488105177386 
2.360000000000556, -0.4331868730530065 
2.370000000000577, -0.43398262577617314 
2.380000000000598, -0.4344511456211335 
2.390000000000619, -0.43466107689379285 
2.4000000000006403, -0.43466403941235277 
2.4100000000006614, -0.43448942054599443 
2.4200000000006825, -0.43414374000918354 
2.4300000000007036, -0.43361049712706806 
2.4400000000007247, -0.43284948709384546 
2.450000000000746, -0.43179752884379097 
2.460000000000767, -0.4303760327441089 
2.470000000000788, -0.4285134973555002 
2.480000000000809, -0.42618658681157784 
2.49000000000083, -0.423464640180277 
2.5000000000008513, -0.4205205428769639 
2.5100000000008724, -0.4175826644922814 
2.5200000000008935, -0.4148546916465162 
2.5300000000009146, -0.4124600393446702 
2.5400000000009357, -0.4104364938051616 
2.550000000000957, -0.4087632519437663 
2.560000000000978, -0.40739278327112316 
2.570000000000999, -0.40627342144736034 
2.58000000000102, -0.40536127774734154 
2.5900000000010412, -0.404624949619679 
2.6000000000010624, -0.4040466944342461 
2.6100000000010835, -0.40362260181838827 
2.6200000000011046, -0.40336325441329945 
2.6300000000011257, -0.40329573918144546 
2.6400000000011468, -0.4034675921821075 
2.650000000001168, -0.4039531283797624 
2.660000000001189, -0.40486228877218194 
2.67000000000121, -0.4063509700397587 
2.680000000001231, -0.4086284461309283 
2.6900000000012523, -0.4119497683325914 
2.7000000000012734, -0.4165679298376103 
2.7100000000012945, -0.4226117289925611 
2.7200000000013156, -0.42988887008962495 
2.7300000000013367, -0.43773716538008023 
2.740000000001358, -0.44516301787946677 
2.750000000001379, -0.451306586005295 
2.7600000000014, -0.4558346566321929 
2.770000000001421, -0.45891010291034 
2.780000000001442, -0.4609029304932431 
2.7900000000014633, -0.46216321818697487 
2.8000000000014844, -0.4629437197106787 
2.8100000000015055, -0.4634061654390734 
2.8200000000015266, -0.46364820622917097 
2.8300000000015477, -0.46372619993251335 
2.840000000001569, -0.46366989564640315 
2.85000000000159, -0.4634911669513547 
2.860000000001611, -0.46318965228495423 
2.870000000001632, -0.46275780782420045 
2.8800000000016532, -0.4621873703644478 
2.8900000000016743, -0.46147799591366134 
2.9000000000016954, -0.4606461826460819 
2.9100000000017165, -0.45972952696814795 
2.9200000000017377, -0.4587814930437436 
2.9300000000017588, -0.45785748014710925 
2.94000000000178, -0.45699963827443363 
2.950000000001801, -0.45622846215160984 
2.960000000001822, -0.45554363523277636 
2.970000000001843, -0.45493112813878955 
2.9800000000018643, -0.4543719038864147 
2.9900000000018854, -0.4538488304255278 
3.0000000000019065, -0.4533505598801398 
3.0100000000019276, -0.452872946135897 
3.0200000000019487, -0.4524194483099665 
3.03000000000197, -0.45200196766784906 
3.040000000001991, -0.4516432031769645 
3.050000000002012, -0.45138134492859355 
3.060000000002033, -0.45127785459885655 
3.070000000002054, -0.45142891372772515 
3.0800000000020753, -0.451980032591554 
3.0900000000020964, -0.4531394607299988 
3.1000000000021175, -0.45517607936578985 
3.1100000000021386, -0.4583689233350465 
3.1200000000021597, -0.4628608666192271 
3.130000000002181, -0.468415826257083 
3.140000000002202, -0.4742611099035606 
3.150000000002223, -0.47934741974896955 
3.160000000002244, -0.4829863018814785 
3.1700000000022652, -0.48520045371397363 
3.1800000000022863, -0.48644504187907317 
3.1900000000023074, -0.48717158813119166 
3.2000000000023285, -0.4876504831226705 
3.2100000000023496, -0.48800155881038537 
3.2200000000023707, -0.4882673422588259 
3.230000000002392, -0.48846064806652245 
3.240000000002413, -0.4885852800547267 
3.250000000002434, -0.48864252913824646 
3.260000000002455, -0.4886322231044766 
3.2700000000024763, -0.48855242515183595 
3.2800000000024974, -0.4883994916854932 
3.2900000000025185, -0.4881693149317421 
3.3000000000025396, -0.4878601543442288 
3.3100000000025607, -0.4874767276455391 
3.3200000000025818, -0.487033915402925 
3.330000000002603, -0.48655731106951433 
3.340000000002624, -0.48607857911656316 
3.350000000002645, -0.4856266794813088 
3.360000000002666, -0.4852191402412105 
3.3700000000026873, -0.48485776260896785 
3.3800000000027084, -0.48453043051405986 
3.3900000000027295, -0.48421744822736795 
3.4000000000027506, -0.48389897893801503 
3.4100000000027717, -0.48356040003979894 
3.420000000002793, -0.4831943086795823 
3.430000000002814, -0.4828000311135602 
3.440000000002835, -0.4823824517407959 
3.450000000002856, -0.4819517288357513 
3.460000000002877, -0.4815248361880816 
3.4700000000028983, -0.4811294917144105 
3.4800000000029194, -0.4808109224865448 
3.4900000000029405, -0.4806415758100579 
3.5000000000029616, -0.4807322230509568 
3.5100000000029827, -0.4812377879267983 
3.520000000003004, -0.48233984371892014 
3.530000000003025, -0.4841723354239213 
3.540000000003046, -0.48666467958759274 
3.550000000003067, -0.4893731022402835 
3.5600000000030882, -0.4915469050124407 
3.5700000000031094, -0.4925932187010883 
3.5800000000031305, -0.4925324151299371 
3.5900000000031516, -0.49187704211899996 
3.6000000000031727, -0.4911502335076932 
3.6100000000031938, -0.49061732924708074 
3.620000000003215, -0.4903207737723097 
3.630000000003236, -0.4902034012761173 
3.640000000003257, -0.4901910789928733 
3.650000000003278, -0.4902245324037988 
3.6600000000032993, -0.49026409949731536 
3.6700000000033204, -0.49028525668315515 
3.6800000000033415, -0.4902729373929211 
3.6900000000033626, -0.49021725354776874 
3.7000000000033837, -0.4901111878703116 
3.710000000003405, -0.4899502833139742 
3.720000000003426, -0.48973413952675315 
3.730000000003447, -0.4894689937560903 
3.740000000003468, -0.48916972475208587 
3.750000000003489, -0.48885901676480553 
3.7600000000035103, -0.48856236085131854 
3.7700000000035314, -0.4883001518181181 
3.7800000000035525, -0.48808047691081846 
3.7900000000035736, -0.48789625366139777 
3.8000000000035947, -0.48772814735522163 
3.810000000003616, -0.48755169824655925 
3.820000000003637, -0.4873450274486955 
3.830000000003658, -0.48709368959272437 
3.840000000003679, -0.48679153823985083 
3.8500000000037002, -0.486438908112053 
3.8600000000037213, -0.48604027851318055 
3.8700000000037424, -0.4856030067541301 
3.8800000000037635, -0.4851378419925517 
3.8900000000037847, -0.4846614302691015 
3.9000000000038058, -0.4842007945343799 
3.910000000003827, -0.483799169562601 
3.920000000003848, -0.48352037516405744 
3.930000000003869, -0.48344317411067095 
3.94000000000389, -0.48362675307421155 
3.9500000000039113, -0.4840226168430686 
3.9600000000039324, -0.4843451248429993 
3.9700000000039535, -0.484039215803011 
3.9800000000039746, -0.4825694356693454 
3.9900000000039957, -0.47992264530316014 
4.000000000004016, -0.4767189602934504 
4.010000000003993, -0.4737294447061666 
4.02000000000397, -0.4714038054957087 
4.030000000003946, -0.46981248816029686 
4.040000000003923, -0.46882150997447936 
4.0500000000039, -0.46825017964243215 
4.0600000000038765, -0.4679445495692489 
4.070000000003853, -0.4677944269401526 
4.08000000000383, -0.46772754454566334 
4.090000000003807, -0.4676986724054027 
4.100000000003783, -0.46768015264290097 
4.11000000000376, -0.4676553420233474 
4.120000000003737, -0.46761483119481123 
4.130000000003713, -0.46755496401543556 
4.14000000000369, -0.46747804265262943 
4.150000000003667, -0.4673932241611321 
4.1600000000036434, -0.4673165525292028 
4.17000000000362, -0.46726843615915525 
4.180000000003597, -0.4672678878448367 
4.1900000000035735, -0.4673248625076486 
4.20000000000355, -0.46743385340991334 
4.210000000003527, -0.46757226833662247 
4.220000000003504, -0.46770540186501314 
4.23000000000348, -0.467796325723587 
4.240000000003457, -0.46781576959466287 
4.250000000003434, -0.4677471251254751 
4.26000000000341, -0.46758533663349866 
4.270000000003387, -0.4673320802624142 
4.280000000003364, -0.46699039679220267 
4.2900000000033405, -0.4665604755916172 
4.300000000003317, -0.4660365943096041 
4.310000000003294, -0.46540418391107297 
4.320000000003271, -0.4646352615054778 
4.330000000003247, -0.4636793033149125 
4.340000000003224, -0.46244457268690475 
4.350000000003201, -0.4607634821998202 
4.360000000003177, -0.4583433158909781 
4.370000000003154, -0.45474203370479005 
4.380000000003131, -0.4494843681163222 
4.390000000003107, -0.4424222020398233 
4.400000000003084, -0.43412026854141705 
4.410000000003061, -0.42573518816701944 
4.4200000000030375, -0.4183639743572186 
4.430000000003014, -0.4125461247599622 
4.440000000002991, -0.40828129845754413 
4.450000000002968, -0.40529699841965217 
4.460000000002944, -0.4032675458829663 
4.470000000002921, -0.4019143901402793 
4.480000000002898, -0.4010297434413899 
4.490000000002874, -0.40046893007056256 
4.500000000002851, -0.4001353100477373 
4.510000000002828, -0.3999666573954697 
4.520000000002804, -0.3999251432285767 
4.530000000002781, -0.39999076183430193 
4.540000000002758, -0.40015747691839526 
4.5500000000027345, -0.4004312960211746 
4.560000000002711, -0.4008293772899637 
4.570000000002688, -0.4013789396356565 
4.580000000002665, -0.40211420642053175 
4.590000000002641, -0.4030691417039446 
4.600000000002618, -0.4042640410336228 
4.610000000002595, -0.40568651833704844 
4.620000000002571, -0.40727354924997183 
4.630000000002548, -0.40890867948281057 
4.640000000002525, -0.4104468957391691 
4.6500000000025015, -0.4117602410591214 
4.660000000002478, -0.41277562990387173 
4.670000000002455, -0.4134815581308267 
4.6800000000024315, -0.41390788895208785 
4.690000000002408, -0.4140989664223376 
4.700000000002385, -0.4140941878955113 
4.710000000002362, -0.4139181016262706 
4.720000000002338, -0.4135761866741706 
4.730000000002315, -0.4130523288727238 
4.740000000002292, -0.4123059901254639 
4.750000000002268, -0.41126973417022084 
4.760000000002245, -0.4098515972815446 
4.770000000002222, -0.40795166508610403 
4.7800000000021985, -0.4055030444469164 
4.790000000002175, -0.4025321358339345 
4.800000000002152, -0.39919969313453463 
4.810000000002129, -0.3957718039019893 
4.820000000002105, -0.39252353964217723 
4.830000000002082, -0.3896461637267426 
4.840000000002059, -0.38721710610547705 
4.850000000002035, -0.3852259204075103 
4.860000000002012, -0.3836170911454647 
4.870000000001989, -0.38232343731404594 
4.880000000001965, -0.38128450616022974 
