t, s[1].omega / s[0].omega 
0, -0.3099977979884822 
0.009999999999999995, -0.30980611232946753 
0.019999999999999934, -0.3096645844453718 
0.029999999999999874, -0.30955630282672697 
0.04000000000000012, -0.3094586713692573 
0.050000000000000405, -0.30934924037828554 
0.06000000000000069, -0.30921006105012017 
0.07000000000000098, -0.30902915701354444 
0.08000000000000126, -0.30879931841769126 
0.09000000000000155, -0.30851539551577284 
0.10000000000000184, -0.30817116166076947 
0.11000000000000212, -0.307756136964304 
0.12000000000000241, -0.3072521423160104 
0.130000000000002, -0.3066290999012934 
0.1400000000000009, -0.30583993427621964 
0.1499999999999998, -0.30481592242383937 
0.1599999999999987, -0.3034674048497545 
0.1699999999999976, -0.301699931468993 
0.1799999999999965, -0.29945605656653174 
0.1899999999999954, -0.2967743176250761 
0.1999999999999943, -0.29382152782349286 
0.2099999999999932, -0.2908509338955888 
0.2199999999999921, -0.2881035476311671 
0.229999999999991, -0.28572882504464436 
0.2399999999999899, -0.2837709034800307 
0.2499999999999888, -0.282201380732395 
0.2599999999999877, -0.28095980140513854 
0.2699999999999866, -0.2799814729329914 
0.2799999999999855, -0.2792110092169261 
0.2899999999999844, -0.2786067715802452 
0.2999999999999833, -0.2781411045714103 
0.3099999999999822, -0.27779935348601914 
0.3199999999999811, -0.27757916133450566 
0.32999999999998, -0.27749071912336276 
0.3399999999999789, -0.2775582287459054 
0.3499999999999778, -0.27782251057716945 
0.35999999999997667, -0.27834406324444394 
0.36999999999997557, -0.2792043873699156 
0.37999999999997447, -0.28050027415627754 
0.38999999999997337, -0.2823210661921267 
0.39999999999997227, -0.28469700313671503 
0.40999999999997117, -0.28752195844597556 
0.41999999999997006, -0.2905011919245656 
0.42999999999996896, -0.29321628225000856 
0.43999999999996786, -0.2953219168832762 
0.44999999999996676, -0.2967135820127203 
0.45999999999996566, -0.2975097398198714 
0.46999999999996456, -0.2979108560501812 
0.47999999999996346, -0.298087778457555 
0.48999999999996235, -0.298149133452572 
0.49999999999996125, -0.29815328964297855 
0.5099999999999602, -0.2981286805295408 
0.519999999999959, -0.2980886584571415 
0.529999999999958, -0.29803991076932246 
0.5399999999999568, -0.297986776413165 
0.5499999999999557, -0.297933535933433 
0.5599999999999546, -0.2978859013275688 
0.5699999999999535, -0.29785225465798293 
0.5799999999999524, -0.2978446710629717 
0.5899999999999513, -0.2978793254958234 
0.5999999999999502, -0.2979755674529771 
0.6099999999999491, -0.298152930541849 
0.619999999999948, -0.29842580513364314 
0.6299999999999469, -0.29879653167889364 
0.6399999999999458, -0.2992492150427629 
0.6499999999999447, -0.29974798043904494 
0.6599999999999436, -0.3002428736666519 
0.6699999999999425, -0.3006825573063173 
0.6799999999999414, -0.30102764375034174 
0.6899999999999403, -0.30125756426132455 
0.6999999999999392, -0.3013688496354764 
0.7099999999999381, -0.3013682150149 
0.719999999999937, -0.30126508075710834 
0.7299999999999359, -0.3010660396291351 
0.7399999999999348, -0.3007715099114931 
0.7499999999999337, -0.3003739043794419 
0.7599999999999326, -0.29985690053404745 
0.7699999999999315, -0.2991962829100762 
0.7799999999999304, -0.29836392216104757 
0.7899999999999293, -0.2973369470973045 
0.7999999999999282, -0.2961123217254163 
0.8099999999999271, -0.29472154434135567 
0.819999999999926, -0.2932344479799093 
0.8299999999999249, -0.2917440729357773 
0.8399999999999238, -0.290338725145571 
0.8499999999999227, -0.2890783537713235 
0.8599999999999216, -0.2879870771339891 
0.8699999999999205, -0.2870600430065401 
0.8799999999999194, -0.2862758197634124 
0.8899999999999183, -0.2856073888029325 
0.8999999999999172, -0.28502922242091905 
0.9099999999999161, -0.28452075368598867 
0.919999999999915, -0.28406748865801584 
0.9299999999999139, -0.28366097946013935 
0.9399999999999128, -0.2832985198975929 
0.9499999999999117, -0.2829830252988905 
0.9599999999999106, -0.2827231702744348 
0.9699999999999095, -0.2825333673113969 
0.9799999999999084, -0.28243229123215335 
0.9899999999999073, -0.2824369961258791 
0.9999999999999062, -0.28254725413484993 
1.0099999999999052, -0.28271404824856106 
1.019999999999904, -0.28279611644638625 
1.029999999999903, -0.28254167794543406 
1.039999999999902, -0.28166859102459674 
1.0499999999999008, -0.28005724408365834 
1.0599999999998997, -0.27789024911825494 
1.0699999999998986, -0.2755547170207428 
1.0799999999998975, -0.2734056755333839 
1.0899999999998964, -0.27162822753800714 
1.0999999999998953, -0.2702526246557036 
1.1099999999998942, -0.2692279069040697 
1.119999999999893, -0.2684805975111014 
1.129999999999892, -0.2679437242471436 
1.1399999999998909, -0.26756615921581395 
1.1499999999998898, -0.26731311450122097 
1.1599999999998887, -0.2671639542945351 
1.1699999999998876, -0.26710997294174 
1.1799999999998865, -0.2671530232302683 
1.1899999999998854, -0.26730511988571637 
1.1999999999998843, -0.26758876155117417 
1.2099999999998832, -0.26803732285972676 
1.219999999999882, -0.26869421626852047 
1.229999999999881, -0.26960849664099296 
1.2399999999998799, -0.2708235128028661 
1.2499999999998788, -0.2723557048849329 
1.2599999999998777, -0.27416617569441076 
1.2699999999998766, -0.276140247594375 
1.2799999999998755, -0.2781001172191849 
1.2899999999998744, -0.27986015870758585 
1.2999999999998733, -0.28129358794937875 
1.3099999999998722, -0.28236252206935936 
1.319999999999871, -0.28309949796481826 
1.32999999999987, -0.2835686733055987 
1.3399999999998689, -0.28383543368763087 
1.3499999999998678, -0.28395237492228403 
1.3599999999998666, -0.28395661837571184 
1.3699999999998655, -0.2838720053362531 
1.3799999999998644, -0.28371250782979185 
1.3899999999998633, -0.28348562547656814 
1.3999999999998622, -0.2831957460819145 
1.4099999999998611, -0.2828477280962876 
1.41999999999986, -0.28245057483893177 
1.429999999999859, -0.28202024894103495 
1.4399999999998578, -0.28158003519477065 
1.4499999999998567, -0.28115732958151995 
1.4599999999998556, -0.2807775288724836 
1.4699999999998545, -0.28045752203760754 
1.4799999999998534, -0.2802015431929043 
1.4899999999998523, -0.2800008370169552 
1.4999999999998512, -0.27983693161743406 
1.5099999999998501, -0.2796870596516906 
1.519999999999849, -0.27952958067805894 
1.529999999999848, -0.27934745404180167 
1.5399999999998468, -0.2791289554269164 
1.5499999999998457, -0.2788661431395292 
1.5599999999998446, -0.27855215158799795 
1.5699999999998435, -0.27817810374207197 
1.5799999999998424, -0.27772980749743503 
1.5899999999998413, -0.2771839257001606 
1.5999999999998402, -0.2765032717508404 
1.6099999999998391, -0.2756316697180004 
1.619999999999838, -0.27449122104071616 
1.629999999999837, -0.2729893995822805 
1.6399999999998358, -0.2710472175722861 
1.6499999999998347, -0.26865176129085383 
1.6599999999998336, -0.26590664630853966 
1.6699999999998325, -0.26302784445144234 
1.6799999999998314, -0.2602659667906333 
1.6899999999998303, -0.25781102275070744 
1.6999999999998292, -0.255748821556422 
1.709999999999828, -0.25407729003951013 
1.719999999999827, -0.2527465516867133 
1.729999999999826, -0.2516926357072272 
1.7399999999998248, -0.25085637938090694 
1.7499999999998237, -0.25019094270937564 
1.7599999999998226, -0.24966330897150307 
1.7699999999998215, -0.2492535390996388 
1.7799999999998204, -0.24895380786129997 
1.7899999999998193, -0.24876817430275983 
1.7999999999998182, -0.24871348511183095 
1.809999999999817, -0.24882145489198879 
1.819999999999816, -0.24914142502290995 
1.8299999999998149, -0.24974199584974982 
1.8399999999998138, -0.25070680006465673 
1.8499999999998127, -0.2521146696923208 
1.8599999999998116, -0.25399065338852755 
1.8699999999998105, -0.25622623983920295 
1.8799999999998094, -0.25851717188808226 
1.8899999999998083, -0.2604276348114556 
1.8999999999998072, -0.2616191136297019 
1.909999999999806, -0.2620531746132583 
1.919999999999805, -0.2619510464294534 
1.9299999999998039, -0.2615930741490848 
1.9399999999998028, -0.2611781445248809 
1.9499999999998017, -0.2608031851376745 
1.9599999999998006, -0.26049839197187563 
1.9699999999997995, -0.26026315630607383 
1.9799999999997984, -0.2600873379872925 
1.9899999999997973, -0.2599608982914506 
1.9999999999997962, -0.2598774358861818 
2.0099999999998173, -0.2598352628644437 
2.0199999999998384, -0.25983781375762766 
2.0299999999998595, -0.2598940945041187 
2.0399999999998806, -0.2600192704900841 
2.0499999999999017, -0.26023505204837016 
2.059999999999923, -0.26056909505341486 
2.069999999999944, -0.26105218107815953 
2.079999999999965, -0.2617116751586135 
2.089999999999986, -0.2625603000188377 
2.100000000000007, -0.2635817848161565 
2.1100000000000283, -0.2647199968351811 
2.1200000000000494, -0.26588228027611993 
2.1300000000000705, -0.2669627405029418 
2.1400000000000916, -0.26787539077104633 
2.1500000000001127, -0.2685763079972835 
2.160000000000134, -0.2690633828911929 
2.170000000000155, -0.26936060951131446 
2.180000000000176, -0.2695005971926175 
2.190000000000197, -0.2695130729275673 
2.2000000000002182, -0.2694198662767824 
2.2100000000002393, -0.2692339709446639 
2.2200000000002604, -0.2689605920540675 
2.2300000000002815, -0.2685992822021558 
2.2400000000003026, -0.26814719387625746 
2.2500000000003237, -0.267603729678099 
2.260000000000345, -0.2669761885834994 
2.270000000000366, -0.2662844594413895 
2.280000000000387, -0.2655615898211194 
2.290000000000408, -0.26484819540624943 
2.3000000000004293, -0.26418245987102706 
2.3100000000004504, -0.26359067610196085 
2.3200000000004715, -0.26308262097677254 
2.3300000000004926, -0.26265260765267334 
2.3400000000005137, -0.26228429494696626 
2.3500000000005348, -0.26195664966586896 
2.360000000000556, -0.2616490023662481 
2.370000000000577, -0.26134404146041834 
2.380000000000598, -0.2610285515166436 
2.390000000000619, -0.26069242692127986 
2.4000000000006403, -0.2603266967104455 
2.4100000000006614, -0.2599210114721311 
2.4200000000006825, -0.2594605401441227 
2.4300000000007036, -0.2589217454551117 
2.4400000000007247, -0.25826624725978864 
2.450000000000746, -0.2574324370540596 
2.460000000000767, -0.2563270340137921 
2.470000000000788, -0.2548254735667449 
2.480000000000809, -0.25279958254480583 
2.49000000000083, -0.2501879669671799 
2.5000000000008513, -0.24708266465381157 
2.5100000000008724, -0.24374807775925236 
2.5200000000008935, -0.24052010834424023 
2.5300000000009146, -0.23766146925459894 
2.5400000000009357, -0.23529053532631633 
2.550000000000957, -0.2334036566511089 
2.560000000000978, -0.23193352211724605 
2.570000000000999, -0.23079638715232234 
2.58000000000102, -0.22991679109088362 
2.5900000000010412, -0.2292362051725192 
2.6000000000010624, -0.22871387403461788 
2.6100000000010835, -0.22832508627602593 
2.6200000000011046, -0.2280594159922699 
2.6300000000011257, -0.22791999004740743 
2.6400000000011468, -0.22792416100878682 
2.650000000001168, -0.2281056046337609 
2.660000000001189, -0.2285173436952829 
2.67000000000121, -0.2292339038751321 
2.680000000001231, -0.2303478062170647 
2.6900000000012523, -0.23195026184417888 
2.7000000000012734, -0.23408132919000094 
2.7100000000012945, -0.23664560901767123 
2.7200000000013156, -0.23934026951905638 
2.7300000000013367, -0.24170842785884195 
2.740000000001358, -0.2433678285355536 
2.750000000001379, -0.24423023764298443 
2.7600000000014, -0.24448237456523042 
2.770000000001421, -0.24439426219662547 
2.780000000001442, -0.24417290428766023 
2.7900000000014633, -0.24393121379365362 
2.8000000000014844, -0.24371563565331128 
2.8100000000015055, -0.2435388213204912 
2.8200000000015266, -0.2434003841329368 
2.8300000000015477, -0.24329712176816196 
2.840000000001569, -0.24322737753943907 
2.85000000000159, -0.24319285367487026 
2.860000000001611, -0.24319959698349694 
2.870000000001632, -0.24325886684722714 
2.8800000000016532, -0.24338798379847834 
2.8900000000016743, -0.24361078575830936 
2.9000000000016954, -0.24395685007909088 
2.9100000000017165, -0.24445817920544344 
2.9200000000017377, -0.24514182983460137 
2.9300000000017588, -0.24601771407961612 
2.94000000000178, -0.2470638047573818 
2.950000000001801, -0.24821648537305424 
2.960000000001822, -0.2493772173300463 
2.970000000001843, -0.25043937536085836 
2.9800000000018643, -0.2513219233916136 
2.9900000000018854, -0.2519884400802821 
3.0000000000019065, -0.2524430703501084 
3.0100000000019276, -0.25271311239459904 
3.0200000000019487, -0.2528319432530535 
3.03000000000197, -0.25282869225382376 
3.040000000001991, -0.2527242201502146 
3.050000000002012, -0.25253080658911625 
3.060000000002033, -0.2522536040911981 
3.070000000002054, -0.25189312107566747 
3.0800000000020753, -0.2514487749095785 
3.0900000000020964, -0.25092358541229554 
3.1000000000021175, -0.250329214760426 
3.1100000000021386, -0.24968917013821956 
3.1200000000021597, -0.24903746712091174 
3.130000000002181, -0.24841192628584757 
3.140000000002202, -0.2478447692142279 
3.150000000002223, -0.24735504753089224 
3.160000000002244, -0.24694589909413117 
3.1700000000022652, -0.24660662581704304 
3.1800000000022863, -0.24631772635672583 
3.1900000000023074, -0.24605666973936455 
3.2000000000023285, -0.24580256782435042 
3.2100000000023496, -0.24553864592405988 
3.2200000000023707, -0.2452523840342859 
3.230000000002392, -0.24493395691841133 
3.240000000002413, -0.24457375354307623 
3.250000000002434, -0.24415939259062025 
3.260000000002455, -0.24367213546219496 
3.2700000000024763, -0.2430822527800926 
3.2800000000024974, -0.24234305394112393 
3.2900000000025185, -0.2413846469939648 
3.3000000000025396, -0.24011230146587886 
3.3100000000025607, -0.23842067467270306 
3.3200000000025818, -0.23623737939221953 
3.330000000002603, -0.23359015648430229 
3.340000000002624, -0.23064881883218766 
3.350000000002645, -0.2276826908639608 
3.360000000002666, -0.22494932178556465 
3.3700000000026873, -0.22260449638686636 
3.3800000000027084, -0.2206886028022085 
3.3900000000027295, -0.21916535734690168 
3.4000000000027506, -0.21796699761513535 
3.4100000000027717, -0.21702374522747472 
3.420000000002793, -0.21627716049028697 
3.430000000002814, -0.21568385093646741 
3.440000000002835, -0.21521502191517805 
3.450000000002856, -0.21485499218533444 
3.460000000002877, -0.21460013982995876 
3.4700000000028983, -0.21445887184230128 
3.4800000000029194, -0.21445274552794508 
3.4900000000029405, -0.21461838596498645 
3.5000000000029616, -0.21500879231253883 
3.5100000000029827, -0.21569017290502485 
3.520000000003004, -0.21672580716827658 
3.530000000003025, -0.21813347559184715 
3.540000000003046, -0.21980981369821392 
3.550000000003067, -0.22145954791569494 
3.5600000000030882, -0.2226421490672362 
3.5700000000031094, -0.22301088789333928 
3.5800000000031305, -0.22256141122676404 
3.5900000000031516, -0.22160048094381843 
3.6000000000031727, -0.22049263941918212 
3.6100000000031938, -0.21947605915015173 
3.620000000003215, -0.21864421268252987 
3.630000000003236, -0.218003318983983 
3.640000000003257, -0.21752554679880584 
3.650000000003278, -0.21717796314823654 
3.6600000000032993, -0.21693396169564205 
3.6700000000033204, -0.216776284202055 
3.6800000000033415, -0.21669709234131398 
3.6900000000033626, -0.21669757315455448 
3.7000000000033837, -0.21678799989944153 
3.710000000003405, -0.216988426359302 
3.720000000003426, -0.217329715372209 
3.730000000003447, -0.21785401834708132 
3.740000000003468, -0.21861286925802173 
3.750000000003489, -0.21965969888017178 
3.7600000000035103, -0.2210326679750326 
3.7700000000035314, -0.22272626350363564 
3.7800000000035525, -0.2246606811767275 
3.7900000000035736, -0.22667420029453195 
3.8000000000035947, -0.22856359687104724 
3.810000000003616, -0.2301596601387413 
3.820000000003637, -0.23138341544888513 
3.830000000003658, -0.23224580099382122 
3.840000000003679, -0.23280849721850588 
3.8500000000037002, -0.2331442561280031 
3.8600000000037213, -0.23331522970659915 
3.8700000000037424, -0.23336695364557208 
3.8800000000037635, -0.23333000519762853 
3.8900000000037847, -0.2332239005223764 
3.9000000000038058, -0.2330610398900717 
3.910000000003827, -0.23285028506853206 
3.920000000003848, -0.2326003023285618 
3.930000000003869, -0.23232262522177655 
3.94000000000389, -0.23203384759106202 
3.9500000000039113, -0.23175591119449518 
3.9600000000039324, -0.23151367966104736 
3.9700000000039535, -0.2313300542229273 
3.9800000000039746, -0.2312201153537013 
3.9900000000039957, -0.23118630774978008 
4.000000000004016, -0.23121645560273074 
4.010000000003993, -0.23128575041499802 
4.02000000000397, -0.23136259736977288 
4.030000000003946, -0.2314162671982075 
4.040000000003923, -0.231423019804777 
4.0500000000039, -0.23136828699376646 
4.0600000000038765, -0.23124495528351288 
4.070000000003853, -0.2310495419769724 
4.08000000000383, -0.23077807236783254 
4.090000000003807, -0.23042253517422323 
4.100000000003783, -0.22996804997256287 
4.11000000000376, -0.22939084617468158 
4.120000000003737, -0.22865790136215006 
4.130000000003713, -0.2277304533726348 
4.14000000000369, -0.2265746464887708 
4.150000000003667, -0.22518065151819985 
4.1600000000036434, -0.22358381785942325 
4.17000000000362, -0.22187172022755122 
4.180000000003597, -0.22016388124049463 
4.1900000000035735, -0.21857254307193488 
4.20000000000355, -0.2171704076564922 
4.210000000003527, -0.2159823545990121 
4.220000000003504, -0.21499675665796908 
4.23000000000348, -0.21418273278118422 
4.240000000003457, -0.2135040644453154 
4.250000000003434, -0.2129273537812501 
4.26000000000341, -0.21242553115110824 
4.270000000003387, -0.21197853274004458 
4.280000000003364, -0.2115725937635915 
4.2900000000033405, -0.2111990318323908 
4.300000000003317, -0.21085285839432535 
4.310000000003294, -0.2105310247814886 
4.320000000003271, -0.21022943153432072 
4.330000000003247, -0.20993678714191807 
4.340000000003224, -0.20962200604257517 
4.350000000003201, -0.20921149310711015 
4.360000000003177, -0.20855886661023107 
4.370000000003154, -0.2074324193867186 
4.380000000003131, -0.20557892589863286 
4.390000000003107, -0.20289695108556968 
4.400000000003084, -0.19959791889630712 
4.410000000003061, -0.19614199088544032 
4.4200000000030375, -0.19297664485813587 
4.430000000003014, -0.1903453958349876 
4.440000000002991, -0.18828695507102303 
4.450000000002968, -0.18672770588946458 
4.460000000002944, -0.1855624253948094 
4.470000000002921, -0.1846953176489619 
4.480000000002898, -0.1840531867577639 
4.490000000002874, -0.18358601712713635 
4.500000000002851, -0.1832638570626722 
4.510000000002828, -0.18307383895924323 
4.520000000002804, -0.18301867038699896 
4.530000000002781, -0.18311694802436157 
4.540000000002758, -0.18340523610721443 
4.5500000000027345, -0.18394133829611292 
4.560000000002711, -0.1848068472716657 
4.570000000002688, -0.18610384289156978 
4.580000000002665, -0.1879347886509574 
4.590000000002641, -0.19034957619317044 
4.600000000002618, -0.19325542824813005 
4.610000000002595, -0.1963401681132626 
4.620000000002571, -0.1991278178971838 
4.630000000002548, -0.201212964690448 
4.640000000002525, -0.202480368696159 
4.6500000000025015, -0.20308795904266191 
4.660000000002478, -0.2032859654126086 
4.670000000002455, -0.20327785369184737 
4.6800000000024315, -0.20318579870816836 
4.690000000002408, -0.2030706353366992 
4.700000000002385, -0.20295905080324853 
4.710000000002362, -0.20286215331298646 
4.720000000002338, -0.2027855443197412 
4.730000000002315, -0.20273435635192466 
4.740000000002292, -0.20271593231930804 
4.750000000002268, -0.20274161268332005 
4.760000000002245, -0.2028282342249367 
4.770000000002222, -0.20299933948875407 
4.7800000000021985, -0.20328556396023756 
4.790000000002175, -0.20372309917764625 
4.800000000002152, -0.20434855390462553 
4.810000000002129, -0.2051883756152914 
4.820000000002105, -0.20624256879068525 
4.830000000002082, -0.2074676072954404 
4.840000000002059, -0.20877090026001305 
