t, s[1].omega / s[0].omega 
0, -0.5699977366828299 
0.009999999999999995, -0.5697792766649399 
0.019999999999999934, -0.5695704700077772 
0.029999999999999874, -0.5693562110365586 
0.04000000000000012, -0.5691185046004577 
0.050000000000000405, -0.5688429125191051 
0.06000000000000069, -0.5685222823475706 
0.07000000000000098, -0.5681572613524355 
0.08000000000000126, -0.5677551692988533 
0.09000000000000155, -0.5673292916347844 
0.10000000000000184, -0.5669000524814841 
0.11000000000000212, -0.566498879868912 
0.12000000000000241, -0.5661753463278221 
0.130000000000002, -0.5660081686215367 
0.1400000000000009, -0.5661203178054578 
0.1499999999999998, -0.566696840683712 
0.1599999999999987, -0.5679992652860174 
0.1699999999999976, -0.5703602233148108 
0.1799999999999965, -0.5741263439635484 
0.1899999999999954, -0.5795112172473075 
0.1999999999999943, -0.5863684169082547 
0.2099999999999932, -0.5940346152197598 
0.2199999999999921, -0.6014902848737123 
0.229999999999991, -0.607840726750317 
0.2399999999999899, -0.6127002724443783 
0.2499999999999888, -0.6161625316778044 
0.2599999999999877, -0.6185333085255077 
0.2699999999999866, -0.6201216670128316 
0.2799999999999855, -0.6211642735491288 
0.2899999999999844, -0.6218237220252129 
0.2999999999999833, -0.6222065003179165 
0.3099999999999822, -0.622379423267185 
0.3199999999999811, -0.6223805477519211 
0.32999999999998, -0.6222254270081924 
0.3399999999999789, -0.6219102209266053 
0.3499999999999778, -0.6214132896589531 
0.35999999999997667, -0.6206975287093439 
0.36999999999997557, -0.6197168147795554 
0.37999999999997447, -0.6184301963973464 
0.38999999999997337, -0.616824012793768 
0.39999999999997227, -0.6149334813694817 
0.40999999999997117, -0.6128479428303472 
0.41999999999997006, -0.6106905074743025 
0.42999999999996896, -0.6085825613589839 
0.43999999999996786, -0.6066151196199142 
0.44999999999996676, -0.6048397837758144 
0.45999999999996566, -0.6032758848484536 
0.46999999999996456, -0.6019235484067113 
0.47999999999996346, -0.6007751104610277 
0.48999999999996235, -0.5998222660299866 
0.49999999999996125, -0.5990593940123622 
0.5099999999999602, -0.5984844484769665 
0.519999999999959, -0.5980986751349857 
0.529999999999958, -0.5979060055319445 
0.5399999999999568, -0.5979126257357079 
0.5499999999999557, -0.5981269471690841 
0.5599999999999546, -0.5985599631677494 
0.5699999999999535, -0.5992256843742522 
0.5799999999999524, -0.6001409456595679 
0.5899999999999513, -0.6013233407346873 
0.5999999999999502, -0.6027855110394007 
0.6099999999999491, -0.6045240834353564 
0.619999999999948, -0.6065034944556694 
0.6299999999999469, -0.6086401012452222 
0.6399999999999458, -0.610798880767784 
0.6499999999999447, -0.6128155961740496 
0.6599999999999436, -0.6145420971024093 
0.6699999999999425, -0.6158896575667616 
0.6799999999999414, -0.6168426162451969 
0.6899999999999403, -0.6174394715070249 
0.6999999999999392, -0.6177413460059009 
0.7099999999999381, -0.6178068130001791 
0.719999999999937, -0.6176786814908029 
0.7299999999999359, -0.6173792228990769 
0.7399999999999348, -0.6169085612782057 
0.7499999999999337, -0.6162423450367642 
0.7599999999999326, -0.615326202790449 
0.7699999999999315, -0.6140651484949529 
0.7799999999999304, -0.6123069391955197 
0.7899999999999293, -0.6098222006894025 
0.7999999999999282, -0.6062968641889642 
0.8099999999999271, -0.6013790065787487 
0.819999999999926, -0.5948402648929183 
0.8299999999999249, -0.5868389989622071 
0.8399999999999238, -0.5780748372140077 
0.8499999999999227, -0.5695761768933485 
0.8599999999999216, -0.5622284706868713 
0.8699999999999205, -0.5564583075154694 
0.8799999999999194, -0.5522543831748064 
0.8899999999999183, -0.5493626848409129 
0.8999999999999172, -0.5474634883942638 
0.9099999999999161, -0.5462670881361287 
0.919999999999915, -0.545546007171865 
0.9299999999999139, -0.5451350015774055 
0.9399999999999128, -0.544919551886234 
0.9499999999999117, -0.5448226702306443 
0.9599999999999106, -0.5447936606034449 
0.9699999999999095, -0.5447997292441087 
0.9799999999999084, -0.5448203575641171 
0.9899999999999073, -0.5448440595907702 
0.9999999999999062, -0.5448669662335646 
1.0099999999999052, -0.5448923197504267 
1.019999999999904, -0.5449294787202513 
1.029999999999903, -0.5449909353785982 
1.039999999999902, -0.5450867820450093 
1.0499999999999008, -0.545217994494409 
1.0599999999998997, -0.5453716858305445 
1.0699999999998986, -0.5455215788477888 
1.0799999999998975, -0.5456345611270609 
1.0899999999998964, -0.5456803624498219 
1.0999999999998953, -0.5456391703614721 
1.1099999999998942, -0.5455037290053989 
1.119999999999893, -0.5452765045775012 
1.129999999999892, -0.5449650311909979 
1.1399999999998909, -0.5445782344771468 
1.1499999999998898, -0.5441249805193721 
1.1599999999998887, -0.5436150216649459 
1.1699999999998876, -0.5430622629030867 
1.1799999999998865, -0.5424903318145251 
1.1899999999998854, -0.5419399430987127 
1.1999999999998843, -0.5414751854350104 
1.2099999999998832, -0.5411797344838726 
1.219999999999882, -0.5411240365076907 
1.229999999999881, -0.5412826081929408 
1.2399999999998799, -0.5414249293373318 
1.2499999999998788, -0.5411169506930549 
1.2599999999998777, -0.5399927537059752 
1.2699999999998766, -0.5381227283108713 
1.2799999999998755, -0.5360071284969392 
1.2899999999998744, -0.5341755585337099 
1.2999999999998733, -0.5328822801822857 
1.3099999999998722, -0.5321139163052873 
1.319999999999871, -0.5317339831225569 
1.32999999999987, -0.5315941833248784 
1.3399999999998689, -0.531579534001845 
1.3499999999998678, -0.5316137170883217 
1.3599999999998666, -0.5316501291771704 
1.3699999999998655, -0.5316611540250549 
1.3799999999998644, -0.5316297798070719 
1.3899999999998633, -0.531544225687262 
1.3999999999998622, -0.531395337424371 
1.4099999999998611, -0.531176490961213 
1.41999999999986, -0.5308856630886065 
1.429999999999859, -0.530528662869883 
1.4399999999998578, -0.5301213761934206 
1.4499999999998567, -0.52968839722784 
1.4599999999998556, -0.5292570146758498 
1.4699999999998545, -0.528848748567626 
1.4799999999998534, -0.528472759627927 
1.4899999999998523, -0.5281244647145802 
1.4999999999998512, -0.5277895700811295 
1.5099999999998501, -0.5274509063676953 
1.519999999999849, -0.5270945850675732 
1.529999999999848, -0.5267133085184822 
1.5399999999998468, -0.5263069169215848 
1.5499999999998457, -0.5258817656685745 
1.5599999999998446, -0.5254506943242611 
1.5699999999998435, -0.5250348092822091 
1.5799999999998424, -0.5246678518880321 
1.5899999999998413, -0.5244038177258085 
1.5999999999998402, -0.5243284747296165 
1.6099999999998391, -0.5245748360118874 
1.619999999999838, -0.5253401509016701 
1.629999999999837, -0.5268951337290969 
1.6399999999998358, -0.5295621858503641 
1.6499999999998347, -0.5336222217271722 
1.6599999999998336, -0.539119785006527 
1.6699999999998325, -0.5456377730292126 
1.6799999999998314, -0.5522881230551149 
1.6899999999998303, -0.5581096221571367 
1.6999999999998292, -0.5625810450497355 
1.709999999999828, -0.5657358097127175 
1.719999999999827, -0.5678870052790607 
1.729999999999826, -0.5693529814461156 
1.7399999999998248, -0.5703585428778409 
1.7499999999998237, -0.5710435915473319 
1.7599999999998226, -0.5714939366605013 
1.7699999999998215, -0.571763386665406 
1.7799999999998204, -0.5718854169798883 
1.7899999999998193, -0.5718786695642464 
1.7999999999998182, -0.5717494934858355 
1.809999999999817, -0.5714933897409855 
1.819999999999816, -0.5710967884343783 
1.8299999999998149, -0.570540754545371 
1.8399999999998138, -0.5698081778361945 
1.8499999999998127, -0.5688945061423147 
1.8599999999998116, -0.5678184557546374 
1.8699999999998105, -0.5666256723337147 
1.8799999999998094, -0.5653801877808089 
1.8899999999998083, -0.5641468839424354 
1.8999999999998072, -0.5629751691192902 
1.909999999999806, -0.5618920759492597 
1.919999999999805, -0.5609052589155248 
1.9299999999998039, -0.5600110743680192 
1.9399999999998028, -0.5592027701334897 
1.9499999999998017, -0.5584762895305764 
1.9599999999998006, -0.5578335319846308 
1.9699999999997995, -0.5572840372380689 
1.9799999999997984, -0.55684614481734 
1.9899999999997973, -0.5565483071936325 
1.9999999999997962, -0.556430849784883 
2.0099999999998173, -0.556548221474681 
2.0199999999998384, -0.5569715923761399 
2.0299999999998595, -0.5577913297063438 
2.0399999999998806, -0.5591181052109869 
2.0499999999999017, -0.5610797414366384 
2.059999999999923, -0.5638081017171848 
2.069999999999944, -0.5674072239760392 
2.079999999999965, -0.5718949431698552 
2.089999999999986, -0.5771256132829901 
2.100000000000007, -0.5827383019882644 
2.1100000000000283, -0.5882050155914933 
2.1200000000000494, -0.5930046053568865 
2.1300000000000705, -0.5968182691033114 
2.1400000000000916, -0.5995975151380338 
2.1500000000001127, -0.601484354045777 
2.160000000000134, -0.6026869361609432 
2.170000000000155, -0.6033959114396702 
2.180000000000176, -0.6037534751372831 
2.190000000000197, -0.6038523261472956 
2.2000000000002182, -0.6037438987608043 
2.2100000000002393, -0.6034457757398142 
2.2200000000002604, -0.6029450323534946 
2.2300000000002815, -0.6021973023672024 
2.2400000000003026, -0.6011232347911359 
2.2500000000003237, -0.5996070919345039 
2.260000000000345, -0.5975076754767392 
2.270000000000366, -0.5946962409180693 
2.280000000000387, -0.5911270862931132 
2.290000000000408, -0.5869117597104849 
2.3000000000004293, -0.5823323992199083 
2.3100000000004504, -0.5777582511414308 
2.3200000000004715, -0.5735178042620565 
2.3300000000004926, -0.569815755127663 
2.3400000000005137, -0.5667267261926918 
2.3500000000005348, -0.5642345832546196 
2.360000000000556, -0.5622772695207159 
2.370000000000577, -0.5607782518275378 
2.380000000000598, -0.5596632250484308 
2.390000000000619, -0.558866944160877 
2.4000000000006403, -0.558334956994167 
2.4100000000006614, -0.5580232630094535 
2.4200000000006825, -0.5578974232991927 
2.4300000000007036, -0.5579317453751127 
2.4400000000007247, -0.5581087179656097 
2.450000000000746, -0.5584186554242583 
2.460000000000767, -0.5588593359865037 
2.470000000000788, -0.5594351418151984 
2.480000000000809, -0.560154800357201 
2.49000000000083, -0.5610264914688416 
2.5000000000008513, -0.5620493835449224 
2.5100000000008724, -0.5632023988335237 
2.5200000000008935, -0.564434501096292 
2.5300000000009146, -0.565664230474054 
2.5400000000009357, -0.5667946603144862 
2.550000000000957, -0.5677400050523632 
2.560000000000978, -0.5684488849195908 
2.570000000000999, -0.5689104686434981 
2.58000000000102, -0.5691434965285682 
2.5900000000010412, -0.5691788584459438 
2.6000000000010624, -0.5690452745956295 
2.6100000000010835, -0.5687609097207058 
2.6200000000011046, -0.5683291364912495 
2.6300000000011257, -0.567735503517802 
2.6400000000011468, -0.5669433142833146 
2.650000000001168, -0.5658855238659775 
2.660000000001189, -0.5644506198507508 
2.67000000000121, -0.562461064997584 
2.680000000001231, -0.559649332422312 
2.6900000000012523, -0.5556579669589652 
2.7000000000012734, -0.5501279104808847 
2.7100000000012945, -0.5429372861083797 
2.7200000000013156, -0.5344908864775182 
2.7300000000013367, -0.5257318886578696 
2.740000000001358, -0.517720424946517 
2.750000000001379, -0.511146416661474 
2.7600000000014, -0.5061863152129407 
2.770000000001421, -0.5026650802302715 
2.780000000001442, -0.5002730745331112 
2.7900000000014633, -0.49870321761332537 
2.8000000000014844, -0.49770540525321644 
2.8100000000015055, -0.4970946070499999 
2.8200000000015266, -0.4967410616218387 
2.8300000000015477, -0.49655674444962894 
2.840000000001569, -0.4964834360601074 
2.85000000000159, -0.49648372829422993 
2.860000000001611, -0.496534876616578 
2.870000000001632, -0.4966250169977977 
2.8800000000016532, -0.49675114281835386 
2.8900000000016743, -0.49691802114824063 
2.9000000000016954, -0.497136855516092 
2.9100000000017165, -0.4974222513015506 
2.9200000000017377, -0.4977864480257185 
2.9300000000017588, -0.4982312331230324 
2.94000000000178, -0.4987401807146208 
2.950000000001801, -0.49927570695871 
2.960000000001822, -0.4997848424747039 
2.970000000001843, -0.5002130226298928 
2.9800000000018643, -0.5005190064492107 
2.9900000000018854, -0.5006825928221683 
3.0000000000019065, -0.5007023893963567 
3.0100000000019276, -0.5005875056620355 
3.0200000000019487, -0.5003486430842718 
3.03000000000197, -0.4999914419389985 
3.040000000001991, -0.4995119957367054 
3.050000000002012, -0.4988929507053248 
3.060000000002033, -0.49809808567130665 
3.070000000002054, -0.4970627635084863 
3.0800000000020753, -0.4956768520340195 
3.0900000000020964, -0.4937571395924111 
3.1000000000021175, -0.49101426289699096 
3.1100000000021386, -0.4870483034085062 
3.1200000000021597, -0.48145811271735434 
3.130000000002181, -0.47413633823996487 
3.140000000002202, -0.4655899216685119 
3.150000000002223, -0.4568737116313112 
3.160000000002244, -0.44905660295306316 
3.1700000000022652, -0.44273889748028755 
3.1800000000022863, -0.43799934223246445 
3.1900000000023074, -0.43461368773335884 
3.2000000000023285, -0.43226996947747354 
3.2100000000023496, -0.43068289519694825 
3.2200000000023707, -0.4296300401727233 
3.230000000002392, -0.4289510982271059 
3.240000000002413, -0.42853558376872003 
3.250000000002434, -0.4283098368698098 
3.260000000002455, -0.4282267002986423 
3.2700000000024763, -0.42825830102273466 
3.2800000000024974, -0.42839147717726844 
3.2900000000025185, -0.42862520133783494 
3.3000000000025396, -0.4289692517480779 
3.3100000000025607, -0.42944311909824967 
3.3200000000025818, -0.43007367542528446 
3.330000000002603, -0.4308896903080062 
3.340000000002624, -0.4319114078800661 
3.350000000002645, -0.4331350866007727 
3.360000000002666, -0.4345167784412385 
3.3700000000026873, -0.43596575003216803 
3.3800000000027084, -0.4373591820141335 
3.3900000000027295, -0.4385775887469617 
3.4000000000027506, -0.4395411263576593 
3.4100000000027717, -0.4402237810394885 
3.420000000002793, -0.4406417801817873 
3.430000000002814, -0.4408307562920616 
3.440000000002835, -0.440826187684888 
3.450000000002856, -0.4406518484324834 
3.460000000002877, -0.44031403568196736 
3.4700000000028983, -0.4397977548645762 
3.4800000000029194, -0.43906212067194367 
3.4900000000029405, -0.4380341990440738 
3.5000000000029616, -0.43660384670939767 
3.5100000000029827, -0.43462837071717636 
3.520000000003004, -0.4319638611736806 
3.530000000003025, -0.4285376781662097 
3.540000000003046, -0.4244413508530237 
3.550000000003067, -0.4199666316621865 
3.5600000000030882, -0.4155180476909751 
3.5700000000031094, -0.41145257199563723 
3.5800000000031305, -0.40797221434837044 
3.5900000000031516, -0.40512220911820257 
3.6000000000031727, -0.4028493355497564 
3.6100000000031938, -0.40106172524402195 
3.620000000003215, -0.3996662425568649 
3.630000000003236, -0.3985852028248936 
3.640000000003257, -0.39776103165026333 
3.650000000003278, -0.3971557282149416 
3.6600000000032993, -0.39674900684014425 
3.6700000000033204, -0.39653695198598343 
3.6800000000033415, -0.39653197816836316 
3.6900000000033626, -0.39676444454122495 
3.7000000000033837, -0.3972860706536284 
3.710000000003405, -0.39817499652299443 
3.720000000003426, -0.3995414601403587 
3.730000000003447, -0.40153083378816934 
3.740000000003468, -0.40431604630948215 
3.750000000003489, -0.4080640531300038 
3.7600000000035103, -0.4128568846655079 
3.7700000000035314, -0.4185675644924515 
3.7800000000035525, -0.424759750574077 
3.7900000000035736, -0.4307508103574718 
3.8000000000035947, -0.43588785839098987 
3.810000000003616, -0.4398330110414287 
3.820000000003637, -0.4426115796552564 
3.830000000003658, -0.444453257427026 
3.840000000003679, -0.4456211200857158 
3.8500000000037002, -0.44632721725507957 
3.8600000000037213, -0.4467172096979783 
3.8700000000037424, -0.4468822813204475 
3.8800000000037635, -0.4468746691680896 
3.8900000000037847, -0.44671943696298755 
3.9000000000038058, -0.4464222331178047 
3.910000000003827, -0.4459749824533407 
3.920000000003848, -0.445362069127042 
3.930000000003869, -0.44456938932050616 
3.94000000000389, -0.4435968172538168 
3.9500000000039113, -0.44247033751120507 
3.9600000000039324, -0.44124581224234916 
3.9700000000039535, -0.43999828894590187 
3.9800000000039746, -0.43880075556521464 
3.9900000000039957, -0.43770477602200303 
4.000000000004016, -0.4367327936760885 
4.010000000003993, -0.43588232079913325 
4.02000000000397, -0.4351360789932059 
4.030000000003946, -0.43447221818327575 
4.040000000003923, -0.4338715639241581 
4.0500000000039, -0.43332145914254283 
4.0600000000038765, -0.43281728397022123 
4.070000000003853, -0.43236320613196827 
4.08000000000383, -0.43197353065687033 
4.090000000003807, -0.4316756748819247 
4.100000000003783, -0.43151560469678535 
4.11000000000376, -0.4315665269559781 
4.120000000003737, -0.4319413808511053 
4.130000000003713, -0.4328082573655309 
4.14000000000369, -0.4344031548842097 
4.150000000003667, -0.4370226946334178 
4.1600000000036434, -0.4409586386819756 
4.17000000000362, -0.4463238954232797 
4.180000000003597, -0.45278584531123334 
4.1900000000035735, -0.4594351910854372 
4.20000000000355, -0.4651360857308582 
4.210000000003527, -0.4692145328096352 
4.220000000003504, -0.47174884347447693 
4.23000000000348, -0.4732261400353819 
4.240000000003457, -0.4741095627923155 
4.250000000003434, -0.4746818387323998 
4.26000000000341, -0.4750796166833474 
4.270000000003387, -0.4753617607434716 
4.280000000003364, -0.4755535091486087 
4.2900000000033405, -0.47566669939896594 
4.300000000003317, -0.4757072044385341 
4.310000000003294, -0.4756771797754298 
4.320000000003271, -0.4755758158996115 
4.330000000003247, -0.47540029360504554 
4.340000000003224, -0.4751478306639253 
4.350000000003201, -0.47481914866153685 
4.360000000003177, -0.4744227086229437 
4.370000000003154, -0.47397765915398915 
4.380000000003131, -0.4735127486740816 
4.390000000003107, -0.473060007146101 
4.400000000003084, -0.47264541907863655 
4.410000000003061, -0.4722811761431448 
4.4200000000030375, -0.4719632368942889 
4.430000000003014, -0.4716748566138609 
4.440000000002991, -0.47139382232800797 
4.450000000002968, -0.47109978622355353 
4.460000000002944, -0.4707788139558713 
4.470000000002921, -0.47042443623885266 
4.480000000002898, -0.4700364760356127 
4.490000000002874, -0.4696195418848025 
4.500000000002851, -0.46918259059767714 
4.510000000002828, -0.46874028111437616 
4.520000000002804, -0.4683164627932575 
4.530000000002781, -0.46794991214119036 
4.540000000002758, -0.4677016646382799 
4.5500000000027345, -0.46766059470329485 
4.560000000002711, -0.4679369607264411 
4.570000000002688, -0.468621235178763 
4.580000000002665, -0.46967868534306156 
4.590000000002641, -0.4707948668554491 
4.600000000002618, -0.4713358028334829 
4.610000000002595, -0.47067578749801137 
4.620000000002571, -0.4687500872517608 
4.630000000002548, -0.46616118973553783 
4.640000000002525, -0.4636677563111008 
4.6500000000025015, -0.46171369493256426 
4.660000000002478, -0.4603803958445029 
4.670000000002455, -0.45955728096785997 
4.6800000000024315, -0.45908931366746 
4.690000000002408, -0.45884406100066705 
4.700000000002385, -0.45872700031506036 
4.710000000002362, -0.4586763886324713 
4.720000000002338, -0.45865373632636885 
4.730000000002315, -0.4586356178677836 
4.740000000002292, -0.45860811702740056 
4.750000000002268, -0.45856379781681034 
4.760000000002245, -0.45850077093255875 
4.770000000002222, -0.45842322551764747 
4.7800000000021985, -0.4583423431084839 
4.790000000002175, -0.45827596535758364 
4.800000000002152, -0.45824542528605183 
4.810000000002129, -0.4582691841010272 
4.820000000002105, -0.4583549862347896 
4.830000000002082, -0.45849388955179 
4.840000000002059, -0.45865962020781914 
4.850000000002035, -0.45881470838878924 
4.860000000002012, -0.4589211331964901 
4.870000000001989, -0.4589501030293067 
4.880000000001965, -0.4588862558693907 
4.890000000001942, -0.4587256384847615 
4.900000000001919, -0.4584703005004263 
