t, s[1].omega / s[0].omega 
0, -1.659997094495099 
0.009999999999999995, -1.6595873514417143 
0.019999999999999934, -1.6589424827167178 
0.029999999999999874, -1.6580702934063325 
0.04000000000000012, -1.657002047488783 
0.050000000000000405, -1.6558202124646968 
0.06000000000000069, -1.6546820117382377 
0.07000000000000098, -1.6537893112119373 
0.08000000000000126, -1.653266891409227 
0.09000000000000155, -1.6530558471891077 
0.10000000000000184, -1.6529758796708343 
0.11000000000000212, -1.6528659647746777 
0.12000000000000241, -1.6526341227374626 
0.130000000000002, -1.6522250891574939 
0.1400000000000009, -1.6515803562224103 
0.1499999999999998, -1.6506288840797687 
0.1599999999999987, -1.649346966873059 
0.1699999999999976, -1.6479463641132654 
0.1799999999999965, -1.6470928338588107 
0.1899999999999954, -1.647617600295563 
0.1999999999999943, -1.6495845415896777 
0.2099999999999932, -1.652103965163537 
0.2199999999999921, -1.6542734953690403 
0.229999999999991, -1.65574434079101 
0.2399999999999899, -1.6565616050458511 
0.2499999999999888, -1.656889013480931 
0.2599999999999877, -1.656876525091087 
0.2699999999999866, -1.6566320987996117 
0.2799999999999855, -1.6562344207654458 
0.2899999999999844, -1.6557553959640114 
0.2999999999999833, -1.6552742973449015 
0.3099999999999822, -1.654868853011223 
0.3199999999999811, -1.6545882294006762 
0.32999999999998, -1.6544338869333362 
0.3399999999999789, -1.6543610931652897 
0.3499999999999778, -1.6542967138476836 
0.35999999999997667, -1.654163406117576 
0.36999999999997557, -1.6538915068527307 
0.37999999999997447, -1.6534103414398351 
0.38999999999997337, -1.6526293436395367 
0.39999999999997227, -1.6514243860303837 
0.40999999999997117, -1.6496503534989018 
0.41999999999997006, -1.6472215653348954 
0.42999999999996896, -1.6443067286903155 
0.43999999999996786, -1.6415393635621836 
0.44999999999996676, -1.6398028396333744 
0.45999999999996566, -1.6394303622772366 
0.46999999999996456, -1.63989378350755 
0.47999999999996346, -1.6404891613997683 
0.48999999999996235, -1.6408667745702712 
0.49999999999996125, -1.6409691073829111 
0.5099999999999602, -1.6408374772022423 
0.519999999999959, -1.6405188953273835 
0.529999999999958, -1.6400550793183075 
0.5399999999999568, -1.6395157502054514 
0.5499999999999557, -1.6390491828411897 
0.5599999999999546, -1.6388782237223958 
0.5699999999999535, -1.6391605808930656 
0.5799999999999524, -1.639831449387417 
0.5899999999999513, -1.640654459294079 
0.5999999999999502, -1.6414008116402943 
0.6099999999999491, -1.6419397864618563 
0.619999999999948, -1.6422247518935031 
0.6299999999999469, -1.6422530743617707 
0.6399999999999458, -1.642038014955133 
0.6499999999999447, -1.641596060300128 
0.6599999999999436, -1.640945732155195 
0.6699999999999425, -1.6401156338410587 
0.6799999999999414, -1.639160370342107 
0.6899999999999403, -1.6381784683278144 
0.6999999999999392, -1.6373121528396282 
0.7099999999999381, -1.6366952404792283 
0.719999999999937, -1.636360355819648 
0.7299999999999359, -1.636209995333195 
0.7399999999999348, -1.6360979475993986 
0.7499999999999337, -1.6359112624512817 
0.7599999999999326, -1.6355774139624475 
0.7699999999999315, -1.6350306138984045 
0.7799999999999304, -1.6341819806331177 
0.7899999999999293, -1.6329228574011896 
0.7999999999999282, -1.631217912822867 
0.8099999999999271, -1.629360733740794 
0.819999999999926, -1.628209011214573 
0.8299999999999249, -1.6286988977458532 
0.8399999999999238, -1.6307339603072843 
0.8499999999999227, -1.633227341732966 
0.8599999999999216, -1.6352598775037375 
0.8699999999999205, -1.6365591685936884 
0.8799999999999194, -1.6372274432852862 
0.8899999999999183, -1.6374469525425355 
0.8999999999999172, -1.6373652290117366 
0.9099999999999161, -1.6370831522063862 
0.919999999999915, -1.6366769419231357 
0.9299999999999139, -1.6362244576630585 
0.9399999999999128, -1.6358153020205806 
0.9499999999999117, -1.6355281424432977 
0.9599999999999106, -1.6353923122473717 
0.9699999999999095, -1.6353766899629492 
0.9799999999999084, -1.6354120812837085 
0.9899999999999073, -1.6354197936130626 
0.9999999999999062, -1.6353296707378877 
1.0099999999999052, -1.635082608088868 
1.019999999999904, -1.6346206554369271 
1.029999999999903, -1.6338746490533917 
1.039999999999902, -1.6327598405527777 
1.0499999999999008, -1.6311917813430459 
1.0599999999998997, -1.6291426925028483 
1.0699999999998986, -1.6267553010281248 
1.0799999999998975, -1.62445420482753 
1.0899999999998964, -1.622827198753471 
1.0999999999998953, -1.6221664854622984 
1.1099999999998942, -1.6222051037150986 
1.119999999999893, -1.6224613767945786 
1.129999999999892, -1.622629357493689 
1.1399999999998909, -1.6226116847490555 
1.1499999999998898, -1.6224033783422183 
1.1599999999998887, -1.6220156860615258 
1.1699999999998876, -1.6214616527380792 
1.1799999999998865, -1.6207921888166184 
1.1899999999998854, -1.6201743292330817 
1.1999999999998843, -1.6199317856628732 
1.2099999999998832, -1.620374045382146 
1.219999999999882, -1.6214822203484072 
1.229999999999881, -1.6228916984642214 
1.2399999999998799, -1.6242040044617307 
1.2499999999998788, -1.6251973899826453 
1.2599999999998777, -1.62581577736999 
1.2699999999998766, -1.626087304526117 
1.2799999999998755, -1.626065790440825 
1.2899999999998744, -1.6258044700301262 
1.2999999999998733, -1.625350261078357 
1.3099999999998722, -1.6247496055618278 
1.319999999999871, -1.624059439294816 
1.32999999999987, -1.6233553188186278 
1.3399999999998689, -1.6227271698961627 
1.3499999999998678, -1.6222541260174193 
1.3599999999998666, -1.6219617354769291 
1.3699999999998655, -1.6217984074384948 
1.3799999999998644, -1.6216661370040082 
1.3899999999998633, -1.6214703521748113 
1.3999999999998622, -1.6211350681733911 
1.4099999999998611, -1.6205830558223664 
1.41999999999986, -1.6197066249615293 
1.429999999999859, -1.6183512039217216 
1.4399999999998578, -1.6163519214252098 
1.4499999999998567, -1.613709391361482 
1.4599999999998556, -1.610934466063662 
1.4699999999998545, -1.609138343737665 
1.4799999999998534, -1.609153048010178 
1.4899999999998523, -1.6105472226113207 
1.4999999999998512, -1.612216347597735 
1.5099999999998501, -1.6134698865870376 
1.519999999999849, -1.6141785055791407 
1.529999999999848, -1.614450081426687 
1.5399999999998468, -1.6144159635597457 
1.5499999999998457, -1.614172198282939 
1.5599999999998446, -1.613788813514283 
1.5699999999998435, -1.6133404532856566 
1.5799999999998424, -1.612933397212278 
1.5899999999998413, -1.6126928017467246 
1.5999999999998402, -1.6126938467784968 
1.6099999999998391, -1.6129048899095149 
1.619999999999838, -1.613215785502185 
1.629999999999837, -1.6135077934768982 
1.6399999999998358, -1.6136930170557124 
1.6499999999998347, -1.6137168510844326 
1.6599999999998336, -1.6135455545649051 
1.6699999999998325, -1.613153687495791 
1.6799999999998314, -1.6125174970393856 
1.6899999999998303, -1.6116167027230315 
1.6999999999998292, -1.6104475018512399 
1.709999999999828, -1.609051097062911 
1.719999999999827, -1.607555214980236 
1.729999999999826, -1.6061930892848213 
1.7399999999998248, -1.60522155251474 
1.7499999999998237, -1.6047381066255475 
1.7599999999998226, -1.6046029352281355 
1.7699999999998215, -1.6045827998866453 
1.7799999999998204, -1.6045099628305604 
1.7899999999998193, -1.604304592307038 
1.7999999999998182, -1.6039262687585452 
1.809999999999817, -1.6033341042054743 
1.819999999999816, -1.6024818870576119 
1.8299999999998149, -1.601373669455704 
1.8399999999998138, -1.6002158525475607 
1.8499999999998127, -1.599573051905692 
1.8599999999998116, -1.6001295776095248 
1.8699999999998105, -1.6019711784726227 
1.8799999999998094, -1.6043894359591147 
1.8899999999998083, -1.6065773207767708 
1.8999999999998072, -1.6081512761433359 
1.909999999999806, -1.609094509549313 
1.919999999999805, -1.6095352738200457 
1.9299999999998039, -1.6096132381961226 
1.9399999999998028, -1.6094370751231053 
1.9499999999998017, -1.6090862263987529 
1.9599999999998006, -1.6086279737480589 
1.9699999999997995, -1.6081338764767192 
1.9799999999997984, -1.6076812039135622 
1.9899999999997973, -1.6073336550636288 
1.9999999999997962, -1.607117210514538 
2.0099999999998173, -1.6070109631200986 
2.0199999999998384, -1.6069561706254105 
2.0299999999998595, -1.6068779384980005 
2.0399999999998806, -1.6067051384876407 
2.0499999999999017, -1.6063732581738939 
2.059999999999923, -1.605811728086654 
2.069999999999944, -1.604928261715789 
2.079999999999965, -1.6036037009894373 
2.089999999999986, -1.6017173876619328 
2.100000000000007, -1.5992375698619798 
2.1100000000000283, -1.5963952265262666 
2.1200000000000494, -1.593810474815394 
2.1300000000000705, -1.5922205188525735 
2.1400000000000916, -1.5918311426738871 
2.1500000000001127, -1.5921645657811643 
2.160000000000134, -1.5926295075107264 
2.170000000000155, -1.5929225422140711 
2.180000000000176, -1.5929799950007069 
2.190000000000197, -1.5928253755706305 
2.2000000000002182, -1.5924904615539324 
2.2100000000002393, -1.5920033252472479 
2.2200000000002604, -1.5914187582283543 
2.2300000000002815, -1.5908765602796564 
2.2400000000003026, -1.5906276074455197 
2.2500000000003237, -1.5909127296494652 
2.260000000000345, -1.5917409137254594 
2.270000000000366, -1.5928575623064951 
2.280000000000387, -1.5939509181699623 
2.290000000000408, -1.5948193686499725 
2.3000000000004293, -1.5953866911429186 
2.3100000000004504, -1.5956517146542042 
2.3200000000004715, -1.5956439500945279 
2.3300000000004926, -1.5953999932060727 
2.3400000000005137, -1.594955626794822 
2.3500000000005348, -1.5943481921082268 
2.360000000000556, -1.5936254126925087 
2.370000000000577, -1.592855348384001 
2.380000000000598, -1.592128615967955 
2.390000000000619, -1.591540927174439 
2.4000000000006403, -1.591149892934094 
2.4100000000006614, -1.5909336032372967 
2.4200000000006825, -1.590801757096054 
2.4300000000007036, -1.5906503966798657 
2.4400000000007247, -1.5903965934834237 
2.450000000000746, -1.5899704846001783 
2.460000000000767, -1.5892875146749237 
2.470000000000788, -1.5882237516365594 
2.480000000000809, -1.586617908634284 
2.49000000000083, -1.5843564181319296 
2.5000000000008513, -1.5816224549016857 
2.5100000000008724, -1.579196436271158 
2.5200000000008935, -1.5781834942199366 
2.5300000000009146, -1.578923154023794 
2.5400000000009357, -1.5805942009272518 
2.550000000000957, -1.5821980077592193 
2.560000000000978, -1.5832893925030773 
2.570000000000999, -1.5838595593101144 
2.58000000000102, -1.584037122227143 
2.5900000000010412, -1.5839426765470563 
2.6000000000010624, -1.5836605721896457 
2.6100000000010835, -1.5832562094207616 
2.6200000000011046, -1.5828070450453686 
2.6300000000011257, -1.582424673917881 
2.6400000000011468, -1.5822324159902783 
2.650000000001168, -1.582292624694008 
2.660000000001189, -1.5825592630868908 
2.67000000000121, -1.5829153860797016 
2.680000000001231, -1.5832422768735215 
2.6900000000012523, -1.5834549030724039 
2.7000000000012734, -1.5835022892060842 
2.7100000000012945, -1.5833549167875192 
2.7200000000013156, -1.5829929133799787 
2.7300000000013367, -1.5824001097571065 
2.740000000001358, -1.5815654858083865 
2.750000000001379, -1.5804935885304656 
2.7600000000014, -1.579226267568481 
2.770000000001421, -1.5778728879626087 
2.780000000001442, -1.5766239335616268 
2.7900000000014633, -1.5756932456156716 
2.8000000000014844, -1.5751805219138748 
2.8100000000015055, -1.5749926223351403 
2.8200000000015266, -1.5749357111932345 
2.8300000000015477, -1.5748505273454536 
2.840000000001569, -1.5746498701318357 
2.85000000000159, -1.5742845729791954 
2.860000000001611, -1.5737047242595057 
2.870000000001632, -1.5728443837617787 
2.8800000000016532, -1.5716523119057244 
2.8900000000016743, -1.570216057169836 
2.9000000000016954, -1.5689770423326805 
2.9100000000017165, -1.5687365963932736 
2.9200000000017377, -1.5700180918127047 
2.9300000000017588, -1.572394257696585 
2.94000000000178, -1.57489848365199 
2.950000000001801, -1.5768644775920204 
2.960000000001822, -1.5781292228502557 
2.970000000001843, -1.5787985372079534 
2.9800000000018643, -1.5790354280885146 
2.9900000000018854, -1.578974736838183 
3.0000000000019065, -1.5787118002650824 
3.0100000000019276, -1.5783186472246187 
3.0200000000019487, -1.5778657739524875 
3.03000000000197, -1.5774339156049282 
3.040000000001991, -1.5771009971072298 
3.050000000002012, -1.5769101795895986 
3.060000000002033, -1.5768509572789133 
3.070000000002054, -1.576869508357779 
3.0800000000020753, -1.5768929864768833 
3.0900000000020964, -1.5768505427990849 
3.1000000000021175, -1.5766821831717168 
3.1100000000021386, -1.5763343485684038 
3.1200000000021597, -1.575749574105963 
3.130000000002181, -1.5748596360075358 
3.140000000002202, -1.573590459190246 
3.150000000002223, -1.5718894721656875 
3.160000000002244, -1.56978925815006 
3.1700000000022652, -1.5675024327275842 
3.1800000000022863, -1.565459977907201 
3.1900000000023074, -1.564121762274668 
3.2000000000023285, -1.5636130418180936 
3.2100000000023496, -1.563642589133349 
3.2200000000023707, -1.5638204935521163 
3.230000000002392, -1.5639133386671198 
3.240000000002413, -1.563842765796512 
3.250000000002434, -1.563596702269468 
3.260000000002455, -1.5631727608100465 
3.2700000000024763, -1.562567444935663 
3.2800000000024974, -1.561809726294418 
3.2900000000025185, -1.5610457406173766 
3.3000000000025396, -1.560621005872199 
3.3100000000025607, -1.5609661157345724 
3.3200000000025818, -1.5622161911442032 
3.330000000002603, -1.5640175780221166 
3.340000000002624, -1.56583190992819 
3.350000000002645, -1.5672960895561387 
3.360000000002666, -1.5682915306013192 
3.3700000000026873, -1.5688467699648185 
3.3800000000027084, -1.569042043522459 
3.3900000000027295, -1.5689596694432744 
3.4000000000027506, -1.5686684072823893 
3.4100000000027717, -1.568226119091244 
3.420000000002793, -1.5676903072810329 
3.430000000002814, -1.5671270406605742 
3.440000000002835, -1.5666085472785363 
3.450000000002856, -1.5661968964349386 
3.460000000002877, -1.5659219267388915 
3.4700000000028983, -1.5657657410383377 
3.4800000000029194, -1.5656674151791485 
3.4900000000029405, -1.5655487196619273 
3.5000000000029616, -1.5653369998068922 
3.5100000000029827, -1.5649659773715905 
3.520000000003004, -1.564359843759191 
3.530000000003025, -1.5634150919795937 
3.540000000003046, -1.561994440000886 
3.550000000003067, -1.559957335972748 
3.5600000000030882, -1.5572699674897863 
3.5700000000031094, -1.5542111276007373 
3.5800000000031305, -1.5515000854780774 
3.5900000000031516, -1.5499453238989076 
3.6000000000031727, -1.5497197631522235 
3.6100000000031938, -1.5502560400303984 
3.620000000003215, -1.550899394964408 
3.630000000003236, -1.5513271749405209 
3.640000000003257, -1.5514821660557083 
3.650000000003278, -1.5514023770260517 
3.6600000000032993, -1.5511330750343477 
3.6700000000033204, -1.5507090043715686 
3.6800000000033415, -1.550175100621752 
3.6900000000033626, -1.5496323134565553 
3.7000000000033837, -1.549275534741863 
3.710000000003405, -1.5493386822521742 
3.720000000003426, -1.5499207157803236 
3.730000000003447, -1.5508788869350363 
3.740000000003468, -1.551939690977369 
3.750000000003489, -1.5528726860752056 
3.7600000000035103, -1.5535566504010425 
3.7700000000035314, -1.5539567240233758 
3.7800000000035525, -1.5540837376351608 
3.7900000000035736, -1.553966108597777 
3.8000000000035947, -1.55363629542761 
3.810000000003616, -1.5531277760578088 
3.820000000003637, -1.5524794259811037 
3.830000000003658, -1.5517439785621328 
3.840000000003679, -1.5509945807038352 
3.8500000000037002, -1.5503205428251288 
3.8600000000037213, -1.549803267957778 
3.8700000000037424, -1.5494752112379564 
3.8800000000037635, -1.5492947542083182 
3.8900000000037847, -1.549170307601912 
3.9000000000038058, -1.5490080552780923 
3.910000000003827, -1.5487333591631292 
3.920000000003848, -1.5482783174451933 
3.930000000003869, -1.5475563037148736 
3.94000000000389, -1.5464408710349797 
3.9500000000039113, -1.5447693388641661 
3.9600000000039324, -1.5424190613012132 
3.9700000000039535, -1.5395227508580915 
3.9800000000039746, -1.536742231349078 
3.9900000000039957, -1.535114068366694 
4.000000000004016, -1.5351553094224022 
4.010000000003993, -1.5363166526153162 
4.02000000000397, -1.5376695813630266 
4.030000000003946, -1.5386787698734872 
4.040000000003923, -1.5392422492121518 
4.0500000000039, -1.5394393393300771 
4.0600000000038765, -1.5393702711131818 
4.070000000003853, -1.5391095607302934 
4.08000000000383, -1.5387126826666069 
4.090000000003807, -1.5382441821572876 
4.100000000003783, -1.5378103521303168 
4.11000000000376, -1.537561481433952 
4.120000000003737, -1.537623551119459 
4.130000000003713, -1.53800212656494 
4.14000000000369, -1.5385741133641573 
4.150000000003667, -1.5391746766280936 
4.1600000000036434, -1.5396748037368566 
4.17000000000362, -1.54000089391918 
4.180000000003597, -1.5401210743959455 
4.1900000000035735, -1.5400267916424855 
4.20000000000355, -1.5397204022462365 
4.210000000003527, -1.5392099525829175 
4.220000000003504, -1.5385103527337527 
4.23000000000348, -1.5376505816099881 
4.240000000003457, -1.536685786987492 
4.250000000003434, -1.5357085391253975 
4.26000000000341, -1.5348438044129133 
4.270000000003387, -1.534206812004844 
4.280000000003364, -1.5338339532961804 
4.2900000000033405, -1.5336547878806253 
4.300000000003317, -1.5335448178330848 
4.310000000003294, -1.5333946751445224 
4.320000000003271, -1.5331296901485894 
4.330000000003247, -1.5326888319052232 
4.340000000003224, -1.5319954374110845 
4.350000000003201, -1.5309381663167492 
4.360000000003177, -1.5293839544967887 
4.370000000003154, -1.5272761261881125 
4.380000000003131, -1.5248729642673693 
4.390000000003107, -1.5229657651387782 
4.400000000003084, -1.522518942220573 
4.410000000003061, -1.5237049285611826 
4.4200000000030375, -1.5256874396305986 
4.430000000003014, -1.5275263506353183 
4.440000000002991, -1.5288028528209776 
4.450000000002968, -1.5295132151590851 
4.460000000002944, -1.529793406530478 
4.470000000002921, -1.5297748953511008 
4.480000000002898, -1.5295507648462192 
4.490000000002874, -1.5291874136099923 
4.500000000002851, -1.5287509971191002 
4.510000000002828, -1.5283330249713638 
4.520000000002804, -1.5280500394492527 
4.530000000002781, -1.527995281961565 
4.540000000002758, -1.528176515424493 
4.5500000000027345, -1.5285117811325715 
4.560000000002711, -1.5288841272959395 
4.570000000002688, -1.5291926748939377 
4.580000000002665, -1.5293698128137312 
4.590000000002641, -1.5293760296196308 
4.600000000002618, -1.5291888416552186 
4.610000000002595, -1.5287943138980826 
4.620000000002571, -1.5281839116206553 
4.630000000002548, -1.5273573346282752 
4.640000000002525, -1.5263321580805687 
4.6500000000025015, -1.5251607171474213 
4.660000000002478, -1.52394905076409 
4.670000000002455, -1.522857087199644 
4.6800000000024315, -1.522046239887104 
4.690000000002408, -1.5215814557596463 
4.700000000002385, -1.521383761039981 
4.710000000002362, -1.5212981696328378 
4.720000000002338, -1.5211906299989624 
4.730000000002315, -1.520978876286835 
4.740000000002292, -1.520608828920265 
4.750000000002268, -1.520021639573137 
4.760000000002245, -1.519133418785192 
4.770000000002222, -1.517844461662234 
4.7800000000021985, -1.5161201139164717 
4.790000000002175, -1.5141924960978268 
4.800000000002152, -1.5127607997694847 
4.810000000002129, -1.512710415666772 
4.820000000002105, -1.5142442681017518 
4.830000000002082, -1.5165874226420262 
4.840000000002059, -1.5187836906993142 
4.850000000002035, -1.5203623232513743 
4.860000000002012, -1.521295900270607 
4.870000000001989, -1.5217285207772902 
4.880000000001965, -1.521811792973283 
4.890000000001942, -1.5216572294007578 
4.900000000001919, -1.5213417268826217 
4.9100000000018955, -1.5209302162140594 
4.920000000001872, -1.5204998733179083 
4.930000000001849, -1.5201482303184704 
4.940000000001826, -1.5199655295740897 
