t, s[1].omega / s[0].omega 
0, -0.6899976954419241 
0.009999999999999995, -0.6897543749077292 
0.019999999999999934, -0.689482719392976 
0.029999999999999874, -0.6891759610951962 
0.04000000000000012, -0.6888276109271685 
0.050000000000000405, -0.6884354978261874 
0.06000000000000069, -0.6880039426814023 
0.07000000000000098, -0.6875442314309066 
0.08000000000000126, -0.6870747311905625 
0.09000000000000155, -0.6866218960109176 
0.10000000000000184, -0.6862226290149526 
0.11000000000000212, -0.6859276811300268 
0.12000000000000241, -0.6858051968741323 
0.130000000000002, -0.6859431327980565 
0.1400000000000009, -0.686449038738558 
0.1499999999999998, -0.6874455505845188 
0.1599999999999987, -0.6890596933819884 
0.1699999999999976, -0.6914035236982764 
0.1799999999999965, -0.6945432829237258 
0.1899999999999954, -0.6984566231635945 
0.1999999999999943, -0.7029872387588665 
0.2099999999999932, -0.7078245431747071 
0.2199999999999921, -0.7125471918542258 
0.229999999999991, -0.7167406408839299 
0.2399999999999899, -0.7201307478793928 
0.2499999999999888, -0.7226441077294549 
0.2599999999999877, -0.7243677112770526 
0.2699999999999866, -0.72546156287719 
0.2799999999999855, -0.7260870173819753 
0.2899999999999844, -0.7263720529157786 
0.2999999999999833, -0.7264035103061499 
0.3099999999999822, -0.7262307644815906 
0.3199999999999811, -0.7258709216570979 
0.32999999999998, -0.7253111593681868 
0.3399999999999789, -0.7245066380371278 
0.3499999999999778, -0.7233735320474242 
0.35999999999997667, -0.7217778458027232 
0.36999999999997557, -0.7195239954575697 
0.37999999999997447, -0.7163558104525546 
0.38999999999997337, -0.7119979974450711 
0.39999999999997227, -0.7062747508020614 
0.40999999999997117, -0.6992999363285488 
0.41999999999997006, -0.6916136963414369 
0.42999999999996896, -0.6840755253431502 
0.43999999999996786, -0.6775146782131383 
0.44999999999996676, -0.6724089100919131 
0.45999999999996566, -0.668814893993514 
0.46999999999996456, -0.6665052758596847 
0.47999999999996346, -0.6651473497903209 
0.48999999999996235, -0.6644240408287349 
0.49999999999996125, -0.6640856037837668 
0.5099999999999602, -0.6639565567982981 
0.519999999999959, -0.6639226312559845 
0.529999999999958, -0.6639128150464275 
0.5399999999999568, -0.6638833170115246 
0.5499999999999557, -0.6638055764451427 
0.5599999999999546, -0.6636584395352778 
0.5699999999999535, -0.6634241520291314 
0.5799999999999524, -0.6630879116939059 
0.5899999999999513, -0.662640559420534 
0.5999999999999502, -0.6620829796372347 
0.6099999999999491, -0.6614292611595123 
0.619999999999948, -0.6607053780401067 
0.6299999999999469, -0.6599426815506162 
0.6399999999999458, -0.6591694209190211 
0.6499999999999447, -0.6584050310767574 
0.6599999999999436, -0.6576596046358216 
0.6699999999999425, -0.6569374260986144 
0.6799999999999414, -0.656241752063276 
0.6899999999999403, -0.6555786721736147 
0.6999999999999392, -0.6549594437743081 
0.7099999999999381, -0.6544017401321902 
0.719999999999937, -0.6539304045589672 
0.7299999999999359, -0.6535779591513072 
0.7399999999999348, -0.6533847690146989 
0.7499999999999337, -0.6533986354629681 
0.7599999999999326, -0.6536736549246249 
0.7699999999999315, -0.6542682591917053 
0.7799999999999304, -0.6552422123948373 
0.7899999999999293, -0.6566517874661292 
0.7999999999999282, -0.6585414086332747 
0.8099999999999271, -0.660929299819508 
0.819999999999926, -0.6637856985091932 
0.8299999999999249, -0.6670075357808244 
0.8399999999999238, -0.6704040352772939 
0.8499999999999227, -0.6737158480784546 
0.8599999999999216, -0.6766782378915568 
0.8699999999999205, -0.679101711193241 
0.8799999999999194, -0.6809183273609876 
0.8899999999999183, -0.6821680087439087 
0.8999999999999172, -0.6829481766135557 
0.9099999999999161, -0.6833653938844257 
0.919999999999915, -0.6835077206632917 
0.9299999999999139, -0.6834353632018334 
0.9399999999999128, -0.6831804313935599 
0.9499999999999117, -0.6827486554467744 
0.9599999999999106, -0.6821192773666785 
0.9699999999999095, -0.6812413658755343 
0.9799999999999084, -0.6800257598265149 
0.9899999999999073, -0.6783330138941297 
0.9999999999999062, -0.675961386254612 
1.0099999999999052, -0.6726488090130892 
1.019999999999904, -0.6681204143839458 
1.029999999999903, -0.6622209120966824 
1.039999999999902, -0.6551152365634986 
1.0499999999999008, -0.6474044222237186 
1.0599999999998997, -0.6399661264477131 
1.0699999999998986, -0.6335790953555277 
1.0799999999998975, -0.6286394116846504 
1.0899999999998964, -0.6251461324663938 
1.0999999999998953, -0.6228589286963 
1.1099999999998942, -0.6214636946414225 
1.119999999999893, -0.6206722423494664 
1.129999999999892, -0.6202599340304419 
1.1399999999998909, -0.6200676828357223 
1.1499999999998898, -0.6199895766907356 
1.1599999999998887, -0.6199576729842813 
1.1699999999998876, -0.6199287926485446 
1.1799999999998865, -0.6198747179186747 
1.1899999999998854, -0.6197758447245701 
1.1999999999998843, -0.6196179991609422 
1.2099999999998832, -0.6193920419200559 
1.219999999999882, -0.6190954968671734 
1.229999999999881, -0.6187345677106559 
1.2399999999998799, -0.6183241828425176 
1.2499999999998788, -0.6178844106859779 
1.2599999999998777, -0.6174340761010051 
1.2699999999998766, -0.6169848420308829 
1.2799999999998755, -0.6165390197329239 
1.2899999999998744, -0.6160918914329205 
1.2999999999998733, -0.6156366197419821 
1.3099999999998722, -0.615168937770203 
1.319999999999871, -0.6146899641111301 
1.32999999999987, -0.6142072992721211 
1.3399999999998689, -0.6137356121222259 
1.3499999999998678, -0.613297901325858 
1.3599999999998666, -0.6129280690610384 
1.3699999999998655, -0.6126749116402296 
1.3799999999998644, -0.6126072474362139 
1.3899999999998633, -0.6128195245223286 
1.3999999999998622, -0.6134366346903405 
1.4099999999998611, -0.6146154754278974 
1.41999999999986, -0.6165386200486884 
1.429999999999859, -0.6193921478101158 
1.4399999999998578, -0.6233169914344712 
1.4499999999998567, -0.6283278791484245 
1.4599999999998556, -0.6342186431294996 
1.4699999999998545, -0.6405189999905084 
1.4799999999998534, -0.6465877639245895 
1.4899999999998523, -0.6518401808344845 
1.4999999999998512, -0.655958454410167 
1.5099999999998501, -0.6589314622388955 
1.519999999999849, -0.6609413528266013 
1.529999999999848, -0.6622248609324005 
1.5399999999998468, -0.6629900967235538 
1.5499999999998457, -0.6633898619098235 
1.5599999999998446, -0.6635239282546325 
1.5699999999998435, -0.663449204699793 
1.5799999999998424, -0.6631882924091782 
1.5899999999998413, -0.6627335680221283 
1.5999999999998402, -0.6620465548596469 
1.6099999999998391, -0.6610536276153416 
1.619999999999838, -0.6596412817193333 
1.629999999999837, -0.6576589752735688 
1.6399999999998358, -0.6549441859144901 
1.6499999999998347, -0.6513842357447259 
1.6599999999998336, -0.6470054926947771 
1.6699999999998325, -0.64203396871063 
1.6799999999998314, -0.6368585698046249 
1.6899999999998303, -0.6319014005666471 
1.6999999999998292, -0.6274857697396102 
1.709999999999828, -0.6237799588081248 
1.719999999999827, -0.6208160803975935 
1.729999999999826, -0.6185397320194445 
1.7399999999998248, -0.6168555645711202 
1.7499999999998237, -0.6156571812845909 
1.7599999999998226, -0.6148431820476402 
1.7699999999998215, -0.6143244073855849 
1.7799999999998204, -0.6140263909841711 
1.7899999999998193, -0.6138893650536459 
1.7999999999998182, -0.6138670476215007 
1.809999999999817, -0.6139249042111372 
1.819999999999816, -0.6140383550933535 
1.8299999999998149, -0.6141912462717272 
1.8399999999998138, -0.6143746483587937 
1.8499999999998127, -0.6145856297272371 
1.8599999999998116, -0.6148252139155056 
1.8699999999998105, -0.6150947104086748 
1.8799999999998094, -0.6153904874468396 
1.8899999999998083, -0.6156989309665575 
1.8999999999998072, -0.6159946560332175 
1.909999999999806, -0.6162443388733826 
1.919999999999805, -0.6164152919641724 
1.9299999999998039, -0.6164843115062124 
1.9399999999998028, -0.6164419899470028 
1.9499999999998017, -0.6162912213769653 
1.9599999999998006, -0.6160424453547274 
1.9699999999997995, -0.6157091267300099 
1.9799999999997984, -0.6153056118122802 
1.9899999999997973, -0.6148480206765765 
1.9999999999997962, -0.6143583203890242 
2.0099999999998173, -0.6138719547746665 
2.0199999999998384, -0.6134496838620362 
2.0299999999998595, -0.6131937053701348 
2.0399999999998806, -0.6132652517699037 
2.0499999999999017, -0.6138935460883201 
2.059999999999923, -0.6153533836756531 
2.069999999999944, -0.6178790673402051 
2.079999999999965, -0.6215064195826439 
2.089999999999986, -0.6259270245078026 
2.100000000000007, -0.6305317317694807 
2.1100000000000283, -0.6347004677022967 
2.1200000000000494, -0.6380924091141676 
2.1300000000000705, -0.6406785230922022 
2.1400000000000916, -0.6425877310525967 
2.1500000000001127, -0.6439716735762742 
2.160000000000134, -0.6449542322114583 
2.170000000000155, -0.6456279320329938 
2.180000000000176, -0.6460607444054383 
2.190000000000197, -0.6463013285216231 
2.2000000000002182, -0.646381870628777 
2.2100000000002393, -0.646319485717195 
2.2200000000002604, -0.6461167417833548 
2.2300000000002815, -0.6457617205925824 
2.2400000000003026, -0.6452285084135514 
2.2500000000003237, -0.6444800118800725 
2.260000000000345, -0.643475934718398 
2.270000000000366, -0.6421879515731438 
2.280000000000387, -0.6406193756325699 
2.290000000000408, -0.6388191252657578 
2.3000000000004293, -0.6368777701293861 
2.3100000000004504, -0.6349042103422025 
2.3200000000004715, -0.6329967252522117 
2.3300000000004926, -0.6312247400044221 
2.3400000000005137, -0.6296265193448177 
2.3500000000005348, -0.628217154675317 
2.360000000000556, -0.6269989053739267 
2.370000000000577, -0.6259691872064581 
2.380000000000598, -0.6251250702700331 
2.390000000000619, -0.6244650034689309 
2.4000000000006403, -0.6239889201126404 
2.4100000000006614, -0.6236976935360989 
2.4200000000006825, -0.6235925938288834 
2.4300000000007036, -0.6236751048175054 
2.4400000000007247, -0.6239471971072704 
2.450000000000746, -0.6244118900384945 
2.460000000000767, -0.6250736466507513 
2.470000000000788, -0.6259378101024554 
2.480000000000809, -0.6270079485753806 
2.49000000000083, -0.6282798901775954 
2.5000000000008513, -0.6297320557075755 
2.5100000000008724, -0.6313142980769444 
2.5200000000008935, -0.6329416694584507 
2.5300000000009146, -0.6345019804456575 
2.5400000000009357, -0.6358805964053775 
2.550000000000957, -0.6369922404639939 
2.560000000000978, -0.6378006759208377 
2.570000000000999, -0.6383157473804993 
2.58000000000102, -0.6385745873676673 
2.5900000000010412, -0.6386210552380959 
2.6000000000010624, -0.6384919187675094 
2.6100000000010835, -0.638210391423325 
2.6200000000011046, -0.6377840249464817 
2.6300000000011257, -0.6372039637115089 
2.6400000000011468, -0.6364436552482797 
2.650000000001168, -0.6354559142059634 
2.660000000001189, -0.6341674965224522 
2.67000000000121, -0.6324704489593695 
2.680000000001231, -0.6302111572258703 
2.6900000000012523, -0.6271861890155815 
2.7000000000012734, -0.6231751697346195 
2.7100000000012945, -0.6180599741126434 
2.7200000000013156, -0.6120237365965495 
2.7300000000013367, -0.6056565701002009 
2.740000000001358, -0.5997590863577554 
2.750000000001379, -0.594954827429712 
2.7600000000014, -0.5914643175302203 
2.770000000001421, -0.5891652795917734 
2.780000000001442, -0.5877774052498417 
2.7900000000014633, -0.5870091599826652 
2.8000000000014844, -0.5866251372409367 
2.8100000000015055, -0.5864587434612406 
2.8200000000015266, -0.5864010711803849 
2.8300000000015477, -0.586384200419418 
2.840000000001569, -0.5863664470055572 
2.85000000000159, -0.5863215411752389 
2.860000000001611, -0.5862316406865296 
2.870000000001632, -0.5860836463438693 
2.8800000000016532, -0.5858683694562885 
2.8900000000016743, -0.585582000646518 
2.9000000000016954, -0.5852286613257325 
2.9100000000017165, -0.5848218464813624 
2.9200000000017377, -0.5843824622600856 
2.9300000000017588, -0.5839330133461627 
2.94000000000178, -0.583490428277906 
2.950000000001801, -0.5830613949431521 
2.960000000001822, -0.5826425282222847 
2.970000000001843, -0.5822246532245188 
2.9800000000018643, -0.581798417319934 
2.9900000000018854, -0.5813585682364432 
3.0000000000019065, -0.5809059517798822 
3.0100000000019276, -0.580448010327417 
3.0200000000019487, -0.5799992330192739 
3.03000000000197, -0.5795827413530864 
3.040000000001991, -0.5792336641793552 
3.050000000002012, -0.5790045761990167 
3.060000000002033, -0.5789730133717137 
3.070000000002054, -0.579250639876568 
3.0800000000020753, -0.5799925432835351 
3.0900000000020964, -0.5814026307755109 
3.1000000000021175, -0.5837262523424681 
3.1100000000021386, -0.5872140710744651 
3.1200000000021597, -0.592037216816389 
3.130000000002181, -0.598150574465482 
3.140000000002202, -0.6051620367810236 
3.150000000002223, -0.6123432478559752 
3.160000000002244, -0.618875352499322 
3.1700000000022652, -0.6241920731654401 
3.1800000000022863, -0.6281408528461826 
3.1900000000023074, -0.6308826228742024 
3.2000000000023285, -0.6326973578239359 
3.2100000000023496, -0.6338502468970175 
3.2200000000023707, -0.6345429888109869 
3.230000000002392, -0.6349126064194406 
3.240000000002413, -0.6350448319277425 
3.250000000002434, -0.6349871799805538 
3.260000000002455, -0.6347575860681565 
3.2700000000024763, -0.6343485522665877 
3.2800000000024974, -0.6337280654688459 
3.2900000000025185, -0.6328396392748121 
3.3000000000025396, -0.6316058416688215 
3.3100000000025607, -0.6299421608394733 
3.3200000000025818, -0.6277873353625961 
3.330000000002603, -0.6251458489748871 
3.340000000002624, -0.6221190786377382 
3.350000000002645, -0.6188948792309502 
3.360000000002666, -0.6156927056555942 
3.3700000000026873, -0.6126994748429954 
3.3800000000027084, -0.610034020041327 
3.3900000000027295, -0.6077474640254599 
3.4000000000027506, -0.6058430218539398 
3.4100000000027717, -0.6042977189415194 
3.420000000002793, -0.603077894746461 
3.430000000002814, -0.6021477979397598 
3.440000000002835, -0.6014734293136076 
3.450000000002856, -0.6010239115222824 
3.460000000002877, -0.6007719147563879 
3.4700000000028983, -0.6006939175080174 
3.4800000000029194, -0.600770572341647 
3.4900000000029405, -0.6009871649236358 
3.5000000000029616, -0.6013340061860707 
3.5100000000029827, -0.601806463617055 
3.520000000003004, -0.6024041205687778 
3.530000000003025, -0.6031282713284621 
3.540000000003046, -0.6039768884299993 
3.550000000003067, -0.6049369093265653 
3.5600000000030882, -0.6059757197082759 
3.5700000000031094, -0.6070365989534278 
3.5800000000031305, -0.608044037341102 
3.5900000000031516, -0.6089205598483797 
3.6000000000031727, -0.609607742223506 
3.6100000000031938, -0.6100790892507337 
3.620000000003215, -0.6103383478315234 
3.630000000003236, -0.6104075540169693 
3.640000000003257, -0.6103135695388083 
3.650000000003278, -0.6100786156306814 
3.6600000000032993, -0.6097154984557379 
3.6700000000033204, -0.6092258522820275 
3.6800000000033415, -0.6085995845178049 
3.6900000000033626, -0.6078142912755489 
3.7000000000033837, -0.6068337406119896 
3.710000000003405, -0.6056041602934183 
3.720000000003426, -0.6040460544676418 
3.730000000003447, -0.6020394534377327 
3.740000000003468, -0.5994090159415745 
3.750000000003489, -0.5959431956983446 
3.7600000000035103, -0.5915106955808821 
3.7700000000035314, -0.5862712429479183 
3.7800000000035525, -0.5807800588962626 
3.7900000000035736, -0.5757704434478617 
3.8000000000035947, -0.5717736096421472 
3.810000000003616, -0.5689370815560417 
3.820000000003637, -0.5671144950464633 
3.830000000003658, -0.5660432963722655 
3.840000000003679, -0.5654688251636425 
3.8500000000037002, -0.5651936964982641 
3.8600000000037213, -0.5650821141795977 
3.8700000000037424, -0.5650470263558408 
3.8800000000037635, -0.5650347327255926 
3.8900000000037847, -0.5650122585964122 
3.9000000000038058, -0.5649585373269386 
3.910000000003827, -0.5648590588263093 
3.920000000003848, -0.5647034690438403 
3.930000000003869, -0.5644856721799496 
3.94000000000389, -0.5642057142013549 
3.9500000000039113, -0.5638719303470242 
3.9600000000039324, -0.5635010936393583 
3.9700000000039535, -0.5631148446214886 
3.9800000000039746, -0.5627330226610862 
3.9900000000039957, -0.5623670703303459 
4.000000000004016, -0.5620170656644248 
4.010000000003993, -0.5616737379391841 
4.02000000000397, -0.5613238969717822 
4.030000000003946, -0.5609561795353906 
4.040000000003923, -0.5605646942962077 
4.0500000000039, -0.5601501382858795 
4.0600000000038765, -0.5597195955033227 
4.070000000003853, -0.559286641660345 
4.08000000000383, -0.5588729547133021 
4.090000000003807, -0.5585121254216865 
4.100000000003783, -0.5582561129781565 
4.11000000000376, -0.5581846528909231 
4.120000000003737, -0.5584174491160363 
4.130000000003713, -0.5591273901490332 
4.14000000000369, -0.5605490058624719 
4.150000000003667, -0.5629683407434586 
4.1600000000036434, -0.5666692501903001 
4.17000000000362, -0.5718089287166654 
4.180000000003597, -0.5782354780107108 
4.1900000000035735, -0.5853662978748984 
4.20000000000355, -0.5923170849406167 
4.210000000003527, -0.5982901609486236 
4.220000000003504, -0.6029071925345286 
4.23000000000348, -0.6062161604012046 
4.240000000003457, -0.6084792894148348 
4.250000000003434, -0.609982879688298 
4.26000000000341, -0.6109553119845768 
4.270000000003387, -0.6115564321286102 
4.280000000003364, -0.6118910836270646 
4.2900000000033405, -0.6120243394227096 
4.300000000003317, -0.6119924224121795 
4.310000000003294, -0.6118091992196226 
4.320000000003271, -0.6114695062505772 
4.330000000003247, -0.6109509501877304 
4.340000000003224, -0.610216503188234 
4.350000000003201, -0.609221244239755 
4.360000000003177, -0.6079266690177408 
4.370000000003154, -0.6063223475705511 
4.380000000003131, -0.6044462459396337 
4.390000000003107, -0.6023884564406596 
4.400000000003084, -0.6002702541317163 
4.410000000003061, -0.5982094547100726 
4.4200000000030375, -0.5962932532653383 
4.430000000003014, -0.5945701845399698 
4.440000000002991, -0.5930574473220429 
4.450000000002968, -0.5917536666335883 
4.460000000002944, -0.5906499448764442 
4.470000000002921, -0.5897367992108702 
4.480000000002898, -0.5890074592536896 
4.490000000002874, -0.5884588632180388 
4.500000000002851, -0.5880915437930161 
4.510000000002828, -0.5879091962430317 
4.520000000002804, -0.5879183763137137 
4.530000000002781, -0.5881285185870931 
4.540000000002758, -0.5885522350527188 
4.5500000000027345, -0.589205572291976 
4.560000000002711, -0.5901075053028303 
4.570000000002688, -0.5912774073450675 
4.580000000002665, -0.5927287323158301 
4.590000000002641, -0.5944573281555101 
4.600000000002618, -0.5964249904565664 
4.610000000002595, -0.5985442809229401 
4.620000000002571, -0.6006772767632547 
4.630000000002548, -0.6026602141791598 
4.640000000002525, -0.6043494821476332 
4.6500000000025015, -0.605662742755763 
4.660000000002478, -0.606589318355488 
4.670000000002455, -0.6071697062083603 
4.6800000000024315, -0.6074646129854597 
4.690000000002408, -0.6075311671227288 
4.700000000002385, -0.6074107760553074 
4.710000000002362, -0.6071248581857988 
4.720000000002338, -0.6066733738378609 
4.730000000002315, -0.6060325294493912 
4.740000000002292, -0.6051494030678164 
4.750000000002268, -0.603932077169534 
4.760000000002245, -0.602235274375037 
4.770000000002222, -0.5998462903615287 
4.7800000000021985, -0.5964887650643927 
4.790000000002175, -0.5918821442364861 
4.800000000002152, -0.5858947039777667 
4.810000000002129, -0.5787462548090387 
4.820000000002105, -0.57107583415176 
4.830000000002082, -0.56372301297906 
4.840000000002059, -0.5573674259137841 
4.850000000002035, -0.5523234603590892 
4.860000000002012, -0.548576599359451 
4.870000000001989, -0.5459306920428718 
4.880000000001965, -0.5441369407854763 
4.890000000001942, -0.5429650415313133 
4.900000000001919, -0.542229153174763 
4.9100000000018955, -0.5417900953692004 
4.920000000001872, -0.5415482852895364 
