t, s[1].omega / s[0].omega 
0, -0.5999977267530563 
0.009999999999999995, -0.5997699662606114 
0.019999999999999934, -0.5995372560581383 
0.029999999999999874, -0.599289341600784 
0.04000000000000012, -0.5990144520655727 
0.050000000000000405, -0.5987039676882218 
0.06000000000000069, -0.5983550431553952 
0.07000000000000098, -0.5979709891165216 
0.08000000000000126, -0.5975606700455823 
0.09000000000000155, -0.5971384308064286 
0.10000000000000184, -0.5967255643153749 
0.11000000000000212, -0.596353803555661 
0.12000000000000241, -0.5960710295646581 
0.130000000000002, -0.595949154823665 
0.1400000000000009, -0.5960935733109136 
0.1499999999999998, -0.5966521099368995 
0.1599999999999987, -0.5978183131577046 
0.1699999999999976, -0.5998186719471474 
0.1799999999999965, -0.6028674905114698 
0.1899999999999954, -0.6070751630167368 
0.1999999999999943, -0.6123238494084268 
0.2099999999999932, -0.6181873400101334 
0.2199999999999921, -0.6240100480003361 
0.229999999999991, -0.6291587786380224 
0.2399999999999899, -0.6332690267032104 
0.2499999999999888, -0.6362978882386099 
0.2599999999999877, -0.6384052005120231 
0.2699999999999866, -0.6398100536152851 
0.2799999999999855, -0.6407079733175529 
0.2899999999999844, -0.6412454844204292 
0.2999999999999833, -0.6415223790639901 
0.3099999999999822, -0.6416013313983802 
0.3199999999999811, -0.6415165147644044 
0.32999999999998, -0.6412790932460315 
0.3399999999999789, -0.640879745866376 
0.3499999999999778, -0.6402892989474396 
0.35999999999997667, -0.6394595474243252 
0.36999999999997557, -0.6383279666466154 
0.37999999999997447, -0.6368314020525128 
0.38999999999997337, -0.6349317757410822 
0.39999999999997227, -0.632647537953866 
0.40999999999997117, -0.6300717642594993 
0.41999999999997006, -0.6273578458613565 
0.42999999999996896, -0.6246761996286316 
0.43999999999996786, -0.62216894738511 
0.44999999999996676, -0.6199267548985186 
0.45999999999996566, -0.6179904660669702 
0.46999999999996456, -0.6163655555643367 
0.47999999999996346, -0.6150376042676895 
0.48999999999996235, -0.6139833881378245 
0.49999999999996125, -0.61317713007837 
0.5099999999999602, -0.612593411137206 
0.519999999999959, -0.6122083487152321 
0.529999999999958, -0.6120001335766887 
0.5399999999999568, -0.611949475021216 
0.5499999999999557, -0.6120401197789281 
0.5599999999999546, -0.6122593883308695 
0.5699999999999535, -0.6125985454907681 
0.5799999999999524, -0.6130526981095291 
0.5899999999999513, -0.6136197272366475 
0.5999999999999502, -0.6142975779119414 
0.6099999999999491, -0.6150793489198783 
0.619999999999948, -0.6159465479775418 
0.6299999999999469, -0.6168628518616766 
0.6399999999999458, -0.6177728107770579 
0.6499999999999447, -0.6186095712715756 
0.6599999999999436, -0.6193106827661965 
0.6699999999999425, -0.6198341571919079 
0.6799999999999414, -0.620165556827466 
0.6899999999999403, -0.6203135654543567 
0.6999999999999392, -0.6202991643380051 
0.7099999999999381, -0.6201451343375208 
0.719999999999937, -0.6198692899529691 
0.7299999999999359, -0.6194814266024363 
0.7399999999999348, -0.6189826164347084 
0.7499999999999337, -0.6183656436284133 
0.7599999999999326, -0.6176159163868988 
0.7699999999999315, -0.6167124476084023 
0.7799999999999304, -0.6156280743319031 
0.7899999999999293, -0.6143268716818883 
0.7999999999999282, -0.612756036199333 
0.8099999999999271, -0.610834848585415 
0.819999999999926, -0.6084624935505066 
0.8299999999999249, -0.6055854918728812 
0.8399999999999238, -0.60232074230391 
0.8499999999999227, -0.5990097298005737 
0.8599999999999216, -0.5960822038558076 
0.8699999999999205, -0.5938324797840124 
0.8799999999999194, -0.59231883418904 
0.8899999999999183, -0.5914239916573939 
0.8999999999999172, -0.5909665803036832 
0.9099999999999161, -0.5907780949565161 
0.919999999999915, -0.5907321885373142 
0.9299999999999139, -0.5907450516820126 
0.9399999999999128, -0.5907650598871947 
0.9499999999999117, -0.590761331989271 
0.9599999999999106, -0.5907146508700902 
0.9699999999999095, -0.5906113423272508 
0.9799999999999084, -0.5904398701942924 
0.9899999999999073, -0.5901899195915582 
0.9999999999999062, -0.5898538353378637 
1.0099999999999052, -0.5894298984581441 
1.019999999999904, -0.5889258619438635 
1.029999999999903, -0.5883601365070081 
1.039999999999902, -0.5877585666533842 
1.0499999999999008, -0.5871474714280295 
1.0599999999998997, -0.586546511019071 
1.0699999999998986, -0.5859651456453588 
1.0799999999998975, -0.5854038648069323 
1.0899999999998964, -0.584858512101796 
1.0999999999998953, -0.5843250190032635 
1.1099999999998942, -0.5838027618792717 
1.119999999999893, -0.5832963187338012 
1.129999999999892, -0.5828164301709198 
1.1399999999998909, -0.582381131436337 
1.1499999999998898, -0.5820176840446836 
1.1599999999998887, -0.5817655331930767 
1.1699999999998876, -0.5816802117306058 
1.1799999999998865, -0.581837819743761 
1.1899999999998854, -0.5823392177992837 
1.1999999999998843, -0.583312065477209 
1.2099999999998832, -0.5849069161096473 
1.219999999999882, -0.5872805994111873 
1.229999999999881, -0.5905574908059739 
1.2399999999998799, -0.5947625867237657 
1.2499999999998788, -0.5997401979767674 
1.2599999999998777, -0.6051110182950843 
1.2699999999998766, -0.6103403655996062 
1.2799999999998755, -0.6149232419948106 
1.2899999999998744, -0.6185667925898036 
1.2999999999998733, -0.6212367050023299 
1.3099999999998722, -0.6230709476247276 
1.319999999999871, -0.6242638015432624 
1.32999999999987, -0.6249920822162669 
1.3399999999998689, -0.6253889611201991 
1.3499999999998678, -0.6255437476968284 
1.3599999999998666, -0.6255096950557745 
1.3699999999998655, -0.6253113635676596 
1.3799999999998644, -0.624948933964759 
1.3899999999998633, -0.6243993847797051 
1.3999999999998622, -0.6236157346243039 
1.4099999999998611, -0.622527185171273 
1.41999999999986, -0.6210456511530444 
1.429999999999859, -0.6190863517616292 
1.4399999999998578, -0.6166064022876223 
1.4499999999998567, -0.6136496127816461 
1.4599999999998556, -0.6103661565015269 
1.4699999999998545, -0.6069809319139282 
1.4799999999998534, -0.6037242281245048 
1.4899999999998523, -0.6007699937607114 
1.4999999999998512, -0.5982127518381286 
1.5099999999998501, -0.596078821323406 
1.519999999999849, -0.5943508716754687 
1.529999999999848, -0.5929900743867974 
1.5399999999998468, -0.5919505690884855 
1.5499999999998457, -0.5911871166730379 
1.5599999999998446, -0.5906584796203145 
1.5699999999998435, -0.5903286556890309 
1.5799999999998424, -0.5901672360627698 
1.5899999999998413, -0.5901494868194093 
1.5999999999998402, -0.5902563624323339 
1.6099999999998391, -0.5904744678954964 
1.619999999999838, -0.5907958651253165 
1.629999999999837, -0.5912174550590958 
1.6399999999998358, -0.591739416587173 
1.6499999999998347, -0.5923619747238101 
1.6599999999998336, -0.5930799798459263 
1.6699999999998325, -0.5938759040645534 
1.6799999999998314, -0.5947139647043714 
1.6899999999998303, -0.5955399227052436 
1.6999999999998292, -0.5962899932536845 
1.709999999999828, -0.5969067428115935 
1.719999999999827, -0.5973536310447508 
1.729999999999826, -0.5976200111452631 
1.7399999999998248, -0.5977155927888127 
1.7499999999998237, -0.5976599256156937 
1.7599999999998226, -0.597472895659139 
1.7699999999998215, -0.5971687919712017 
1.7799999999998204, -0.596753544166005 
1.7899999999998193, -0.5962237220396388 
1.7999999999998182, -0.5955660614784029 
1.809999999999817, -0.5947566383265391 
1.819999999999816, -0.5937588086002843 
1.8299999999998149, -0.5925185308325099 
1.8399999999998138, -0.590955386716268 
1.8499999999998127, -0.5889508307411393 
1.8599999999998116, -0.5863490062779139 
1.8699999999998105, -0.5830091220498786 
1.8799999999998094, -0.5789388015895647 
1.8899999999998083, -0.5744302871754452 
1.8999999999998072, -0.5700177670551132 
1.909999999999806, -0.5662244624416221 
1.919999999999805, -0.5633287982889537 
1.9299999999998039, -0.5613319030479704 
1.9399999999998028, -0.5600692586518587 
1.9499999999998017, -0.559331807800447 
1.9599999999998006, -0.5589349915408748 
1.9699999999997995, -0.5587407962275288 
1.9799999999997984, -0.5586552716308727 
1.9899999999997973, -0.5586179064075549 
1.9999999999997962, -0.5585906954973882 
2.0099999999998173, -0.5585495595590546 
2.0199999999998384, -0.5584785470213356 
2.0299999999998595, -0.5583665835375505 
2.0399999999998806, -0.5582064460417636 
2.0499999999999017, -0.5579955228050991 
2.059999999999923, -0.5577374490200682 
2.069999999999944, -0.5574430090600966 
2.079999999999965, -0.5571285425626145 
2.089999999999986, -0.5568113203276337 
2.100000000000007, -0.5565035786816257 
2.1100000000000283, -0.556208305548368 
2.1200000000000494, -0.5559190716981839 
2.1300000000000705, -0.5556237793760594 
2.1400000000000916, -0.5553100294394712 
2.1500000000001127, -0.5549693954707918 
2.160000000000134, -0.554599273701636 
2.170000000000155, -0.5542028087669731 
2.180000000000176, -0.5537883397856899 
2.190000000000197, -0.5533696956710937 
2.2000000000002182, -0.5529681540958542 
2.2100000000002393, -0.5526165167155127 
2.2200000000002604, -0.5523656086315136 
2.2300000000002815, -0.5522932878030272 
2.2400000000003026, -0.5525151949759597 
2.2500000000003237, -0.5531940706625254 
2.260000000000345, -0.5545392636970403 
2.270000000000366, -0.556779793089097 
2.280000000000387, -0.5600887473606495 
2.290000000000408, -0.5644540284022118 
2.3000000000004293, -0.569556103867741 
2.3100000000004504, -0.5747905715834178 
2.3200000000004715, -0.579509320916012 
2.3300000000004926, -0.5833126560177024 
2.3400000000005137, -0.5861384917616814 
2.3500000000005348, -0.5881374619804762 
2.360000000000556, -0.5895141333890537 
2.370000000000577, -0.5904433064476884 
2.380000000000598, -0.5910515526515401 
2.390000000000619, -0.5914246172206188 
2.4000000000006403, -0.5916184713157209 
2.4100000000006614, -0.5916675324924711 
2.4200000000006825, -0.5915896880049514 
2.4300000000007036, -0.5913890890614281 
2.4400000000007247, -0.5910578160828935 
2.450000000000746, -0.59057772348488 
2.460000000000767, -0.5899242225033106 
2.470000000000788, -0.5890738957421536 
2.480000000000809, -0.5880163950962077 
2.49000000000083, -0.5867671448071194 
2.5000000000008513, -0.5853731349556439 
2.5100000000008724, -0.5839053119815685 
2.5200000000008935, -0.5824399243775907 
2.5300000000009146, -0.5810396322134148 
2.5400000000009357, -0.5797440330928608 
2.550000000000957, -0.5785710089026486 
2.560000000000978, -0.5775241010027921 
2.570000000000999, -0.576600596080365 
2.58000000000102, -0.5757975118348522 
2.5900000000010412, -0.5751150446705593 
2.6000000000010624, -0.574558166988375 
2.6100000000010835, -0.5741372153825367 
2.6200000000011046, -0.5738680689308773 
2.6300000000011257, -0.5737722479294634 
2.6400000000011468, -0.5738770750366928 
2.650000000001168, -0.5742158835052764 
2.660000000001189, -0.5748280202293458 
2.67000000000121, -0.5757579513299422 
2.680000000001231, -0.5770520486330716 
2.6900000000012523, -0.57875071909931 
2.7000000000012734, -0.5808731117919553 
2.7100000000012945, -0.5833935037507795 
2.7200000000013156, -0.5862152560432923 
2.7300000000013367, -0.5891595430993706 
2.740000000001358, -0.5919910369409898 
2.750000000001379, -0.594483504585762 
2.7600000000014, -0.5964905324427401 
2.770000000001421, -0.5979745757625228 
2.780000000001442, -0.598983619678841 
2.7900000000014633, -0.599604754025649 
2.8000000000014844, -0.5999260873466237 
2.8100000000015055, -0.6000173069712804 
2.8200000000015266, -0.5999239723824037 
2.8300000000015477, -0.5996677105490261 
2.840000000001569, -0.5992470105288007 
2.85000000000159, -0.5986360188403632 
2.860000000001611, -0.5977804528010534 
2.870000000001632, -0.5965913484168719 
2.8800000000016532, -0.5949404875019922 
2.8900000000016743, -0.592667520590725 
2.9000000000016954, -0.589615928337305 
2.9100000000017165, -0.5857102885558085 
2.9200000000017377, -0.5810512646104792 
2.9300000000017588, -0.575952794598009 
2.94000000000178, -0.570858320836146 
2.950000000001801, -0.5661800008547169 
2.960000000001822, -0.5621780318878489 
2.970000000001843, -0.5589403192330911 
2.9800000000018643, -0.5564309296529826 
2.9900000000018854, -0.5545515962789851 
3.0000000000019065, -0.5531864597204076 
3.0100000000019276, -0.5522261685491917 
3.0200000000019487, -0.551577623638871 
3.03000000000197, -0.5511660360516768 
3.040000000001991, -0.550933622975674 
3.050000000002012, -0.5508371998862623 
3.060000000002033, -0.550845700485538 
3.070000000002054, -0.5509380491304335 
3.0800000000020753, -0.5511015147047351 
3.0900000000020964, -0.5513304576387916 
3.1000000000021175, -0.5516251046626699 
3.1100000000021386, -0.5519896464740712 
3.1200000000021597, -0.552428768983775 
3.130000000002181, -0.552942129543177 
3.140000000002202, -0.5535176343096866 
3.150000000002223, -0.5541263753405181 
3.160000000002244, -0.5547232859712458 
3.1700000000022652, -0.5552557737241572 
3.1800000000022863, -0.5556774152327245 
3.1900000000023074, -0.5559593123556732 
3.2000000000023285, -0.556093098097593 
3.2100000000023496, -0.5560857897971458 
3.2200000000023707, -0.5559512586035904 
3.230000000002392, -0.5557027661623256 
3.240000000002413, -0.5553482141375055 
3.250000000002434, -0.554887590816569 
3.260000000002455, -0.5543113668565499 
3.2700000000024763, -0.5535985967614678 
3.2800000000024974, -0.5527134674999332 
3.2900000000025185, -0.5515986744751632 
3.3000000000025396, -0.5501637350184322 
3.3100000000025607, -0.548268665902926 
3.3200000000025818, -0.545714786958697 
3.330000000002603, -0.5422796183356691 
3.340000000002624, -0.5378449325657377 
3.350000000002645, -0.5325869884447787 
3.360000000002666, -0.5270398682067544 
3.3700000000026873, -0.5218813491585065 
3.3800000000027084, -0.5176084227139313 
3.3900000000027295, -0.5143896996716903 
3.4000000000027506, -0.5121364966198543 
3.4100000000027717, -0.5106454981367564 
3.420000000002793, -0.5097029183437284 
3.430000000002814, -0.5091312867342843 
3.440000000002835, -0.5087994178273042 
3.450000000002856, -0.5086165120662793 
3.460000000002877, -0.5085221744875253 
3.4700000000028983, -0.5084772318793949 
3.4800000000029194, -0.5084567793128378 
3.4900000000029405, -0.5084455475030769 
3.5000000000029616, -0.5084352794712168 
3.5100000000029827, -0.5084236558382516 
3.520000000003004, -0.5084140674909475 
3.530000000003025, -0.5084151559296096 
3.540000000003046, -0.50843884764312 
3.550000000003067, -0.5084961395265891 
3.5600000000030882, -0.5085913254422929 
3.5700000000031094, -0.5087170064015114 
3.5800000000031305, -0.5088528517116025 
3.5900000000031516, -0.5089697279087825 
3.6000000000031727, -0.5090377559650848 
3.6100000000031938, -0.5090341745179698 
3.620000000003215, -0.5089471202247171 
3.630000000003236, -0.5087744884985523 
3.640000000003257, -0.5085199354731244 
3.650000000003278, -0.5081886493571408 
3.6600000000032993, -0.507784358368485 
3.6700000000033204, -0.5073077606122782 
3.6800000000033415, -0.506755885588739 
3.6900000000033626, -0.5061216059366453 
3.7000000000033837, -0.5053920585262462 
3.710000000003405, -0.5045435772739332 
3.720000000003426, -0.5035288482038696 
3.730000000003447, -0.5022517228652983 
3.740000000003468, -0.5005353201302218 
3.750000000003489, -0.49812289766436973 
3.7600000000035103, -0.4947880637910095 
3.7700000000035314, -0.4905628858718304 
3.7800000000035525, -0.485878533511708 
3.7900000000035736, -0.4813874490918068 
3.8000000000035947, -0.47760937464784864 
3.810000000003616, -0.47474545648223343 
3.820000000003637, -0.47273602730091235 
3.830000000003658, -0.4714034707783993 
3.840000000003679, -0.4705570455345137 
3.8500000000037002, -0.47003892896016036 
3.8600000000037213, -0.46973354069094747 
3.8700000000037424, -0.4695617430900179 
3.8800000000037635, -0.46947153061353974 
3.8900000000037847, -0.4694297468079583 
3.9000000000038058, -0.4694160230757357 
3.910000000003827, -0.4694189104642198 
3.920000000003848, -0.46943382408822726 
3.930000000003869, -0.4694622644584081 
3.94000000000389, -0.46951152329560886 
3.9500000000039113, -0.46959374325483305 
3.9600000000039324, -0.46972313003189214 
3.9700000000039535, -0.4699107779819253 
3.9800000000039746, -0.47015805647455944 
3.9900000000039957, -0.4704512062436398 
4.000000000004016, -0.4707605574990145 
4.010000000003993, -0.4710463438831945 
4.02000000000397, -0.4712692912532276 
4.030000000003946, -0.4714005752441997 
4.040000000003923, -0.47142607899533717 
4.0500000000039, -0.47134409351869017 
4.0600000000038765, -0.47115940815208857 
4.070000000003853, -0.47087719388690685 
4.08000000000383, -0.4704982695005098 
4.090000000003807, -0.4700155223237223 
4.100000000003783, -0.46941030346565216 
4.11000000000376, -0.4686472018436304 
4.120000000003737, -0.4676652776304648 
4.130000000003713, -0.4663638747757604 
4.14000000000369, -0.4645836387302021 
4.150000000003667, -0.4620937727549948 
4.1600000000036434, -0.4586200622127848 
4.17000000000362, -0.4539658676326569 
4.180000000003597, -0.44821818608769864 
4.1900000000035735, -0.4418685328435921 
4.20000000000355, -0.4356497285625581 
4.210000000003527, -0.4301879539068044 
4.220000000003504, -0.42578491886013214 
4.23000000000348, -0.42244359146863364 
4.240000000003457, -0.4200066292897001 
4.250000000003434, -0.4182745103896159 
4.26000000000341, -0.41706660947644575 
4.270000000003387, -0.4162408316528473 
4.280000000003364, -0.41569341061061105 
4.2900000000033405, -0.4153521609215388 
4.300000000003317, -0.4151691330265149 
4.310000000003294, -0.41511469765905573 
4.320000000003271, -0.41517343520668 
4.330000000003247, -0.41534161993420343 
4.340000000003224, -0.41562586532949447 
4.350000000003201, -0.4160422771270576 
4.360000000003177, -0.4166150824489262 
4.370000000003154, -0.41737317924941886 
4.380000000003131, -0.418342668016341 
4.390000000003107, -0.4195339558258426 
4.400000000003084, -0.42092479547762185 
4.410000000003061, -0.4224464314986707 
4.4200000000030375, -0.42398552627693215 
4.430000000003014, -0.425410345649904 
4.440000000002991, -0.42661141216959086 
4.450000000002968, -0.42753120680170287 
4.460000000002944, -0.4281660465095719 
4.470000000002921, -0.4285466327068992 
4.480000000002898, -0.42871475444445173 
4.490000000002874, -0.42870712748905004 
4.500000000002851, -0.4285474551208438 
4.510000000002828, -0.42824333407007514 
4.520000000002804, -0.4277847223376015 
4.530000000002781, -0.4271423435060712 
4.540000000002758, -0.42626642611805493 
4.5500000000027345, -0.4250887971128895 
4.560000000002711, -0.4235344779573449 
4.570000000002688, -0.42154955191696003 
4.580000000002665, -0.41914304618331055 
4.590000000002641, -0.41641974244102065 
4.600000000002618, -0.413569355634466 
4.610000000002595, -0.4108055630922419 
4.620000000002571, -0.40829539446708074 
4.630000000002548, -0.40612482722582194 
4.640000000002525, -0.4043073906313004 
4.6500000000025015, -0.4028127947417842 
4.660000000002478, -0.4015939239329402 
4.670000000002455, -0.4006040643623545 
4.6800000000024315, -0.399805259035689 
4.690000000002408, -0.3991712683086919 
4.700000000002385, -0.3986881382404773 
4.710000000002362, -0.3983542800816219 
4.720000000002338, -0.398181115726754 
4.730000000002315, -0.39819485947773947 
4.740000000002292, -0.39843974884426575 
4.750000000002268, -0.3989827747277149 
4.760000000002245, -0.3999193304474737 
4.770000000002222, -0.4013775628502222 
4.7800000000021985, -0.4035155832838616 
4.790000000002175, -0.40649944881389466 
4.800000000002152, -0.41044407166045616 
4.810000000002129, -0.4153083256450957 
4.820000000002105, -0.4207845924468751 
4.830000000002082, -0.4262984743109121 
4.840000000002059, -0.43121138676686954 
4.850000000002035, -0.4351093704356165 
4.860000000002012, -0.43792494888665257 
4.870000000001989, -0.4398308533623367 
4.880000000001965, -0.44106926752833947 
4.890000000001942, -0.44184911193725196 
4.900000000001919, -0.44231866058585895 
4.9100000000018955, -0.44257351535529876 
