t, s[1].omega / s[0].omega 
0, -1.2299974195238694 
0.009999999999999995, -1.2296525741985456 
0.019999999999999934, -1.2291406464389822 
0.029999999999999874, -1.2284762943325354 
0.04000000000000012, -1.2276854886444757 
0.050000000000000405, -1.226807862994154 
0.06000000000000069, -1.2258985237956437 
0.07000000000000098, -1.2250262463416812 
0.08000000000000126, -1.2242644526016313 
0.09000000000000155, -1.2236736903359706 
0.10000000000000184, -1.2232804100118722 
0.11000000000000212, -1.2230642683600392 
0.12000000000000241, -1.2229652232282706 
0.130000000000002, -1.2229064511123906 
0.1400000000000009, -1.222815551857911 
0.1499999999999998, -1.2226316479733499 
0.1599999999999987, -1.2223001310795762 
0.1699999999999976, -1.2217635009553611 
0.1799999999999965, -1.2209554962570317 
0.1899999999999954, -1.2198030816470853 
0.1999999999999943, -1.218238994948369 
0.2099999999999932, -1.2162251306746317 
0.2199999999999921, -1.2137834702848218 
0.229999999999991, -1.2110270597187909 
0.2399999999999899, -1.2081769809584713 
0.2499999999999888, -1.2055409555528551 
0.2599999999999877, -1.2034292533628457 
0.2699999999999866, -1.2020254693794667 
0.2799999999999855, -1.2013006606916283 
0.2899999999999844, -1.2010535939766407 
0.2999999999999833, -1.2010387065454677 
0.3099999999999822, -1.2010670950722575 
0.3199999999999811, -1.2010287513066298 
0.32999999999998, -1.200865683051585 
0.3399999999999789, -1.2005363360969945 
0.3499999999999778, -1.1999872332399577 
0.35999999999997667, -1.1991313487413287 
0.36999999999997557, -1.1978312947095797 
0.37999999999997447, -1.1958944425376141 
0.38999999999997337, -1.1931048937809332 
0.39999999999997227, -1.1893346587026692 
0.40999999999997117, -1.184751817743224 
0.41999999999997006, -1.1800104969239802 
0.42999999999996896, -1.1761328007273681 
0.43999999999996786, -1.173943181148818 
0.44999999999996676, -1.1735110192950855 
0.45999999999996566, -1.17421822578623 
0.46999999999996456, -1.1753079249854448 
0.47999999999996346, -1.1762880924686987 
0.48999999999996235, -1.1769711111853725 
0.49999999999996125, -1.1773442805230538 
0.5099999999999602, -1.177453438182323 
0.519999999999959, -1.177343518763089 
0.529999999999958, -1.1770374260693206 
0.5399999999999568, -1.1765321002259315 
0.5499999999999557, -1.1758033814078683 
0.5599999999999546, -1.174824076325104 
0.5699999999999535, -1.1736111069068609 
0.5799999999999524, -1.1723186863796218 
0.5899999999999513, -1.1713525945197736 
0.5999999999999502, -1.1713717791924023 
0.6099999999999491, -1.1729936373423335 
0.619999999999948, -1.1762978691311807 
0.6299999999999469, -1.1806351316160786 
0.6399999999999458, -1.1850220212653362 
0.6499999999999447, -1.1887065040778086 
0.6599999999999436, -1.1913994773515866 
0.6699999999999425, -1.19316085803495 
0.6799999999999414, -1.194194037430345 
0.6899999999999403, -1.1947080803877606 
0.6999999999999392, -1.1948640335249832 
0.7099999999999381, -1.1947696601929603 
0.719999999999937, -1.194492866855246 
0.7299999999999359, -1.1940812273705483 
0.7399999999999348, -1.193586229277676 
0.7499999999999337, -1.1930930961807724 
0.7599999999999326, -1.1927475864618517 
0.7699999999999315, -1.19275215284203 
0.7799999999999304, -1.1933014291580664 
0.7899999999999293, -1.1944770778792613 
0.7999999999999282, -1.196185788150016 
0.8099999999999271, -1.1981977648372886 
0.819999999999926, -1.2002455786000636 
0.8299999999999249, -1.2021072003807325 
0.8399999999999238, -1.2036414910742832 
0.8499999999999227, -1.2047874572648252 
0.8599999999999216, -1.205546502008212 
0.8699999999999205, -1.2059595152210367 
0.8799999999999194, -1.2060853323475058 
0.8899999999999183, -1.20598507669664 
0.8999999999999172, -1.2057148475787873 
0.9099999999999161, -1.205326569510481 
0.919999999999915, -1.204874413628401 
0.9299999999999139, -1.2044217248822586 
0.9399999999999128, -1.204040995152318 
0.9499999999999117, -1.2038010367399816 
0.9599999999999106, -1.2037452172939642 
0.9699999999999095, -1.2038752997036277 
0.9799999999999084, -1.204152555137432 
0.9899999999999073, -1.204513425655526 
0.9999999999999062, -1.2048884316448816 
1.0099999999999052, -1.2052157510137147 
1.019999999999904, -1.2054472180906308 
1.029999999999903, -1.205548770371601 
1.039999999999902, -1.2054986100576959 
1.0499999999999008, -1.2052853854818515 
1.0599999999998997, -1.2049071923431989 
1.0699999999998986, -1.2043713751684089 
1.0799999999998975, -1.2036950771757762 
1.0899999999998964, -1.2029066319529234 
1.0999999999998953, -1.2020474853385712 
1.1099999999998942, -1.2011730757214052 
1.119999999999893, -1.2003497197342117 
1.129999999999892, -1.1996446798214546 
1.1399999999998909, -1.1991094673622933 
1.1499999999998898, -1.1987619072104967 
1.1599999999998887, -1.1985775213151697 
1.1699999999998876, -1.1984979954137878 
1.1799999999998865, -1.1984516270864787 
1.1899999999998854, -1.1983711452487353 
1.1999999999998843, -1.1981995457133712 
1.2099999999998832, -1.1978859693014867 
1.219999999999882, -1.1973788857270686 
1.229999999999881, -1.1966227090371917 
1.2399999999998799, -1.1955612589144091 
1.2499999999998788, -1.1941489505560159 
1.2599999999998777, -1.1923680016589855 
1.2699999999998766, -1.1902479249616542 
1.2799999999998755, -1.1878826970770144 
1.2899999999998744, -1.1854390219633848 
1.2999999999998733, -1.18314337505177 
1.3099999999998722, -1.1812323837899432 
1.319999999999871, -1.1798693805830553 
1.32999999999987, -1.179072877139903 
1.3399999999998689, -1.178718638084474 
1.3499999999998678, -1.1786171365185802 
1.3599999999998666, -1.1785982610529269 
1.3699999999998655, -1.1785476433976838 
1.3799999999998644, -1.1783973795611113 
1.3899999999998633, -1.1780995373167362 
1.3999999999998622, -1.1776005735124122 
1.4099999999998611, -1.1768205951046538 
1.41999999999986, -1.175637163285453 
1.429999999999859, -1.1738782906131326 
1.4399999999998578, -1.1713408023596572 
1.4499999999998567, -1.167861909604882 
1.4599999999998556, -1.1634619928447785 
1.4699999999998545, -1.1585104189117126 
1.4799999999998534, -1.1537552843012198 
1.4899999999998523, -1.150052208112372 
1.4999999999998512, -1.147895931819203 
1.5099999999998501, -1.1471675047796963 
1.519999999999849, -1.1473343258081323 
1.529999999999848, -1.1478416709991537 
1.5399999999998468, -1.148336184161588 
1.5499999999998457, -1.1486669512719114 
1.5599999999998446, -1.1487990365692984 
1.5699999999998435, -1.1487388027140593 
1.5799999999998424, -1.148492556438192 
1.5899999999998413, -1.1480474415896398 
1.5999999999998402, -1.1473624149256165 
1.6099999999998391, -1.146365251597032 
1.619999999999838, -1.1449622872451386 
1.629999999999837, -1.1430812191704316 
1.6399999999998358, -1.1407748726217168 
1.6499999999998347, -1.138377773651738 
1.6599999999998336, -1.1365827781976963 
1.6699999999998325, -1.1361971606700858 
1.6799999999998314, -1.137582040412029 
1.6899999999998303, -1.1403074509954798 
1.6999999999998292, -1.1434648989472609 
1.709999999999828, -1.1462737310459201 
1.719999999999827, -1.1483784149254759 
1.729999999999826, -1.1497667860759326 
1.7399999999998248, -1.150576400791281 
1.7499999999998237, -1.1509625452737193 
1.7599999999998226, -1.1510456154826256 
1.7699999999998215, -1.150902647560857 
1.7799999999998204, -1.1505751201556573 
1.7899999999998193, -1.1500820822250695 
1.7999999999998182, -1.1494395293568058 
1.809999999999817, -1.1486936967744765 
1.819999999999816, -1.1479745203922285 
1.8299999999998149, -1.1475534096522293 
1.8399999999998138, -1.1478412527077069 
1.8499999999998127, -1.1492427431890815 
1.8599999999998116, -1.1518960288736062 
1.8699999999998105, -1.1555105874794427 
1.8799999999998094, -1.1594822833757714 
1.8899999999998083, -1.163188658713263 
1.8999999999998072, -1.1662226326859015 
1.909999999999806, -1.1684474176153878 
1.919999999999805, -1.1699215595204975 
1.9299999999998039, -1.1707917377352026 
1.9399999999998028, -1.1712140421857602 
1.9499999999998017, -1.1713165804101455 
1.9599999999998006, -1.1711918633799834 
1.9699999999997995, -1.170904706750389 
1.9799999999997984, -1.1705073878153207 
1.9899999999997973, -1.1700589306508704 
1.9999999999997962, -1.1696448856256432 
2.0099999999998173, -1.1693867077991489 
2.0199999999998384, -1.1694233695061713 
2.0299999999998595, -1.169860416162158 
2.0399999999998806, -1.170715728158677 
2.0499999999999017, -1.1719059017594502 
2.059999999999923, -1.1732822143488646 
2.069999999999944, -1.1746836977530342 
2.079999999999965, -1.1759749646425675 
2.089999999999986, -1.1770613735654314 
2.100000000000007, -1.1778896251365187 
2.1100000000000283, -1.1784422032440967 
2.1200000000000494, -1.1787293725193515 
2.1300000000000705, -1.1787799118761473 
2.1400000000000916, -1.1786321714171935 
2.1500000000001127, -1.1783279014832457 
2.160000000000134, -1.1779106588103168 
2.170000000000155, -1.1774284406330282 
2.180000000000176, -1.1769373563034196 
2.190000000000197, -1.1765008548824298 
2.2000000000002182, -1.1761800569389063 
2.2100000000002393, -1.1760172733211471 
2.2200000000002604, -1.176022228895494 
2.2300000000002815, -1.1761698480788123 
2.2400000000003026, -1.1764098705850974 
2.2500000000003237, -1.1766816670109879 
2.260000000000345, -1.1769271412975133 
2.270000000000366, -1.1770980125468964 
2.280000000000387, -1.1771577661145953 
2.290000000000408, -1.1770808362116012 
2.3000000000004293, -1.176851396400099 
2.3100000000004504, -1.1764627554001639 
2.3200000000004715, -1.175917376187083 
2.3300000000004926, -1.175227407976531 
2.3400000000005137, -1.1744158309999324 
2.3500000000005348, -1.1735181821045966 
2.360000000000556, -1.1725839724008726 
2.370000000000577, -1.1716755646802681 
2.380000000000598, -1.1708615539951277 
2.390000000000619, -1.1702030734422593 
2.4000000000006403, -1.169735715932242 
2.4100000000006614, -1.1694555425352775 
2.4200000000006825, -1.169319226114315 
2.4300000000007036, -1.1692598010363566 
2.4400000000007247, -1.1692070342845393 
2.450000000000746, -1.1690995907993762 
2.460000000000767, -1.1688856614235879 
2.470000000000788, -1.168517228282708 
2.480000000000809, -1.167944683825381 
2.49000000000083, -1.1671163314156057 
2.5000000000008513, -1.1659846998324168 
2.5100000000008724, -1.164519004251607 
2.5200000000008935, -1.1627206698754864 
2.5300000000009146, -1.1606378461761886 
2.5400000000009357, -1.1583752483509069 
2.550000000000957, -1.1560945928936404 
2.560000000000978, -1.1539967623914915 
2.570000000000999, -1.152276328734069 
2.58000000000102, -1.1510553774252104 
2.5900000000010412, -1.150333751029923 
2.6000000000010624, -1.1499979678041803 
2.6100000000010835, -1.149884504114878 
2.6200000000011046, -1.1498458831108769 
2.6300000000011257, -1.1497793652095138 
2.6400000000011468, -1.1496200607442009 
2.650000000001168, -1.1493194566776423 
2.660000000001189, -1.1488237759286921 
2.67000000000121, -1.148056342743682 
2.680000000001231, -1.1469050035950694 
2.6900000000012523, -1.1452194639193718 
2.7000000000012734, -1.1428309984328544 
2.7100000000012945, -1.139611627937858 
2.7200000000013156, -1.1355776588104836 
2.7300000000013367, -1.1310004118287615 
2.740000000001358, -1.1264312117596478 
2.750000000001379, -1.1225471133454032 
2.7600000000014, -1.1198495003039128 
2.770000000001421, -1.1184264656744654 
2.780000000001442, -1.1179810578627771 
2.7900000000014633, -1.1180722422618599 
2.8000000000014844, -1.118337421906357 
2.8100000000015055, -1.11856706799739 
2.8200000000015266, -1.1186715242262488 
2.8300000000015477, -1.1186220159199125 
2.840000000001569, -1.1184063164047644 
2.85000000000159, -1.1180026435024537 
2.860000000001611, -1.1173637476352882 
2.870000000001632, -1.1164049972001877 
2.8800000000016532, -1.1149969819430987 
2.8900000000016743, -1.1129740398747783 
2.9000000000016954, -1.110184981009906 
2.9100000000017165, -1.1066168716426747 
2.9200000000017377, -1.102573978976317 
2.9300000000017588, -1.0987624478758482 
2.94000000000178, -1.0960549922268765 
2.950000000001801, -1.094972294875051 
2.960000000001822, -1.095352021598926 
2.970000000001843, -1.0965540524254382 
2.9800000000018643, -1.0979267781636513 
2.9900000000018854, -1.099081239588893 
3.0000000000019065, -1.0998868619388782 
3.0100000000019276, -1.1003557861204014 
3.0200000000019487, -1.100545759227936 
3.03000000000197, -1.1005103393344382 
3.040000000001991, -1.100280798275017 
3.050000000002012, -1.0998619403190175 
3.060000000002033, -1.0992329343115164 
3.070000000002054, -1.0983528164154266 
3.0800000000020753, -1.0971784691067392 
3.0900000000020964, -1.0957108504527668 
3.1000000000021175, -1.094083450683676 
3.1100000000021386, -1.0926682069565412 
3.1200000000021597, -1.092083402727627 
3.130000000002181, -1.0929467562420867 
3.140000000002202, -1.0954331334033807 
3.150000000002223, -1.0990482687640273 
3.160000000002244, -1.1029165025450742 
3.1700000000022652, -1.1062956245801123 
3.1800000000022863, -1.1088449633201434 
3.1900000000023074, -1.1105632848419609 
3.2000000000023285, -1.1116077931639825 
3.2100000000023496, -1.1121589438858481 
3.2200000000023707, -1.112361428523807 
3.230000000002392, -1.1123124864360967 
3.240000000002413, -1.1120690523354138 
3.250000000002434, -1.1116601071284544 
3.260000000002455, -1.1111021322173533 
3.2700000000024763, -1.1104224769130866 
3.2800000000024974, -1.1096978575928926 
3.2900000000025185, -1.1091069951120014 
3.3000000000025396, -1.1089672885767912 
3.3100000000025607, -1.1096871043268037 
3.3200000000025818, -1.1115854743921871 
3.330000000002603, -1.1146638788326126 
3.340000000002624, -1.1185298265746089 
3.350000000002645, -1.1225648280918032 
3.360000000002666, -1.1262002572375525 
3.3700000000026873, -1.1291012771206277 
3.3800000000027084, -1.1311870592151814 
3.3900000000027295, -1.1325457441504603 
3.4000000000027506, -1.1333323318895434 
3.4100000000027717, -1.1336994724652154 
3.420000000002793, -1.1337676979445457 
3.430000000002814, -1.1336218299929506 
3.440000000002835, -1.1333201503743338 
3.450000000002856, -1.1329095422595086 
3.460000000002877, -1.132444918005641 
3.4700000000028983, -1.1320110150873695 
3.4800000000029194, -1.1317372811830777 
3.4900000000029405, -1.131786802276523 
3.5000000000029616, -1.1323057493236373 
3.5100000000029827, -1.1333534347943437 
3.520000000003004, -1.1348638275514251 
3.530000000003025, -1.1366685557175706 
3.540000000003046, -1.138558725482329 
3.550000000003067, -1.1403429187265774 
3.5600000000030882, -1.1418800193132606 
3.5700000000031094, -1.1430891018123408 
3.5800000000031305, -1.1439450276333605 
3.5900000000031516, -1.1444656650868834 
3.6000000000031727, -1.1446950074647364 
3.6100000000031938, -1.1446870862926593 
3.620000000003215, -1.1444951850517822 
3.630000000003236, -1.1441684369137328 
3.640000000003257, -1.1437550982450033 
3.650000000003278, -1.143309555249675 
3.6600000000032993, -1.1428978084709775 
3.6700000000033204, -1.142594453748592 
3.6800000000033415, -1.142467111168704 
3.6900000000033626, -1.1425541832392505 
3.7000000000033837, -1.1428504442021667 
3.710000000003405, -1.1433102973845084 
3.720000000003426, -1.1438646706363724 
3.730000000003447, -1.144440075149416 
3.740000000003468, -1.144971716958434 
3.750000000003489, -1.1454091385633665 
3.7600000000035103, -1.145716785989792 
3.7700000000035314, -1.1458725516935613 
3.7800000000035525, -1.1458662205251553 
3.7900000000035736, -1.1456983369029685 
3.8000000000035947, -1.1453792434768606 
3.810000000003616, -1.1449281691093982 
3.820000000003637, -1.1443727833378785 
3.830000000003658, -1.1437496127898252 
3.840000000003679, -1.1431045519293044 
3.8500000000037002, -1.1424910923290157 
3.8600000000037213, -1.1419637304091348 
3.8700000000037424, -1.1415666505015751 
3.8800000000037635, -1.1413217252811063 
3.8900000000037847, -1.14122164670593 
3.9000000000038058, -1.1412319769027541 
3.910000000003827, -1.1413012514255427 
3.920000000003848, -1.1413737373633557 
3.930000000003869, -1.1413987114697963 
3.94000000000389, -1.141333925149826 
3.9500000000039113, -1.1411452799715422 
3.9600000000039324, -1.1408060413627075 
3.9700000000039535, -1.1402974608226515 
3.9800000000039746, -1.1396106663971406 
3.9900000000039957, -1.1387487586130118 
4.000000000004016, -1.137728491885487 
4.010000000003993, -1.1365817707573425 
4.02000000000397, -1.1353571954989148 
4.030000000003946, -1.1341206355566598 
4.040000000003923, -1.1329519956668874 
4.0500000000039, -1.1319345465052693 
4.0600000000038765, -1.1311356240013288 
4.070000000003853, -1.1305844192946626 
4.08000000000383, -1.1302598472748688 
4.090000000003807, -1.130098829986208 
4.100000000003783, -1.1300202016471599 
4.11000000000376, -1.1299475016214642 
4.120000000003737, -1.1298185361842847 
4.130000000003713, -1.1295822517634588 
4.14000000000369, -1.1291901949123389 
4.150000000003667, -1.128589240526834 
4.1600000000036434, -1.127719827888088 
4.17000000000362, -1.126522232432152 
4.180000000003597, -1.1249513378084655 
4.1900000000035735, -1.12299693750367 
4.20000000000355, -1.1207033707967866 
4.210000000003527, -1.1181816576429706 
4.220000000003504, -1.1156081889108092 
4.23000000000348, -1.1132033353469315 
4.240000000003457, -1.1111840813475158 
4.250000000003434, -1.109697656952873 
4.26000000000341, -1.1087682876606488 
4.270000000003387, -1.1082970929842018 
4.280000000003364, -1.1081186852744216 
4.2900000000033405, -1.1080709980104075 
4.300000000003317, -1.1080344408606841 
4.310000000003294, -1.1079334443799354 
4.320000000003271, -1.107718341820852 
4.330000000003247, -1.1073442058994358 
4.340000000003224, -1.1067531705911464 
4.350000000003201, -1.1058612527112706 
4.360000000003177, -1.1045515802679016 
4.370000000003154, -1.1026808892176012 
4.380000000003131, -1.1001110828252916 
4.390000000003107, -1.0967746078046354 
4.400000000003084, -1.0927620381208556 
4.410000000003061, -1.0883854598870124 
4.4200000000030375, -1.0841502450414064 
4.430000000003014, -1.0806008570203343 
4.440000000002991, -1.0781006980197425 
4.450000000002968, -1.076690219959875 
4.460000000002944, -1.0761278856740533 
4.470000000002921, -1.0760630050257511 
4.480000000002898, -1.076194929071764 
4.490000000002874, -1.0763346323354102 
4.500000000002851, -1.076388210910493 
4.510000000002828, -1.0763151600701648 
4.520000000002804, -1.0760925506245584 
4.530000000002781, -1.0756911340439734 
4.540000000002758, -1.075059049296271 
4.5500000000027345, -1.0741086359136947 
4.560000000002711, -1.0727063838533948 
4.570000000002688, -1.07067425154242 
4.580000000002665, -1.067822014474344 
4.590000000002641, -1.0640361229141655 
4.600000000002618, -1.0594251275122106 
4.610000000002595, -1.0544430284099964 
4.620000000002571, -1.0498356975924759 
4.630000000002548, -1.046335537450323 
4.640000000002525, -1.044289865786385 
4.6500000000025015, -1.0435384311194604 
4.660000000002478, -1.0436157335170204 
4.670000000002455, -1.0440473750805377 
4.6800000000024315, -1.0445147909833425 
4.690000000002408, -1.044863870003289 
4.700000000002385, -1.0450449628962533 
4.710000000002362, -1.0450537744250796 
4.720000000002338, -1.0448941150569317 
4.730000000002315, -1.0445580953006668 
4.740000000002292, -1.0440147097897792 
4.750000000002268, -1.0432007987030274 
4.760000000002245, -1.0420131565963755 
4.770000000002222, -1.040307140466258 
4.7800000000021985, -1.037917008308202 
4.790000000002175, -1.0347226335795878 
4.800000000002152, -1.0307766487408794 
4.810000000002129, -1.026443366546136 
4.820000000002105, -1.0224035682566357 
4.830000000002082, -1.0193960640737392 
4.840000000002059, -1.0178193823518629 
4.850000000002035, -1.0175416729907236 
4.860000000002012, -1.0180777941294523 
4.870000000001989, -1.01891456749752 
4.880000000001965, -1.0197090024512299 
4.890000000001942, -1.020306041812913 
4.900000000001919, -1.020670837819687 
4.9100000000018955, -1.020819929787656 
4.920000000001872, -1.0207787821347876 
4.930000000001849, -1.020561228796414 
4.940000000001826, -1.0201599985975194 
