t, s[1].omega / s[0].omega 
0, -0.6599977062194298 
0.009999999999999995, -0.6597584000786925 
0.019999999999999934, -0.6594968674812008 
0.029999999999999874, -0.6592069320081959 
0.04000000000000012, -0.6588823411111395 
0.050000000000000405, -0.658520208629408 
0.06000000000000069, -0.6581228831868785 
0.07000000000000098, -0.6576983026145345 
0.08000000000000126, -0.6572599292591622 
0.09000000000000155, -0.6568273863349103 
0.10000000000000184, -0.6564283744540941 
0.11000000000000212, -0.6561018812135682 
0.12000000000000241, -0.6559022668451855 
0.130000000000002, -0.6559034100113412 
0.1400000000000009, -0.6562015833123231 
0.1499999999999998, -0.656914985807031 
0.1599999999999987, -0.6581768086222217 
0.1699999999999976, -0.6601174762558994 
0.1799999999999965, -0.6628313409869213 
0.1899999999999954, -0.6663268294358635 
0.1999999999999943, -0.6704719752212343 
0.2099999999999932, -0.6749690839883602 
0.2199999999999921, -0.6794020160681472 
0.229999999999991, -0.6833616446090841 
0.2399999999999899, -0.6865807704937447 
0.2499999999999888, -0.6889880146584834 
0.2599999999999877, -0.6906632522401069 
0.2699999999999866, -0.6917533196806337 
0.2799999999999855, -0.6924063135264503 
0.2899999999999844, -0.6927407820037467 
0.2999999999999833, -0.6928391062954311 
0.3099999999999822, -0.6927509692429643 
0.3199999999999811, -0.6924983366790454 
0.32999999999998, -0.6920782970917958 
0.3399999999999789, -0.6914626279474585 
0.3499999999999778, -0.6905941498120438 
0.35999999999997667, -0.6893812667220987 
0.36999999999997557, -0.687695078173571 
0.37999999999997447, -0.6853790391280195 
0.38999999999997337, -0.6822866040801527 
0.39999999999997227, -0.6783558906106837 
0.40999999999997117, -0.6736971219284377 
0.41999999999997006, -0.6686251762196269 
0.42999999999996896, -0.6635824106473092 
0.43999999999996786, -0.6589881652983269 
0.44999999999996676, -0.6551172698343452 
0.45999999999996566, -0.6520683703443183 
0.46999999999996456, -0.649802917391742 
0.47999999999996346, -0.6482058399314672 
0.48999999999996235, -0.6471358127682072 
0.49999999999996125, -0.6464563403454576 
0.5099999999999602, -0.6460507318880342 
0.519999999999959, -0.645826631234032 
0.529999999999958, -0.6457147703032586 
0.5399999999999568, -0.6456650842228326 
0.5499999999999557, -0.6456421381504694 
0.5599999999999546, -0.6456210257693276 
0.5699999999999535, -0.6455843863138141 
0.5799999999999524, -0.6455207967240674 
0.5899999999999513, -0.6454243550720185 
0.5999999999999502, -0.6452947045201808 
0.6099999999999491, -0.6451363036127133 
0.619999999999948, -0.6449560087630121 
0.6299999999999469, -0.6447592856113269 
0.6399999999999458, -0.6445468419193852 
0.6499999999999447, -0.6443137570206117 
0.6599999999999436, -0.6440517368188555 
0.6699999999999425, -0.6437530903276956 
0.6799999999999414, -0.6434141684693547 
0.6899999999999403, -0.6430369338237553 
0.6999999999999392, -0.6426289730097585 
0.7099999999999381, -0.6422032167725658 
0.719999999999937, -0.6417785468102467 
0.7299999999999359, -0.6413818989395679 
0.7399999999999348, -0.641051952568527 
0.7499999999999337, -0.6408441217228487 
0.7599999999999326, -0.6408361511524429 
0.7699999999999315, -0.6411329376178513 
0.7799999999999304, -0.6418680268620566 
0.7899999999999293, -0.6431974298824578 
0.7999999999999282, -0.6452792123891026 
0.8099999999999271, -0.6482315304924022 
0.819999999999926, -0.6520675569171857 
0.8299999999999249, -0.6566255177569779 
0.8399999999999238, -0.6615428014348004 
0.8499999999999227, -0.6663296179748166 
0.8599999999999216, -0.6705336974936728 
0.8699999999999205, -0.6738921732191399 
0.8799999999999194, -0.6763676047734819 
0.8899999999999183, -0.6780753471571462 
0.8999999999999172, -0.6791850984764591 
0.9099999999999161, -0.6798555421677339 
0.919999999999915, -0.6802087487890176 
0.9299999999999139, -0.6803277536961125 
0.9399999999999128, -0.6802621896320855 
0.9499999999999117, -0.6800341463314138 
0.9599999999999106, -0.6796413982447399 
0.9699999999999095, -0.679057416300562 
0.9799999999999084, -0.6782287156716593 
0.9899999999999073, -0.6770715817370702 
0.9999999999999062, -0.6754732327454712 
1.0099999999999052, -0.6733069060625088 
1.019999999999904, -0.6704717692552798 
1.029999999999903, -0.6669565017143781 
1.039999999999902, -0.662895586175053 
1.0499999999999008, -0.6585672417992678 
1.0599999999998997, -0.6543146943811237 
1.0699999999998986, -0.6504385275394446 
1.0799999999998975, -0.6471273497088775 
1.0899999999998964, -0.6444495874505821 
1.0999999999998953, -0.6423838737782621 
1.1099999999998942, -0.6408576500186528 
1.119999999999893, -0.639777663431143 
1.129999999999892, -0.6390491609637877 
1.1399999999998909, -0.6385861620800626 
1.1499999999998898, -0.6383159377644381 
1.1599999999998887, -0.6381800187130604 
1.1699999999998876, -0.6381332399773093 
1.1799999999998865, -0.6381418333153902 
1.1899999999998854, -0.6381813016760567 
1.1999999999998843, -0.6382345973045399 
1.2099999999998832, -0.6382908570796679 
1.219999999999882, -0.6383445569270496 
1.229999999999881, -0.638394493303138 
1.2399999999998799, -0.6384417943683645 
1.2499999999998788, -0.6384866485005483 
1.2599999999998777, -0.6385246466708528 
1.2699999999998766, -0.6385447289043772 
1.2799999999998755, -0.638530469899972 
1.2899999999998744, -0.6384645229129637 
1.2999999999998733, -0.6383338539849501 
1.3099999999998722, -0.6381329677841401 
1.319999999999871, -0.6378640688466876 
1.32999999999987, -0.6375352738954694 
1.3399999999998689, -0.6371588404705636 
1.3499999999998678, -0.6367508930535049 
1.3599999999998666, -0.6363333276478234 
1.3699999999998655, -0.6359381164419327 
1.3799999999998644, -0.6356140695187121 
1.3899999999998633, -0.635435834576815 
1.3999999999998622, -0.6355140122945188 
1.4099999999998611, -0.636003139282417 
1.41999999999986, -0.6371004074819036 
1.429999999999859, -0.6390227779271345 
1.4399999999998578, -0.6419476467499174 
1.4499999999998567, -0.6459137219631222 
1.4599999999998556, -0.6507179485039527 
1.4699999999998545, -0.6558955600277123 
1.4799999999998534, -0.6608560201186129 
1.4899999999998523, -0.6651150337651232 
1.4999999999998512, -0.6684489929195643 
1.5099999999998501, -0.6708793980010486 
1.519999999999849, -0.6725589469342117 
1.529999999999848, -0.6736677831483759 
1.5399999999998468, -0.6743605354355279 
1.5499999999998457, -0.6747518800177643 
1.5599999999998446, -0.6749192689764796 
1.5699999999998435, -0.6749098322186591 
1.5799999999998424, -0.6747461745112833 
1.5899999999998413, -0.6744296205361644 
1.5999999999998402, -0.6739409949978376 
1.6099999999998391, -0.6732399215868092 
1.619999999999838, -0.6722649375807683 
1.629999999999837, -0.6709388378731966 
1.6399999999998358, -0.6691853953659805 
1.6499999999998347, -0.6669608652818756 
1.6599999999998336, -0.664291883535223 
1.6699999999998325, -0.6612959145508724 
1.6799999999998314, -0.6581618431647117 
1.6899999999998303, -0.6550965808441049 
1.6999999999998292, -0.6522707718580742 
1.709999999999828, -0.6497915261248564 
1.719999999999827, -0.6477042317645721 
1.729999999999826, -0.6460091875520989 
1.7399999999998248, -0.6446796437192575 
1.7499999999998237, -0.6436752795125616 
1.7599999999998226, -0.6429506311094713 
1.7699999999998215, -0.6424599888887287 
1.7799999999998204, -0.6421602757005418 
1.7899999999998193, -0.6420128140282918 
1.7999999999998182, -0.6419843786411439 
1.809999999999817, -0.6420476878939714 
1.819999999999816, -0.6421814430548054 
1.8299999999998149, -0.6423700330747978 
1.8399999999998138, -0.6426029454716417 
1.8499999999998127, -0.6428737079937029 
1.8599999999998116, -0.6431779444891055 
1.8699999999998105, -0.6435101896247963 
1.8799999999998094, -0.6438598272978296 
1.8899999999998083, -0.6442077825707788 
1.8999999999998072, -0.6445264190995221 
1.909999999999806, -0.6447841019118398 
1.919999999999805, -0.6449529432410925 
1.9299999999998039, -0.6450156283739295 
1.9399999999998028, -0.644967729948306 
1.9499999999998017, -0.6448152533830425 
1.9599999999998006, -0.6445700179349243 
1.9699999999997995, -0.6442457751036491 
1.9799999999997984, -0.6438566281020687 
1.9899999999997973, -0.6434181233618689 
1.9999999999997962, -0.6429510273957227 
2.0099999999998173, -0.6424879736538576 
2.0199999999998384, -0.6420832500843823 
2.0299999999998595, -0.6418252826683998 
2.0399999999998806, -0.641848891305686 
2.0499999999999017, -0.6423391049270377 
2.059999999999923, -0.6435107259544407 
2.069999999999944, -0.6455445650913558 
2.079999999999965, -0.6484797019903749 
2.089999999999986, -0.6521153247737836 
2.100000000000007, -0.656024704537672 
2.1100000000000283, -0.6597231212956218 
2.1200000000000494, -0.6628702410589248 
2.1300000000000705, -0.6653462411908759 
2.1400000000000916, -0.6671918925548751 
2.1500000000001127, -0.6685146944128504 
2.160000000000134, -0.6694284796405914 
2.170000000000155, -0.6700294462263475 
2.180000000000176, -0.6703910176512897 
2.190000000000197, -0.6705652066091605 
2.2000000000002182, -0.6705852504856304 
2.2100000000002393, -0.6704677296384588 
2.2200000000002604, -0.6702136570774433 
2.2300000000002815, -0.6698086495773893 
2.2400000000003026, -0.6692229830894555 
2.2500000000003237, -0.668413414859271 
2.260000000000345, -0.6673299047669777 
2.270000000000366, -0.6659303739515113 
2.280000000000387, -0.6642027689918792 
2.290000000000408, -0.6621853838723367 
2.3000000000004293, -0.6599706128597873 
2.3100000000004504, -0.6576847746956151 
2.3200000000004715, -0.6554544778332876 
2.3300000000004926, -0.653379179274716 
2.3400000000005137, -0.6515210360090224 
2.3500000000005348, -0.6499092878533503 
2.360000000000556, -0.6485504944429372 
2.370000000000577, -0.6474380444765157 
2.380000000000598, -0.646558502364569 
2.390000000000619, -0.6458950341477309 
2.4000000000006403, -0.6454290496072705 
2.4100000000006614, -0.6451411043342135 
2.4200000000006825, -0.6450116900340868 
2.4300000000007036, -0.6450221359785668 
2.4400000000007247, -0.6451555696461407 
2.450000000000746, -0.6453977492409424 
2.460000000000767, -0.6457375250840668 
2.470000000000788, -0.6461666224244972 
2.480000000000809, -0.6466783292696252 
2.49000000000083, -0.6472646499330643 
2.5000000000008513, -0.6479118878484774 
2.5100000000008724, -0.6485957680654714 
2.5200000000008935, -0.6492787938072728 
2.5300000000009146, -0.6499130950409785 
2.5400000000009357, -0.6504497356350162 
2.550000000000957, -0.6508507520098092 
2.560000000000978, -0.6510972843829441 
2.570000000000999, -0.6511897085797089 
2.58000000000102, -0.6511413353521924 
2.5900000000010412, -0.6509704186946397 
2.6000000000010624, -0.6506942032289137 
2.6100000000010835, -0.6503262056947048 
2.6200000000011046, -0.6498763775504293 
2.6300000000011257, -0.6493536159362875 
2.6400000000011468, -0.6487705724972345 
2.650000000001168, -0.6481511186828233 
2.660000000001189, -0.6475404810419276 
2.67000000000121, -0.6470160175972476 
2.680000000001231, -0.6466918413976477 
2.6900000000012523, -0.6467039907359283 
2.7000000000012734, -0.6471626556453178 
2.7100000000012945, -0.6480806522570253 
2.7200000000013156, -0.6493329998647822 
2.7300000000013367, -0.650710023120322 
2.740000000001358, -0.6520334889333862 
2.750000000001379, -0.6532205667124984 
2.7600000000014, -0.6542551145096475 
2.770000000001421, -0.6551368139712629 
2.780000000001442, -0.6558624359695762 
2.7900000000014633, -0.6564303192043999 
2.8000000000014844, -0.6568456908076439 
2.8100000000015055, -0.6571199119676223 
2.8200000000015266, -0.657266330806266 
2.8300000000015477, -0.6572959462620608 
2.840000000001569, -0.6572141256395712 
2.85000000000159, -0.6570183937883378 
2.860000000001611, -0.6566971334220673 
2.870000000001632, -0.6562295243604612 
2.8800000000016532, -0.6555878472485173 
2.8900000000016743, -0.6547438084690239 
2.9000000000016954, -0.6536796514350661 
2.9100000000017165, -0.6524014264614434 
2.9200000000017377, -0.650947352541756 
2.9300000000017588, -0.6493839620405171 
2.94000000000178, -0.6477900675845891 
2.950000000001801, -0.6462375949977737 
2.960000000001822, -0.6447794211693754 
2.970000000001843, -0.6434474809704602 
2.9800000000018643, -0.6422577260223761 
2.9900000000018854, -0.6412168832649144 
3.0000000000019065, -0.6403278297276314 
3.0100000000019276, -0.6395926792359751 
3.0200000000019487, -0.6390139627917741 
3.03000000000197, -0.6385946535789819 
3.040000000001991, -0.6383377160369716 
3.050000000002012, -0.6382456642836772 
3.060000000002033, -0.6383204046122948 
3.070000000002054, -0.6385634172959647 
3.0800000000020753, -0.6389760973439478 
3.0900000000020964, -0.6395598215857374 
3.1000000000021175, -0.6403150535756972 
3.1100000000021386, -0.6412386218267047 
3.1200000000021597, -0.6423184844903038 
3.130000000002181, -0.6435263390147179 
3.140000000002202, -0.644810732589196 
3.150000000002223, -0.6460960199551433 
3.160000000002244, -0.6472924880444915 
3.1700000000022652, -0.6483169778686412 
3.1800000000022863, -0.6491141762795635 
3.1900000000023074, -0.6496662020282946 
3.2000000000023285, -0.6499866682404838 
3.2100000000023496, -0.6501060064155466 
3.2200000000023707, -0.650057288022306 
3.230000000002392, -0.6498672100092866 
3.240000000002413, -0.649552087202618 
3.250000000002434, -0.6491168060354207 
3.260000000002455, -0.6485549296666115 
3.2700000000024763, -0.6478489720068834 
3.2800000000024974, -0.6469704942701064 
3.2900000000025185, -0.6458799176668768 
3.3000000000025396, -0.6445258542733534 
3.3100000000025607, -0.6428440290136272 
3.3200000000025818, -0.6407589673322389 
3.330000000002603, -0.6382009573929007 
3.340000000002624, -0.6351593012175283 
3.350000000002645, -0.6317672543851092 
3.360000000002666, -0.6283406124413727 
3.3700000000026873, -0.6252785669416063 
3.3800000000027084, -0.6228780277435522 
3.3900000000027295, -0.6212242928926247 
3.4000000000027506, -0.6202228406243352 
3.4100000000027717, -0.6196981906571942 
3.420000000002793, -0.6194752184131778 
3.430000000002814, -0.6194167686130668 
3.440000000002835, -0.6194293533882926 
3.450000000002856, -0.6194546186984056 
3.460000000002877, -0.6194577548417443 
3.4700000000028983, -0.6194175653227623 
3.4800000000029194, -0.6193193822381926 
3.4900000000029405, -0.6191507307723887 
3.5000000000029616, -0.6188995005256915 
3.5100000000029827, -0.6185545751979414 
3.520000000003004, -0.6181087841778845 
3.530000000003025, -0.6175632160806581 
3.540000000003046, -0.6169305757595486 
3.550000000003067, -0.6162347309589264 
3.5600000000030882, -0.6155054054318176 
3.5700000000031094, -0.6147703896440472 
3.5800000000031305, -0.6140495093365254 
3.5900000000031516, -0.6133530830385133 
3.6000000000031727, -0.6126844604920828 
3.6100000000031938, -0.6120442932952836 
3.620000000003215, -0.6114343637406614 
3.630000000003236, -0.6108600996073958 
3.640000000003257, -0.6103320284179057 
3.650000000003278, -0.6098668126549354 
3.6600000000032993, -0.6094883364033947 
3.6700000000033204, -0.609228979253077 
3.6800000000033415, -0.6091309497068919 
3.6900000000033626, -0.609247384075144 
3.7000000000033837, -0.6096427531128328 
3.710000000003405, -0.6103918010676764 
3.720000000003426, -0.6115755931449962 
3.730000000003447, -0.6132722103009716 
3.740000000003468, -0.6155386836413903 
3.750000000003489, -0.6183816971229614 
3.7600000000035103, -0.6217208989444548 
3.7700000000035314, -0.6253625273207148 
3.7800000000035525, -0.6290138500900808 
3.7900000000035736, -0.6323564307305212 
3.8000000000035947, -0.6351483224609125 
3.810000000003616, -0.6372885350016626 
3.820000000003637, -0.6388070764900795 
3.830000000003658, -0.6398071848794429 
3.840000000003679, -0.6404079377033174 
3.8500000000037002, -0.6407111631757163 
3.8600000000037213, -0.6407903032898133 
3.8700000000037424, -0.6406905063393864 
3.8800000000037635, -0.640431716834339 
3.8900000000037847, -0.6400106508893499 
3.9000000000038058, -0.6394001397023567 
3.910000000003827, -0.6385457393507636 
3.920000000003848, -0.6373610317380318 
3.930000000003869, -0.6357261192613451 
3.94000000000389, -0.6334991250165187 
3.9500000000039113, -0.630554644773216 
3.9600000000039324, -0.6268541904179261 
3.9700000000039535, -0.6225202308708421 
3.9800000000039746, -0.6178507413844568 
3.9900000000039957, -0.6132364008952721 
4.000000000004016, -0.6090281487061221 
4.010000000003993, -0.6054449656120762 
4.02000000000397, -0.6025607504737656 
4.030000000003946, -0.600343517261691 
4.040000000003923, -0.5987051349622028 
4.0500000000039, -0.5975389550548421 
4.0600000000038765, -0.596741567919884 
4.070000000003853, -0.5962228064746787 
4.08000000000383, -0.5959088634016415 
4.090000000003807, -0.5957419154673157 
4.100000000003783, -0.5956782140713636 
4.11000000000376, -0.5956857061188288 
4.120000000003737, -0.5957417742718063 
4.130000000003713, -0.5958314142182559 
4.14000000000369, -0.595945923904567 
4.150000000003667, -0.5960818600689506 
4.1600000000036434, -0.59623965049892 
4.17000000000362, -0.5964210954838697 
4.180000000003597, -0.5966254581701272 
4.1900000000035735, -0.5968450573451418 
4.20000000000355, -0.597062584293137 
4.210000000003527, -0.5972524662986956 
4.220000000003504, -0.5973866388457929 
4.23000000000348, -0.5974420629601072 
4.240000000003457, -0.5974059246920723 
4.250000000003434, -0.597276247930647 
4.26000000000341, -0.5970588679616389 
4.270000000003387, -0.596763419146349 
4.280000000003364, -0.5964005069959486 
4.2900000000033405, -0.5959809707563246 
4.300000000003317, -0.5955173548305981 
4.310000000003294, -0.5950275893729049 
4.320000000003271, -0.594541014196568 
4.330000000003247, -0.5941066762243299 
4.340000000003224, -0.5938025110321493 
4.350000000003201, -0.5937405512371885 
4.360000000003177, -0.5940573036140625 
4.370000000003154, -0.5948738042497712 
4.380000000003131, -0.596220565676446 
4.390000000003107, -0.5979654582710577 
4.400000000003084, -0.5998296807300671 
4.410000000003061, -0.6015277323487187 
4.4200000000030375, -0.6029152991064992 
4.430000000003014, -0.6040022995432184 
4.440000000002991, -0.6048606385469035 
4.450000000002968, -0.6055489355779635 
4.460000000002944, -0.6060966627024723 
4.470000000002921, -0.6065168717029269 
4.480000000002898, -0.6068182888511997 
4.490000000002874, -0.6070096569365624 
4.500000000002851, -0.6070992103788615 
4.510000000002828, -0.607092631331155 
4.520000000002804, -0.6069911100635982 
4.530000000002781, -0.6067900502171129 
4.540000000002758, -0.6064787491231369 
4.5500000000027345, -0.6060416717119004 
4.560000000002711, -0.6054622328597451 
4.570000000002688, -0.6047295866590845 
4.580000000002665, -0.6038470808643497 
4.590000000002641, -0.6028383004134531 
4.600000000002618, -0.6017458079463027 
4.610000000002595, -0.6006214721317009 
4.620000000002571, -0.5995133455519864 
4.630000000002548, -0.5984562685382657 
4.640000000002525, -0.597469753288003 
4.6500000000025015, -0.5965616480694413 
4.660000000002478, -0.5957339116039 
4.670000000002455, -0.5949876734319559 
4.6800000000024315, -0.5943265528278987 
4.690000000002408, -0.5937584518414184 
4.700000000002385, -0.5932964296856078 
4.710000000002362, -0.5929591505036544 
4.720000000002338, -0.5927711605641919 
4.730000000002315, -0.5927630763548386 
4.740000000002292, -0.5929716497790941 
4.750000000002268, -0.5934395242410205 
4.760000000002245, -0.5942141792404864 
4.770000000002222, -0.5953449768923035 
4.7800000000021985, -0.596876406234274 
4.790000000002175, -0.5988350366167242 
4.800000000002152, -0.6012087210017677 
4.810000000002129, -0.6039215729236965 
4.820000000002105, -0.6068180205199982 
4.830000000002082, -0.6096768520621233 
4.840000000002059, -0.6122654138802424 
4.850000000002035, -0.6144109896501544 
4.860000000002012, -0.6160438355776046 
4.870000000001989, -0.6171885141676616 
4.880000000001965, -0.617922441194761 
4.890000000001942, -0.6183345263440224 
4.900000000001919, -0.6185005653130912 
4.9100000000018955, -0.6184741499517286 
4.920000000001872, -0.6182857086547359 
