t, s[1].omega / s[0].omega 
0, -1.799996969974241 
0.009999999999999995, -1.7995841607758987 
0.019999999999999934, -1.798954001078825 
0.029999999999999874, -1.7981142719377108 
0.04000000000000012, -1.7971045456205643 
0.050000000000000405, -1.7960333773720047 
0.06000000000000069, -1.7950918382743644 
0.07000000000000098, -1.7944664920607565 
0.08000000000000126, -1.7941797642615658 
0.09000000000000155, -1.7940751602065255 
0.10000000000000184, -1.7939744619600375 
0.11000000000000212, -1.793776015542214 
0.12000000000000241, -1.7934363839271596 
0.130000000000002, -1.792930607390069 
0.1400000000000009, -1.7922497560811592 
0.1499999999999998, -1.7914616076448255 
0.1599999999999987, -1.7908206017234665 
0.1699999999999976, -1.7907394557812517 
0.1799999999999965, -1.7914129454479812 
0.1899999999999954, -1.7925406032971598 
0.1999999999999943, -1.7936422886762933 
0.2099999999999932, -1.794435994462911 
0.2199999999999921, -1.7948631002649293 
0.229999999999991, -1.7949679241921743 
0.2399999999999899, -1.7948148691571402 
0.2499999999999888, -1.794459481730557 
0.2599999999999877, -1.7939487527286004 
0.2699999999999866, -1.7933337632975248 
0.2799999999999855, -1.792683202982953 
0.2899999999999844, -1.7920852248885946 
0.2999999999999833, -1.791623615525862 
0.3099999999999822, -1.7913276946216121 
0.3199999999999811, -1.7911433939046284 
0.32999999999998, -1.7909719263573038 
0.3399999999999789, -1.7907258172324152 
0.3499999999999778, -1.7903395731705298 
0.35999999999997667, -1.7897476666915164 
0.36999999999997557, -1.78886909577832 
0.37999999999997447, -1.787641780699584 
0.38999999999997337, -1.7861723732459205 
0.39999999999997227, -1.784965431590739 
0.40999999999997117, -1.7847695828608192 
0.41999999999997006, -1.7857506608404712 
0.42999999999996896, -1.787223264738028 
0.43999999999996786, -1.7884693926663389 
0.44999999999996676, -1.7892320730857443 
0.45999999999996566, -1.7895554533815314 
0.46999999999996456, -1.7895571393366254 
0.47999999999996346, -1.7893370064652405 
0.48999999999996235, -1.7889685625476102 
0.49999999999996125, -1.7885169451036973 
0.5099999999999602, -1.7880545954325526 
0.519999999999959, -1.7876548417501872 
0.529999999999958, -1.7873645154984867 
0.5399999999999568, -1.787182978882787 
0.5499999999999557, -1.7870641758645864 
0.5599999999999546, -1.7869373546147131 
0.5699999999999535, -1.786731729764044 
0.5799999999999524, -1.7863840299439016 
0.5899999999999513, -1.7858256101182115 
0.5999999999999502, -1.7849648923385022 
0.6099999999999491, -1.783688507108593 
0.619999999999948, -1.781924196880714 
0.6299999999999469, -1.7798221207890133 
0.6399999999999458, -1.777956586026018 
0.6499999999999447, -1.7770658977967915 
0.6599999999999436, -1.7772623570726385 
0.6699999999999425, -1.7779377923929918 
0.6799999999999414, -1.7785175892735772 
0.6899999999999403, -1.7788040429870882 
0.6999999999999392, -1.7788164641796862 
0.7099999999999381, -1.7786220136248272 
0.719999999999937, -1.7782804186966665 
0.7299999999999359, -1.777851420093329 
0.7399999999999348, -1.7774201506475689 
0.7499999999999337, -1.7770977844515905 
0.7599999999999326, -1.7769643163946416 
0.7699999999999315, -1.7770050728520612 
0.7799999999999304, -1.7771276420498363 
0.7899999999999293, -1.7772278958311483 
0.7999999999999282, -1.7772280366890267 
0.8099999999999271, -1.7770774323142589 
0.819999999999926, -1.7767384084070508 
0.8299999999999249, -1.7761726059012166 
0.8399999999999238, -1.775336607847029 
0.8499999999999227, -1.7741955863721544 
0.8599999999999216, -1.7727688660099716 
0.8699999999999205, -1.7712111273073508 
0.8799999999999194, -1.769854757936677 
0.8899999999999183, -1.7690396522105356 
0.8999999999999172, -1.76879609579311 
0.9099999999999161, -1.7688418169892983 
0.919999999999915, -1.7688924709135967 
0.9299999999999139, -1.7688174397790473 
0.9399999999999128, -1.7685888875602807 
0.9499999999999117, -1.76821125512905 
0.9599999999999106, -1.767702205059095 
0.9699999999999095, -1.7671237030129858 
0.9799999999999084, -1.7666376996172768 
0.9899999999999073, -1.766486284384922 
0.9999999999999062, -1.7668007487123087 
1.0099999999999052, -1.7674439962536705 
1.019999999999904, -1.7681397012330247 
1.029999999999903, -1.7686808731057062 
1.039999999999902, -1.7689824731827646 
1.0499999999999008, -1.769034834269347 
1.0599999999998997, -1.7688559415057035 
1.0699999999998986, -1.7684678767097826 
1.0799999999998975, -1.7678922646177289 
1.0899999999998964, -1.7671588207984779 
1.0999999999998953, -1.7663233813415506 
1.1099999999998942, -1.765486304229389 
1.119999999999893, -1.7647838612833262 
1.129999999999892, -1.7643191499692996 
1.1399999999998909, -1.7640763639966732 
1.1499999999998898, -1.7639361741474175 
1.1599999999998887, -1.7637736978495628 
1.1699999999998876, -1.7635096927025653 
1.1799999999998865, -1.7630944815542233 
1.1899999999998854, -1.7624810173929728 
1.1999999999998843, -1.7616292063305632 
1.2099999999998832, -1.7605809045040783 
1.219999999999882, -1.759618901940902 
1.229999999999881, -1.759300391797859 
1.2399999999998799, -1.759993691839648 
1.2499999999998788, -1.7613785391261625 
1.2599999999998777, -1.762793456683049 
1.2699999999998766, -1.763829504250301 
1.2799999999998755, -1.76441042246396 
1.2899999999998744, -1.7646116624875028 
1.2999999999998733, -1.7645316701842044 
1.3099999999998722, -1.764249929307945 
1.319999999999871, -1.763828280568006 
1.32999999999987, -1.7633259367973761 
1.3399999999998689, -1.7628105507900202 
1.3499999999998678, -1.7623526348754779 
1.3599999999998666, -1.7620038467286843 
1.3699999999998655, -1.7617726594511385 
1.3799999999998644, -1.7616155302313348 
1.3899999999998633, -1.7614577260640876 
1.3999999999998622, -1.7612250199965789 
1.4099999999998611, -1.7608525556993242 
1.41999999999986, -1.7602694379942374 
1.429999999999859, -1.75938021932506 
1.4399999999998578, -1.7580714837423266 
1.4499999999998567, -1.75629621409901 
1.4599999999998556, -1.7542898201408375 
1.4699999999998545, -1.7527394148344402 
1.4799999999998534, -1.7523483199769583 
1.4899999999998523, -1.7530160781404553 
1.4999999999998512, -1.7540032105191663 
1.5099999999998501, -1.7547579901128565 
1.519999999999849, -1.7551406442275794 
1.529999999999848, -1.7552085375951976 
1.5399999999998468, -1.755049390851945 
1.5499999999998457, -1.7547335551479197 
1.5599999999998446, -1.7543227815583264 
1.5699999999998435, -1.7538929806191237 
1.5799999999998424, -1.7535381166549082 
1.5899999999998413, -1.753331268117152 
1.5999999999998402, -1.7532757858565535 
1.6099999999998391, -1.7533084827065981 
1.619999999999838, -1.7533435546815803 
1.629999999999837, -1.7533060775466183 
1.6399999999998358, -1.753140047004928 
1.6499999999998347, -1.7528000584160073 
1.6599999999998336, -1.7522386008284616 
1.6699999999998325, -1.7513994895798821 
1.6799999999998314, -1.7502284711076066 
1.6899999999998303, -1.748718137093147 
1.6999999999998292, -1.7469996459669872 
1.709999999999828, -1.7454194904584976 
1.719999999999827, -1.744401779604869 
1.729999999999826, -1.7440724269536538 
1.7399999999998248, -1.7441516609033272 
1.7499999999998237, -1.7442889075133217 
1.7599999999998226, -1.7443038450281485 
1.7699999999998215, -1.744155476843585 
1.7799999999998204, -1.7438523778392583 
1.7899999999998193, -1.7434138810933208 
1.7999999999998182, -1.7428825401620802 
1.809999999999817, -1.7423689572748589 
1.819999999999816, -1.7420701647710903 
1.8299999999998149, -1.7421607512952497 
1.8399999999998138, -1.7426179691103978 
1.8499999999998127, -1.7432318323384872 
1.8599999999998116, -1.7437826407834156 
1.8699999999998105, -1.7441460030924378 
1.8799999999998094, -1.7442816515253052 
1.8899999999998083, -1.7441908046874475 
1.8999999999998072, -1.7438872380918415 
1.909999999999806, -1.7433862484137155 
1.919999999999805, -1.7427071067046285 
1.9299999999998039, -1.7418864249466015 
1.9399999999998028, -1.7409986686187093 
1.9499999999998017, -1.7401678646137384 
1.9599999999998006, -1.73953369178355 
1.9699999999997995, -1.7391594991062842 
1.9799999999997984, -1.738976197892558 
1.9899999999997973, -1.7388476060454057 
1.9999999999997962, -1.7386638152148308 
2.0099999999998173, -1.7383613205644788 
2.0199999999998384, -1.737896013108621 
2.0299999999998595, -1.7372228335560007 
2.0399999999998806, -1.7363158044438998 
2.0499999999999017, -1.7352650269425705 
2.059999999999923, -1.7344277488646231 
2.069999999999944, -1.734357738888852 
2.079999999999965, -1.7352693438363662 
2.089999999999986, -1.7367185508170482 
2.100000000000007, -1.738081754652082 
2.1100000000000283, -1.7390352884940097 
2.1200000000000494, -1.7395465227558582 
2.1300000000000705, -1.7396993358234998 
2.1400000000000916, -1.7395884460993223 
2.1500000000001127, -1.7392887789752158 
2.160000000000134, -1.7388600040144475 
2.170000000000155, -1.738361312401824 
2.180000000000176, -1.737860317830389 
2.190000000000197, -1.7374247502129236 
2.2000000000002182, -1.7370999989770262 
2.2100000000002393, -1.7368876953962928 
2.2200000000002604, -1.7367414757315358 
2.2300000000002815, -1.7365886055093327 
2.2400000000003026, -1.7363581128674679 
2.2500000000003237, -1.735987264234102 
2.260000000000345, -1.7354067930141213 
2.270000000000366, -1.7345236985134889 
2.280000000000387, -1.7332260417855843 
2.290000000000408, -1.731454765376705 
2.3000000000004293, -1.7293933509496093 
2.3100000000004504, -1.7276486244162832 
2.3200000000004715, -1.7269407424300305 
2.3300000000004926, -1.7273290488307402 
2.3400000000005137, -1.7281759951491504 
2.3500000000005348, -1.7288966641955021 
2.360000000000556, -1.7292900729734444 
2.370000000000577, -1.7293805137688039 
2.380000000000598, -1.7292440410146657 
2.390000000000619, -1.7289465108822104 
2.4000000000006403, -1.7285450909001345 
2.4100000000006614, -1.7281110567830271 
2.4200000000006825, -1.7277418210381128 
2.4300000000007036, -1.7275286600286939 
2.4400000000007247, -1.7274951069089852 
2.450000000000746, -1.7275814411758692 
2.460000000000767, -1.7276916277676246 
2.470000000000788, -1.7277403961112072 
2.480000000000809, -1.727667928468574 
2.49000000000083, -1.7274329137465607 
2.5000000000008513, -1.7269998285859405 
2.5100000000008724, -1.7263305246800573 
2.5200000000008935, -1.7253869736909437 
2.5300000000009146, -1.7241537342581648 
2.5400000000009357, -1.7226901552971856 
2.550000000000957, -1.72119769544768 
2.560000000000978, -1.7200056117452143 
2.570000000000999, -1.7193594413171815 
2.58000000000102, -1.7191937779771576 
2.5900000000010412, -1.7192311888323224 
2.6000000000010624, -1.7192421241098956 
2.6100000000010835, -1.7191286851586505 
2.6200000000011046, -1.7188689199274545 
2.6300000000011257, -1.718462672961038 
2.6400000000011468, -1.7179217641533409 
2.650000000001168, -1.7173052904686739 
2.660000000001189, -1.7167815631580403 
2.67000000000121, -1.716618530343288 
2.680000000001231, -1.7169870247255374 
2.6900000000012523, -1.7177626595348912 
2.7000000000012734, -1.718635036379888 
2.7100000000012945, -1.7193519431075477 
2.7200000000013156, -1.7198045465229643 
2.7300000000013367, -1.7199817949790641 
2.740000000001358, -1.7199118913706468 
2.750000000001379, -1.7196303746712327 
2.7600000000014, -1.7191706487482832 
2.770000000001421, -1.7185681448072798 
2.780000000001442, -1.7178719248291077 
2.7900000000014633, -1.717156117747638 
2.8000000000014844, -1.7165176816174288 
2.8100000000015055, -1.71604317801274 
2.8200000000015266, -1.7157522393888995 
2.8300000000015477, -1.7155782826648658 
2.840000000001569, -1.71541845130775 
2.85000000000159, -1.7151879726294694 
2.860000000001611, -1.7148266812099489 
2.870000000001632, -1.7142770317318707 
2.8800000000016532, -1.713467912375392 
2.8900000000016743, -1.7123356304642314 
2.9000000000016954, -1.7109311848200217 
2.9100000000017165, -1.7096175148154735 
2.9200000000017377, -1.7090712991308332 
2.9300000000017588, -1.7096923788931133 
2.94000000000178, -1.7110748826162605 
2.950000000001801, -1.712476668361239 
2.960000000001822, -1.7134744331520253 
2.970000000001843, -1.7140107431640015 
2.9800000000018643, -1.7141786215170698 
2.9900000000018854, -1.714084436624897 
3.0000000000019065, -1.7138097852705112 
3.0100000000019276, -1.7134181334628136 
3.0200000000019487, -1.7129730725932917 
3.03000000000197, -1.7125475922048607 
3.040000000001991, -1.7122091330387004 
3.050000000002012, -1.7119897082350461 
3.060000000002033, -1.7118719410730143 
3.070000000002054, -1.7118011189274394 
3.0800000000020753, -1.7117087808379705 
3.0900000000020964, -1.7115314940494386 
3.1000000000021175, -1.7112138858075632 
3.1100000000021386, -1.7106981070857148 
3.1200000000021597, -1.709911640589007 
3.130000000002181, -1.7087678922101595 
3.140000000002202, -1.707201699240331 
3.150000000002223, -1.7052699992096507 
3.160000000002244, -1.703295287230187 
3.1700000000022652, -1.7018395206578094 
3.1800000000022863, -1.7012776567665178 
3.1900000000023074, -1.7014164821629307 
3.2000000000023285, -1.7017724409517156 
3.2100000000023496, -1.7020210422572006 
3.2200000000023707, -1.7020675659927877 
3.230000000002392, -1.7019243785773195 
3.240000000002413, -1.7016253693049308 
3.250000000002434, -1.7012060321501665 
3.260000000002455, -1.7007229488387288 
3.2700000000024763, -1.700286179544274 
3.2800000000024974, -1.7000513447991679 
3.2900000000025185, -1.700122975380872 
3.3000000000025396, -1.7004552077725665 
3.3100000000025607, -1.700889458435928 
3.3200000000025818, -1.7012699433116267 
3.330000000002603, -1.7015023560058098 
3.340000000002624, -1.7015465237930911 
3.350000000002645, -1.7013910488698225 
3.360000000002666, -1.7010349620108678 
3.3700000000026873, -1.7004806187500372 
3.3800000000027084, -1.6997371333830031 
3.3900000000027295, -1.6988344490567109 
3.4000000000027506, -1.6978461700954206 
3.4100000000027717, -1.6969054002347643 
3.420000000002793, -1.6961727424758242 
3.430000000002814, -1.695736006229723 
3.440000000002835, -1.6955362598143395 
3.450000000002856, -1.6954272862371298 
3.460000000002877, -1.6952837726128345 
3.4700000000028983, -1.6950354576400357 
3.4800000000029194, -1.6946419388788254 
3.4900000000029405, -1.6940662213932671 
3.5000000000029616, -1.6932781512891313 
3.5100000000029827, -1.6923146410247685 
3.520000000003004, -1.6914064208517066 
3.530000000003025, -1.691025831932139 
3.540000000003046, -1.6915592167510252 
3.550000000003067, -1.6928404436192188 
3.5600000000030882, -1.6942955831564217 
3.5700000000031094, -1.6954687593687212 
3.5800000000031305, -1.6962094216473786 
3.5900000000031516, -1.6965534883490114 
3.6000000000031727, -1.6965902650837275 
3.6100000000031938, -1.696402187019834 
3.620000000003215, -1.6960535684261981 
3.630000000003236, -1.6955999534896562 
3.640000000003257, -1.695101119462263 
3.650000000003278, -1.6946242816920463 
3.6600000000032993, -1.694230273772264 
3.6700000000033204, -1.693950825010867 
3.6800000000033415, -1.6937729007751376 
3.6900000000033626, -1.6936427204817381 
3.7000000000033837, -1.6934897276832186 
3.710000000003405, -1.6932485793306629 
3.720000000003426, -1.692860014737081 
3.730000000003447, -1.6922561168483283 
3.740000000003468, -1.6913464233604727 
3.750000000003489, -1.690025438974747 
3.7600000000035103, -1.6882385240892852 
3.7700000000035314, -1.6861440789563082 
3.7800000000035525, -1.684270650538221 
3.7900000000035736, -1.6832897992751612 
3.8000000000035947, -1.6833625967263401 
3.810000000003616, -1.683990401012154 
3.820000000003637, -1.6846114731819521 
3.830000000003658, -1.6849780899972853 
3.840000000003679, -1.6850733290358229 
3.8500000000037002, -1.6849521434918142 
3.8600000000037213, -1.6846699384499726 
3.8700000000037424, -1.6842753781902975 
3.8800000000037635, -1.683831141631488 
3.8900000000037847, -1.6834351489128636 
3.9000000000038058, -1.6832027563422898 
3.910000000003827, -1.6831953299736004 
3.920000000003848, -1.6833690447775933 
3.930000000003869, -1.6836117507481838 
3.94000000000389, -1.6838134024273024 
3.9500000000039113, -1.6838995683002218 
3.9600000000039324, -1.683828303313668 
3.9700000000039535, -1.6835754998297587 
3.9800000000039746, -1.6831232185096692 
3.9900000000039957, -1.6824559831930195 
4.000000000004016, -1.681567446508763 
4.010000000003993, -1.6804806550243971 
4.02000000000397, -1.6792817414935317 
4.030000000003946, -1.6781443640835878 
4.040000000003923, -1.6772827763165314 
4.0500000000039, -1.6768082391496573 
4.0600000000038765, -1.6766350962579204 
4.070000000003853, -1.676574694372865 
4.08000000000383, -1.6764785341928896 
4.090000000003807, -1.67627440694629 
4.100000000003783, -1.6759312880547648 
4.11000000000376, -1.6754274149898847 
4.120000000003737, -1.6747505619492382 
4.130000000003713, -1.6739464123395635 
4.14000000000369, -1.673214371720433 
4.150000000003667, -1.6729352350973343 
4.1600000000036434, -1.6734183736575434 
4.17000000000362, -1.6745459261412592 
4.180000000003597, -1.6758611180887268 
4.1900000000035735, -1.6769669740597544 
4.20000000000355, -1.6777021144715065 
4.210000000003527, -1.6780708590326205 
4.220000000003504, -1.6781385215801135 
4.23000000000348, -1.6779749651348344 
4.240000000003457, -1.6776383703938567 
4.250000000003434, -1.6771792643335597 
4.26000000000341, -1.6766514363105465 
4.270000000003387, -1.6761186516797941 
4.280000000003364, -1.6756479662899306 
4.2900000000033405, -1.675289309238782 
4.300000000003317, -1.675051608256656 
4.310000000003294, -1.6748940577944729 
4.320000000003271, -1.6747459216430873 
4.330000000003247, -1.674536448579266 
4.340000000003224, -1.6742050185020976 
4.350000000003201, -1.6736893266003332 
4.360000000003177, -1.672908230219337 
4.370000000003154, -1.6717582553844963 
4.380000000003131, -1.6701548924259169 
4.390000000003107, -1.6681656855211244 
4.400000000003084, -1.6662043151819983 
4.410000000003061, -1.66497366718934 
4.4200000000030375, -1.664869654552141 
4.430000000003014, -1.6655433532235975 
4.440000000002991, -1.666352452020065 
4.450000000002968, -1.6669217060881067 
4.460000000002944, -1.667178361736759 
4.470000000002921, -1.6671748129879336 
4.480000000002898, -1.666978602454981 
4.490000000002874, -1.6666445456838428 
4.500000000002851, -1.666226039725606 
4.510000000002828, -1.665798144464636 
4.520000000002804, -1.665463928531508 
4.530000000002781, -1.665313768111064 
4.540000000002758, -1.665361489243623 
4.5500000000027345, -1.665534646189395 
4.560000000002711, -1.6657278078969007 
4.570000000002688, -1.6658523096844866 
4.580000000002665, -1.6658503685672899 
4.590000000002641, -1.6656871912531788 
4.600000000002618, -1.6653387218120776 
4.610000000002595, -1.6647839572301497 
4.620000000002571, -1.6640056018033285 
4.630000000002548, -1.663002199186413 
4.640000000002525, -1.661815191577313 
4.6500000000025015, -1.660565362855595 
4.660000000002478, -1.6594599901754823 
4.670000000002455, -1.6587037387533936 
4.6800000000024315, -1.6583431654596583 
4.690000000002408, -1.6582349564786025 
4.700000000002385, -1.6581865038067967 
4.710000000002362, -1.6580729801458631 
4.720000000002338, -1.6578402110157338 
4.730000000002315, -1.6574639287120192 
4.740000000002292, -1.6569251128612126 
4.750000000002268, -1.6562202426328785 
4.760000000002245, -1.655420236073764 
4.770000000002222, -1.6547624165653088 
4.7800000000021985, -1.6546321678168066 
4.790000000002175, -1.6552663549847384 
4.800000000002152, -1.656464690877621 
4.810000000002129, -1.6577666120063026 
4.820000000002105, -1.6588207689228522 
4.830000000002082, -1.6595017532735397 
4.840000000002059, -1.6598275366928132 
4.850000000002035, -1.6598648058488152 
4.860000000002012, -1.659681191738033 
4.870000000001989, -1.6593328835910797 
4.880000000001965, -1.6588697595001456 
4.890000000001942, -1.6583459327000374 
4.900000000001919, -1.6578250243191353 
4.9100000000018955, -1.6573718049687844 
4.920000000001872, -1.6570314800671064 
4.930000000001849, -1.6568080062875825 
4.940000000001826, -1.6566585834094376 
