t, s[1].omega / s[0].omega 
0, -0.6499977097066978 
0.009999999999999995, -0.6497597101120425 
0.019999999999999934, -0.6495014289909968 
0.029999999999999874, -0.6492167695483874 
0.04000000000000012, -0.6488994429750157 
0.050000000000000405, -0.6485462798097453 
0.06000000000000069, -0.6481590345434507 
0.07000000000000098, -0.6477447130348131 
0.08000000000000126, -0.6473154532079339 
0.09000000000000155, -0.6468890433994638 
0.10000000000000184, -0.6464906764926448 
0.11000000000000212, -0.6461560243128137 
0.12000000000000241, -0.6459353299399957 
0.130000000000002, -0.6458978401515368 
0.1400000000000009, -0.6461353611862773 
0.1499999999999998, -0.6467628692508833 
0.1599999999999987, -0.647912846113717 
0.1699999999999976, -0.6497185120392615 
0.1799999999999965, -0.652280594624019 
0.1899999999999954, -0.6556162101909897 
0.1999999999999943, -0.6596022463414857 
0.2099999999999932, -0.6639485644422851 
0.2199999999999921, -0.6682457244896131 
0.229999999999991, -0.672091359664347 
0.2399999999999899, -0.6752238146839394 
0.2499999999999888, -0.6775732907232052 
0.2599999999999877, -0.6792164847946017 
0.2699999999999866, -0.6802943112258142 
0.2799999999999855, -0.6809488754802172 
0.2899999999999844, -0.6812942630598228 
0.2999999999999833, -0.6814103474976863 
0.3099999999999822, -0.6813461377278117 
0.3199999999999811, -0.6811246199416521 
0.32999999999998, -0.6807457300879949 
0.3399999999999789, -0.680186499827357 
0.3499999999999778, -0.6793986041152469 
0.35999999999997667, -0.6783048362569708 
0.36999999999997557, -0.6767986293632448 
0.37999999999997447, -0.6747549835937547 
0.38999999999997337, -0.6720640115139586 
0.39999999999997227, -0.6686905028080302 
0.40999999999997117, -0.6647363958148899 
0.41999999999997006, -0.660456063867009 
0.42999999999996896, -0.6561924383708252 
0.43999999999996786, -0.6522673546533434 
0.44999999999996676, -0.6488970365602376 
0.45999999999996566, -0.6461702242358766 
0.46999999999996456, -0.6440740921825221 
0.47999999999996346, -0.6425353215264018 
0.48999999999996235, -0.6414551264002875 
0.49999999999996125, -0.640732125151058 
0.5099999999999602, -0.6402746855972128 
0.519999999999959, -0.6400061476879499 
0.529999999999958, -0.6398657643476925 
0.5399999999999568, -0.6398073081196247 
0.5499999999999557, -0.639796641740939 
0.5599999999999546, -0.6398091383921309 
0.5699999999999535, -0.6398275407277219 
0.5799999999999524, -0.6398405544997835 
0.5899999999999513, -0.6398420923346058 
0.5999999999999502, -0.639830621553708 
0.6099999999999491, -0.639807769579994 
0.619999999999948, -0.6397756433114756 
0.6299999999999469, -0.6397333875886719 
0.6399999999999458, -0.6396746789010597 
0.6499999999999447, -0.6395879352657197 
0.6599999999999436, -0.6394595339174068 
0.6699999999999425, -0.6392783136893213 
0.6799999999999414, -0.6390388984338967 
0.6899999999999403, -0.6387425654950571 
0.6999999999999392, -0.6383962636510658 
0.7099999999999381, -0.6380113660877278 
0.719999999999937, -0.6376035302943699 
0.7299999999999359, -0.6371943703588266 
0.7399999999999348, -0.636815156833607 
0.7499999999999337, -0.6365125038714208 
0.7599999999999326, -0.636355691013925 
0.7699999999999315, -0.6364445083808896 
0.7799999999999304, -0.6369149001650236 
0.7899999999999293, -0.6379368871257571 
0.7999999999999282, -0.6396956028167073 
0.8099999999999271, -0.6423444517745489 
0.819999999999926, -0.6459269203741133 
0.8299999999999249, -0.6502906177837416 
0.8399999999999238, -0.6550569989963227 
0.8499999999999227, -0.6597120842938055 
0.8599999999999216, -0.6637947574364428 
0.8699999999999205, -0.6670523593259784 
0.8799999999999194, -0.6694606881120042 
0.8899999999999183, -0.6711384382400332 
0.8999999999999172, -0.6722490983239249 
0.9099999999999161, -0.6729419889245656 
0.919999999999915, -0.6733314710349831 
0.9299999999999139, -0.6734962261826676 
0.9399999999999128, -0.6734848987758657 
0.9499999999999117, -0.6733216643884883 
0.9599999999999106, -0.673009596480649 
0.9699999999999095, -0.6725315840848537 
0.9799999999999084, -0.6718495272126365 
0.9899999999999073, -0.6709037460008467 
0.9999999999999062, -0.6696165832484745 
1.0099999999999052, -0.6679063714198925 
1.019999999999904, -0.6657167725332611 
1.029999999999903, -0.6630565698800975 
1.039999999999902, -0.6600281098618903 
1.0499999999999008, -0.6568175537118511 
1.0599999999998997, -0.6536442324127871 
1.0699999999998986, -0.6506996334504958 
1.0799999999998975, -0.648110298306601 
1.0899999999998964, -0.6459336064496459 
1.0999999999998953, -0.6441736255098898 
1.1099999999998942, -0.6428013561544141 
1.119999999999893, -0.6417710216529243 
1.129999999999892, -0.6410307411317565 
1.1399999999998909, -0.6405288415429148 
1.1499999999998898, -0.640217433921147 
1.1599999999998887, -0.640054361989296 
1.1699999999998876, -0.6400041105523693 
1.1799999999998865, -0.640037988644905 
1.1899999999998854, -0.6401338266307187 
1.1999999999998843, -0.6402754063056957 
1.2099999999998832, -0.6404517496701685 
1.219999999999882, -0.6406561656850844 
1.229999999999881, -0.6408846757606954 
1.2399999999998799, -0.6411333886406256 
1.2499999999998788, -0.6413949288450415 
1.2599999999998777, -0.6416551343260619 
1.2699999999998766, -0.6418921450532712 
1.2799999999998755, -0.6420794696201744 
1.2899999999998744, -0.6421922819198395 
1.2999999999998733, -0.642213718592245 
1.3099999999998722, -0.6421378179584684 
1.319999999999871, -0.6419682654340394 
1.32999999999987, -0.6417147963369267 
1.3399999999998689, -0.641389814360315 
1.3499999999998678, -0.6410068527520745 
1.3599999999998666, -0.6405814179508148 
1.3699999999998655, -0.6401342981217858 
1.3799999999998644, -0.6396974560971781 
1.3899999999998633, -0.6393226472844596 
1.3999999999998622, -0.639092292226156 
1.4099999999998611, -0.6391301132021845 
1.41999999999986, -0.639604787265522 
1.429999999999859, -0.640713654958218 
1.4399999999998578, -0.6426301020561215 
1.4499999999998567, -0.6454108260863278 
1.4599999999998556, -0.6489014502556706 
1.4699999999998545, -0.6527267399773692 
1.4799999999998534, -0.6564210209006808 
1.4899999999998523, -0.6596205929597756 
1.4999999999998512, -0.6621667301306785 
1.5099999999998501, -0.6640736219584394 
1.519999999999849, -0.6654401939527975 
1.529999999999848, -0.6663821427890679 
1.5399999999998468, -0.6670005568204389 
1.5499999999998457, -0.6673733800815562 
1.5599999999998446, -0.6675560456290971 
1.5699999999998435, -0.6675843878453371 
1.5799999999998424, -0.6674772385983905 
1.5899999999998413, -0.6672379374450528 
1.5999999999998402, -0.6668547810337719 
1.6099999999998391, -0.666301095219794 
1.619999999999838, -0.6655365722307115 
1.629999999999837, -0.664512725786804 
1.6399999999998358, -0.6631856896013606 
1.6499999999998347, -0.6615367156997797 
1.6599999999998336, -0.6595932904664783 
1.6699999999998325, -0.6574368911009456 
1.6799999999998314, -0.6551876764462736 
1.6899999999998303, -0.6529727990081524 
1.6999999999998292, -0.650896983574505 
1.709999999999828, -0.649028840638928 
1.719999999999827, -0.6474027103468173 
1.729999999999826, -0.6460280750252994 
1.7399999999998248, -0.6448993777797474 
1.7499999999998237, -0.6440030623647143 
1.7599999999998226, -0.6433216385207482 
1.7699999999998215, -0.6428357604146104 
1.7799999999998204, -0.6425253587600499 
1.7899999999998193, -0.642370501835707 
1.7999999999998182, -0.6423522648130774 
1.809999999999817, -0.6424536084741739 
1.819999999999816, -0.6426601269829476 
1.8299999999998149, -0.6429604667410163 
1.8399999999998138, -0.6433461603181476 
1.8499999999998127, -0.6438105160474964 
1.8599999999998116, -0.644346151289527 
1.8699999999998105, -0.6449410485439255 
1.8799999999998094, -0.6455739694135318 
1.8899999999998083, -0.6462115140659228 
1.8999999999998072, -0.6468098707590284 
1.909999999999806, -0.6473226284540445 
1.919999999999805, -0.6477118930798293 
1.9299999999998039, -0.647956753874365 
1.9399999999998028, -0.6480546725614711 
1.9499999999998017, -0.6480164074784475 
1.9599999999998006, -0.6478585992739121 
1.9699999999997995, -0.6475977772821266 
1.9799999999997984, -0.647247278762439 
1.9899999999997973, -0.6468169229168395 
1.9999999999997962, -0.6463149101467833 
2.0099999999998173, -0.645751773919668 
2.0199999999998384, -0.6451466056671952 
2.0299999999998595, -0.6445355933627069 
2.0399999999998806, -0.6439813953214413 
2.0499999999999017, -0.6435781560983573 
2.059999999999923, -0.6434416090418759 
2.069999999999944, -0.6436725500776515 
2.079999999999965, -0.6442981143515731 
2.089999999999986, -0.6452319731599963 
2.100000000000007, -0.6463080166708141 
2.1100000000000283, -0.6473744024461475 
2.1200000000000494, -0.6483551729581135 
2.1300000000000705, -0.6492323118540105 
2.1400000000000916, -0.6500010863798866 
2.1500000000001127, -0.6506517263029762 
2.160000000000134, -0.6511743915165484 
2.170000000000155, -0.6515661941367713 
2.180000000000176, -0.6518319145261338 
2.190000000000197, -0.6519804411092192 
2.2000000000002182, -0.652020388232745 
2.2100000000002393, -0.6519565493438484 
2.2200000000002604, -0.651787445399463 
2.2300000000002815, -0.6515038460917125 
2.2400000000003026, -0.651088456802632 
2.2500000000003237, -0.6505176179185955 
2.260000000000345, -0.6497663675880635 
2.270000000000366, -0.6488176479250104 
2.280000000000387, -0.6476738202917457 
2.290000000000408, -0.6463648546778524 
2.3000000000004293, -0.6449466393702578 
2.3100000000004504, -0.6434882813479721 
2.3200000000004715, -0.6420552453847791 
2.3300000000004926, -0.6406974369389461 
2.3400000000005137, -0.6394462036680217 
2.3500000000005348, -0.6383180428550899 
2.360000000000556, -0.6373206014122942 
2.370000000000577, -0.6364578126981242 
2.380000000000598, -0.6357330559932325 
2.390000000000619, -0.6351505207253206 
2.4000000000006403, -0.6347153955968785 
2.4100000000006614, -0.6344334856227252 
2.4200000000006825, -0.6343107085304912 
2.4300000000007036, -0.634352754075658 
2.4400000000007247, -0.6345650085378123 
2.450000000000746, -0.6349526313371991 
2.460000000000767, -0.6355204136978071 
2.470000000000788, -0.6362717677873422 
2.480000000000809, -0.6372059766067231 
2.49000000000083, -0.6383129459500639 
2.5000000000008513, -0.639565653414046 
2.5100000000008724, -0.6409127445937229 
2.5200000000008935, -0.6422766149840817 
2.5300000000009146, -0.6435628257590822 
2.5400000000009357, -0.6446811324681445 
2.550000000000957, -0.6455686806172987 
2.560000000000978, -0.6462019773654585 
2.570000000000999, -0.646592252745334 
2.58000000000102, -0.6467704790357445 
2.5900000000010412, -0.6467720092618634 
2.6000000000010624, -0.6466264041211867 
2.6100000000010835, -0.6463526616844957 
2.6200000000011046, -0.6459577077331354 
2.6300000000011257, -0.6454360630999004 
2.6400000000011468, -0.6447694193083501 
2.650000000001168, -0.6439255416531792 
2.660000000001189, -0.6428563331838266 
2.67000000000121, -0.64149530809868 
2.680000000001231, -0.6397560143216491 
2.6900000000012523, -0.6375370569383516 
2.7000000000012734, -0.634747531434501 
2.7100000000012945, -0.631369832700732 
2.7200000000013156, -0.6275472717571917 
2.7300000000013367, -0.6236185412943913 
2.740000000001358, -0.620016737106827 
2.750000000001379, -0.6170826193202823 
2.7600000000014, -0.6149456199007262 
2.770000000001421, -0.6135418742051273 
2.780000000001442, -0.6127068942335376 
2.7900000000014633, -0.6122603542801044 
2.8000000000014844, -0.6120512012891682 
2.8100000000015055, -0.6119698881226108 
2.8200000000015266, -0.6119437365990892 
2.8300000000015477, -0.6119269752347085 
2.840000000001569, -0.6118910745027899 
2.85000000000159, -0.6118173012251089 
2.860000000001611, -0.6116917855652039 
2.870000000001632, -0.6115029520256599 
2.8800000000016532, -0.6112411771467114 
2.8900000000016743, -0.6109004498598625 
2.9000000000016954, -0.6104812432805663 
2.9100000000017165, -0.6099928507331321 
2.9200000000017377, -0.6094530090557241 
2.9300000000017588, -0.6088838617269767 
2.94000000000178, -0.6083058645387797 
2.950000000001801, -0.6077329002552354 
2.960000000001822, -0.6071709916596315 
2.970000000001843, -0.6066205265336557 
2.9800000000018643, -0.6060800722440509 
2.9900000000018854, -0.6055497871198163 
3.0000000000019065, -0.6050335680787977 
3.0100000000019276, -0.604540215325813 
3.0200000000019487, -0.6040843543766525 
3.03000000000197, -0.6036877095293247 
3.040000000001991, -0.6033809616386988 
3.050000000002012, -0.6032061031919742 
3.060000000002033, -0.6032189550692375 
3.070000000002054, -0.6034912306659969 
3.0800000000020753, -0.6041110624553772 
3.0900000000020964, -0.6051800495331131 
3.1000000000021175, -0.606803545871901 
3.1100000000021386, -0.6090695810705894 
3.1200000000021597, -0.6120126263197647 
3.130000000002181, -0.615565944935035 
3.140000000002202, -0.6195239822572095 
3.150000000002223, -0.623553995983068 
3.160000000002244, -0.627282237373696 
3.1700000000022652, -0.6304191734308858 
3.1800000000022863, -0.6328399991192776 
3.1900000000023074, -0.6345740720452581 
3.2000000000023285, -0.6357365785336632 
3.2100000000023496, -0.6364614789285891 
3.2200000000023707, -0.6368637891990473 
3.230000000002392, -0.6370275638634884 
3.240000000002413, -0.6370067362653569 
3.250000000002434, -0.636829441336676 
3.260000000002455, -0.6365014087642475 
3.2700000000024763, -0.6360070022668863 
3.2800000000024974, -0.6353079858377569 
3.2900000000025185, -0.6343413935183415 
3.3000000000025396, -0.6330200650002686 
3.3100000000025607, -0.6312427064351882 
3.3200000000025818, -0.6289220891976681 
3.330000000002603, -0.6260328999416767 
3.340000000002624, -0.6226596302380109 
3.350000000002645, -0.6190056471046017 
3.360000000002666, -0.6153414074004828 
3.3700000000026873, -0.6119201317280273 
3.3800000000027084, -0.6089149108432206 
3.3900000000027295, -0.6064036310592257 
3.4000000000027506, -0.6043889417439035 
3.4100000000027717, -0.6028284427640941 
3.420000000002793, -0.6016596536402133 
3.430000000002814, -0.6008158118225873 
3.440000000002835, -0.600234221369853 
3.450000000002856, -0.5998599660217341 
3.460000000002877, -0.5996471168034189 
3.4700000000028983, -0.5995586845544312 
3.4800000000029194, -0.5995659787235508 
3.4900000000029405, -0.5996477311266416 
3.5000000000029616, -0.5997891881590169 
3.5100000000029827, -0.5999812291231055 
3.520000000003004, -0.6002193447765392 
3.530000000003025, -0.6005020319083171 
3.540000000003046, -0.6008280365413092 
3.550000000003067, -0.601192273133034 
3.5600000000030882, -0.6015813570307287 
3.5700000000031094, -0.6019710323950183 
3.5800000000031305, -0.6023280524028106 
3.5900000000031516, -0.602617071530039 
3.6000000000031727, -0.6028095964859104 
3.6100000000031938, -0.6028901476269991 
3.620000000003215, -0.6028567582354816 
3.630000000003236, -0.6027168811771316 
3.640000000003257, -0.6024819460710287 
3.650000000003278, -0.6021631874222739 
3.6600000000032993, -0.6017696945797806 
3.6700000000033204, -0.60130855685645 
3.6800000000033415, -0.6007867702057264 
3.6900000000033626, -0.6002147662467014 
3.7000000000033837, -0.5996114540481486 
3.710000000003405, -0.5990099422737649 
3.720000000003426, -0.5984609626723685 
3.730000000003447, -0.5980273604260128 
3.740000000003468, -0.5977609395642223 
3.750000000003489, -0.5976620871098004 
3.7600000000035103, -0.5976514686206504 
3.7700000000035314, -0.597605092749254 
3.7800000000035525, -0.5974522627347147 
3.7900000000035736, -0.5972364642685257 
3.8000000000035947, -0.5970641333065003 
3.810000000003616, -0.5970101154856841 
3.820000000003637, -0.5970794801676144 
3.830000000003658, -0.5972303350687334 
3.840000000003679, -0.597409929591141 
3.8500000000037002, -0.59757573959642 
3.8600000000037213, -0.5977005194498828 
3.8700000000037424, -0.5977691906617075 
3.8800000000037635, -0.5977736454002722 
3.8900000000037847, -0.5977081919885752 
3.9000000000038058, -0.5975664073722817 
3.910000000003827, -0.5973395238691198 
3.920000000003848, -0.5970165336135453 
3.930000000003869, -0.596586375050491 
3.94000000000389, -0.5960423060518131 
3.9500000000039113, -0.5953874162923902 
3.9600000000039324, -0.5946385430386446 
3.9700000000039535, -0.5938253592220157 
3.9800000000039746, -0.5929837861107707 
3.9900000000039957, -0.5921468756732137 
4.000000000004016, -0.5913380775167362 
4.010000000003993, -0.5905696764530821 
4.02000000000397, -0.589845636853197 
4.030000000003946, -0.5891662079520602 
4.040000000003923, -0.5885320295554652 
4.0500000000039, -0.5879468648583567 
4.0600000000038765, -0.5874191939394208 
4.070000000003853, -0.5869632830147664 
4.08000000000383, -0.5866002128385028 
4.090000000003807, -0.5863590657415664 
4.100000000003783, -0.586278235904467 
4.11000000000376, -0.5864066550699465 
4.120000000003737, -0.5868045187071135 
4.130000000003713, -0.587542701468829 
4.14000000000369, -0.5886992990623281 
4.150000000003667, -0.5903505982463628 
4.1600000000036434, -0.5925528133203288 
4.17000000000362, -0.595312098204419 
4.180000000003597, -0.5985473214001492 
4.1900000000035735, -0.602064705225548 
4.20000000000355, -0.6055754971812114 
4.210000000003527, -0.6087720964112064 
4.220000000003504, -0.6114282012853594 
4.23000000000348, -0.6134564451356341 
4.240000000003457, -0.6148929489259224 
4.250000000003434, -0.6158395445942085 
4.26000000000341, -0.616409911595048 
4.270000000003387, -0.6166999136936452 
4.280000000003364, -0.6167782878068654 
4.2900000000033405, -0.6166872952729019 
4.300000000003317, -0.6164458609842238 
4.310000000003294, -0.6160516526083151 
4.320000000003271, -0.6154809688487863 
4.330000000003247, -0.6146867162797467 
4.340000000003224, -0.6135963308127537 
4.350000000003201, -0.6121142332827942 
4.360000000003177, -0.6101369663839005 
4.370000000003154, -0.6075892968848005 
4.380000000003131, -0.6044775758176685 
4.390000000003107, -0.6009314039399409 
4.400000000003084, -0.5971924181358912 
4.410000000003061, -0.5935424256843997 
4.4200000000030375, -0.5902164770895301 
4.430000000003014, -0.5873540489873349 
4.440000000002991, -0.5850002459358447 
4.450000000002968, -0.5831344523466597 
4.460000000002944, -0.5817017006835097 
4.470000000002921, -0.5806352614414783 
4.480000000002898, -0.5798694675274093 
4.490000000002874, -0.57934567769786 
4.500000000002851, -0.5790143708723038 
4.510000000002828, -0.5788353579015137 
4.520000000002804, -0.5787771912560625 
4.530000000002781, -0.5788163011943598 
4.540000000002758, -0.5789361039081482 
4.5500000000027345, -0.5791261617304816 
4.560000000002711, -0.5793812999713603 
4.570000000002688, -0.579700338635533 
4.580000000002665, -0.5800838549796218 
4.590000000002641, -0.5805304282144154 
4.600000000002618, -0.5810315106095943 
4.610000000002595, -0.5815665120381548 
4.620000000002571, -0.5821011226909594 
4.630000000002548, -0.5825916504690258 
4.640000000002525, -0.5829949964184461 
4.6500000000025015, -0.5832795346650964 
4.660000000002478, -0.5834309320261266 
4.670000000002455, -0.5834506247794984 
4.6800000000024315, -0.5833495123836855 
4.690000000002408, -0.5831410416591677 
4.700000000002385, -0.5828362569019491 
4.710000000002362, -0.5824412403733144 
4.720000000002338, -0.5819562703436915 
4.730000000002315, -0.5813758932644971 
4.740000000002292, -0.5806892882787398 
4.750000000002268, -0.5798802786709364 
4.760000000002245, -0.578925828480946 
4.770000000002222, -0.5777910239285297 
4.7800000000021985, -0.5764191540923328 
4.790000000002175, -0.5747225617314038 
4.800000000002152, -0.5725972830213464 
4.810000000002129, -0.5699932438964703 
4.820000000002105, -0.567021266157986 
4.830000000002082, -0.5639848309782697 
4.840000000002059, -0.5612547480902094 
4.850000000002035, -0.5590874610296354 
4.860000000002012, -0.5575475058341741 
4.870000000001989, -0.5565542202063768 
4.880000000001965, -0.5559678598873448 
4.890000000001942, -0.5556512901854842 
4.900000000001919, -0.5554961646407601 
4.9100000000018955, -0.5554263535100261 
4.920000000001872, -0.5553919066838882 
