t, s[1].omega / s[0].omega 
0, -0.7499976720816193 
0.009999999999999995, -0.7497422487893226 
0.019999999999999934, -0.7494409216792851 
0.029999999999999874, -0.7490915982628834 
0.04000000000000012, -0.7486939341008214 
0.050000000000000405, -0.7482519264984518 
0.06000000000000069, -0.7477753026379547 
0.07000000000000098, -0.7472799663252924 
0.08000000000000126, -0.7467883921364885 
0.09000000000000155, -0.7463305243184746 
0.10000000000000184, -0.7459449805831078 
0.11000000000000212, -0.745679737162182 
0.12000000000000241, -0.7455912645767124 
0.130000000000002, -0.7457413809645936 
0.1400000000000009, -0.7461917812150602 
0.1499999999999998, -0.7469968939274352 
0.1599999999999987, -0.7481958889952482 
0.1699999999999976, -0.7498041137731648 
0.1799999999999965, -0.751803559934572 
0.1899999999999954, -0.7541325003388254 
0.1999999999999943, -0.7566774871228718 
0.2099999999999932, -0.7592757524410589 
0.2199999999999921, -0.761737530960059 
0.229999999999991, -0.7638884643907679 
0.2399999999999899, -0.765614135612559 
0.2499999999999888, -0.7668808228008591 
0.2599999999999877, -0.7677226996394904 
0.2699999999999866, -0.7682097186600957 
0.2799999999999855, -0.7684172240989666 
0.2899999999999844, -0.7684079379246355 
0.2999999999999833, -0.7682255336361246 
0.3099999999999822, -0.7678948480194621 
0.3199999999999811, -0.7674248132823843 
0.32999999999998, -0.7668125841298392 
0.3399999999999789, -0.766049394204545 
0.3499999999999778, -0.7651301509644209 
0.35999999999997667, -0.7640693411583908 
0.36999999999997557, -0.7629240002048931 
0.37999999999997447, -0.7618176316260958 
0.38999999999997337, -0.7609464386557203 
0.39999999999997227, -0.7605411395470767 
0.40999999999997117, -0.7607779779643122 
0.41999999999997006, -0.7616867008855452 
0.42999999999996896, -0.7631300276802061 
0.43999999999996786, -0.7648685515145235 
0.44999999999996676, -0.766651524920782 
0.45999999999996566, -0.7682815795580236 
0.46999999999996456, -0.7696419844426579 
0.47999999999996346, -0.7706922172432876 
0.48999999999996235, -0.7714444626131438 
0.49999999999996125, -0.7719364547614103 
0.5099999999999602, -0.7722106974449555 
0.519999999999959, -0.7723022037284043 
0.529999999999958, -0.7722324033261556 
0.5399999999999568, -0.7720060035427457 
0.5499999999999557, -0.7716084159082487 
0.5599999999999546, -0.771002653987291 
0.5699999999999535, -0.7701262752363733 
0.5799999999999524, -0.7688914522286496 
0.5899999999999513, -0.7671945363230803 
0.5999999999999502, -0.76494285562972 
0.6099999999999491, -0.7620996644183761 
0.619999999999948, -0.7587298492676483 
0.6299999999999469, -0.7550134201997012 
0.6399999999999458, -0.7512071865017449 
0.6499999999999447, -0.7475740637414322 
0.6599999999999436, -0.744321514896014 
0.6699999999999425, -0.741574019930814 
0.6799999999999414, -0.7393760719442424 
0.6899999999999403, -0.737710099921581 
0.6999999999999392, -0.7365173058857593 
0.7099999999999381, -0.7357163178234983 
0.719999999999937, -0.7352183561072597 
0.7299999999999359, -0.7349385200984682 
0.7399999999999348, -0.7348028854286843 
0.7499999999999337, -0.7347515153341757 
0.7599999999999326, -0.7347382010810355 
0.7699999999999315, -0.7347282878630146 
0.7799999999999304, -0.7346960451446463 
0.7899999999999293, -0.7346227342336841 
0.7999999999999282, -0.7344959123196 
0.8099999999999271, -0.7343096623336554 
0.819999999999926, -0.7340646178090868 
0.8299999999999249, -0.733766515072378 
0.8399999999999238, -0.7334230665515616 
0.8499999999999227, -0.733040582526475 
0.8599999999999216, -0.7326223776755294 
0.8699999999999205, -0.7321698197200042 
0.8799999999999194, -0.7316850494920677 
0.8899999999999183, -0.7311736558159816 
0.8999999999999172, -0.7306463259609501 
0.9099999999999161, -0.7301196493152768 
0.919999999999915, -0.7296167378514979 
0.9299999999999139, -0.729168009695587 
0.9399999999999128, -0.728811873944442 
0.9499999999999117, -0.7285946378083694 
0.9599999999999106, -0.7285689439904383 
0.9699999999999095, -0.728790424004395 
0.9799999999999084, -0.7293128002238222 
0.9899999999999073, -0.7301819955626374 
0.9999999999999062, -0.7314295836077658 
1.0099999999999052, -0.7330652177831081 
1.019999999999904, -0.7350672505503153 
1.029999999999903, -0.737371871490914 
1.039999999999902, -0.739864790551797 
1.0499999999999008, -0.742384493504265 
1.0599999999998997, -0.7447465012547004 
1.0699999999998986, -0.7467867588753199 
1.0799999999998975, -0.7484039126711841 
1.0899999999998964, -0.7495753592169704 
1.0999999999998953, -0.7503409229082492 
1.1099999999998942, -0.7507705985311344 
1.119999999999893, -0.7509362941699009 
1.129999999999892, -0.7508960568142925 
1.1399999999998909, -0.7506889026365869 
1.1499999999998898, -0.7503353000849518 
1.1599999999998887, -0.7498397090621067 
1.1699999999998876, -0.7491938264194604 
1.1799999999998865, -0.7483809884487763 
1.1899999999998854, -0.7473834227449043 
1.1999999999998843, -0.7461944973686361 
1.2099999999998832, -0.7448366399895462 
1.219999999999882, -0.7433803865001101 
1.229999999999881, -0.7419517131458204 
1.2399999999998799, -0.7407124315871692 
1.2499999999998788, -0.7398155637357244 
1.2599999999998777, -0.7393630529479489 
1.2699999999998766, -0.7393853273505949 
1.2799999999998755, -0.7398324167814093 
1.2899999999998744, -0.7405779927279872 
1.2999999999998733, -0.741455578966771 
1.3099999999998722, -0.742313297347881 
1.319999999999871, -0.7430500172953769 
1.32999999999987, -0.743619067412495 
1.3399999999998689, -0.7440122324113292 
1.3499999999998678, -0.7442403382232003 
1.3599999999998666, -0.7443184463428921 
1.3699999999998655, -0.7442566299189661 
1.3799999999998644, -0.7440545152983093 
1.3899999999998633, -0.7436976658828636 
1.3999999999998622, -0.7431549011673161 
1.4099999999998611, -0.7423772335614626 
1.41999999999986, -0.7413011474200241 
1.429999999999859, -0.7398605704730248 
1.4399999999998578, -0.7380103359539738 
1.4499999999998567, -0.7357560005215342 
1.4599999999998556, -0.7331736835487168 
1.4699999999998545, -0.7304025497579067 
1.4799999999998534, -0.7276101155037853 
1.4899999999998523, -0.724950941622019 
1.4999999999998512, -0.7225400729535685 
1.5099999999998501, -0.720446757780906 
1.519999999999849, -0.7187009876116786 
1.529999999999848, -0.717303610747048 
1.5399999999998468, -0.7162350707329637 
1.5499999999998457, -0.7154618968987341 
1.5599999999998446, -0.7149418159573001 
1.5699999999998435, -0.7146283237781563 
1.5799999999998424, -0.7144748753839341 
1.5899999999998413, -0.7144383267564561 
1.5999999999998402, -0.7144812121769417 
1.6099999999998391, -0.7145727654415289 
1.619999999999838, -0.7146889823532673 
1.629999999999837, -0.7148121862926498 
1.6399999999998358, -0.7149303708016378 
1.6499999999998347, -0.7150361583541962 
1.6599999999998336, -0.7151249155910114 
1.6699999999998325, -0.7151919016961259 
1.6799999999998314, -0.7152293579807724 
1.6899999999998303, -0.7152253187202634 
1.6999999999998292, -0.7151654320815644 
1.709999999999828, -0.7150371427768348 
1.719999999999827, -0.7148338428208336 
1.729999999999826, -0.7145568186382725 
1.7399999999998248, -0.7142147717329015 
1.7499999999998237, -0.713822431719024 
1.7599999999998226, -0.7134000616525257 
1.7699999999998215, -0.7129748846600461 
1.7799999999998204, -0.712584557475317 
1.7899999999998193, -0.7122821432497934 
1.7999999999998182, -0.7121414489878917 
1.809999999999817, -0.7122609193089788 
1.819999999999816, -0.7127635660464862 
1.8299999999998149, -0.7137898660695484 
1.8399999999998138, -0.7154803666840323 
1.8499999999998127, -0.7179452294953967 
1.8599999999998116, -0.7212204624799223 
1.8699999999998105, -0.7252182854484862 
1.8799999999998094, -0.729694106077005 
1.8899999999998083, -0.7342660769506916 
1.8999999999998072, -0.7385089046030445 
1.909999999999806, -0.7420876067103659 
1.919999999999805, -0.7448486158793783 
1.9299999999998039, -0.7468155099161462 
1.9399999999998028, -0.7481166943930516 
1.9499999999998017, -0.7489078777105066 
1.9599999999998006, -0.7493251400971398 
1.9699999999997995, -0.7494683518580336 
1.9799999999997984, -0.7494010764699757 
1.9899999999997973, -0.749155479291539 
1.9999999999997962, -0.7487363643004118 
2.0099999999998173, -0.7481221245156581 
2.0199999999998384, -0.7472620638052349 
2.0299999999998595, -0.7460705006911795 
2.0399999999998806, -0.744419735305472 
2.0499999999999017, -0.742138071177524 
2.059999999999923, -0.7390270617792465 
2.069999999999944, -0.7349206545961925 
2.079999999999965, -0.7297999393648191 
2.089999999999986, -0.7239223221014996 
2.100000000000007, -0.7178461494727428 
2.1100000000000283, -0.7122584512618311 
2.1200000000000494, -0.707696976090775 
2.1300000000000705, -0.7043764144167934 
2.1400000000000916, -0.7022104315289497 
2.1500000000001127, -0.7009469361539141 
2.160000000000134, -0.7003000285376195 
2.170000000000155, -0.7000261146188996 
2.180000000000176, -0.6999481527847096 
2.190000000000197, -0.6999503663635271 
2.2000000000002182, -0.6999621778448257 
2.2100000000002393, -0.6999416462421892 
2.2200000000002604, -0.6998623302730366 
2.2300000000002815, -0.6997042544166995 
2.2400000000003026, -0.6994486185172091 
2.2500000000003237, -0.699076000055732 
2.260000000000345, -0.6985681417793385 
2.270000000000366, -0.6979131147028368 
2.280000000000387, -0.6971121005513086 
2.290000000000408, -0.6961839672036966 
2.3000000000004293, -0.6951637069935855 
2.3100000000004504, -0.6940943894600387 
2.3200000000004715, -0.693016994616136 
2.3300000000004926, -0.6919636142956616 
2.3400000000005137, -0.6909562923543368 
2.3500000000005348, -0.6900099687929797 
2.360000000000556, -0.6891366300554321 
2.370000000000577, -0.6883486093990138 
2.380000000000598, -0.6876603390741682 
2.390000000000619, -0.6870886821739821 
2.4000000000006403, -0.6866522182029791 
2.4100000000006614, -0.6863698720421405 
2.4200000000006825, -0.6862592926475027 
2.4300000000007036, -0.6863354056385909 
2.4400000000007247, -0.6866094754086143 
2.450000000000746, -0.6870887486134072 
2.460000000000767, -0.6877763443997275 
2.470000000000788, -0.6886706233777486 
2.480000000000809, -0.6897629886664536 
2.49000000000083, -0.6910332570442208 
2.5000000000008513, -0.692442879841583 
2.5100000000008724, -0.6939287454179806 
2.5200000000008935, -0.6954031501786236 
2.5300000000009146, -0.696765506250571 
2.5400000000009357, -0.6979249638274434 
2.550000000000957, -0.6988232671157675 
2.560000000000978, -0.699444431520029 
2.570000000000999, -0.6998072932095508 
2.58000000000102, -0.699948715187683 
2.5900000000010412, -0.6999078362964022 
2.6000000000010624, -0.699716508771133 
2.6100000000010835, -0.6993956815420929 
2.6200000000011046, -0.6989555444927614 
2.6300000000011257, -0.6983977833840382 
2.6400000000011468, -0.6977195534432673 
2.650000000001168, -0.6969198386717197 
2.660000000001189, -0.6960092274758296 
2.67000000000121, -0.6950229644051144 
2.680000000001231, -0.6940330957569708 
2.6900000000012523, -0.6931486319511804 
2.7000000000012734, -0.6924895478826882 
2.7100000000012945, -0.6921366669969926 
2.7200000000013156, -0.6920960522685888 
2.7300000000013367, -0.692320758736005 
2.740000000001358, -0.6927618367975128 
2.750000000001379, -0.6933778416807458 
2.7600000000014, -0.6941076135642988 
2.770000000001421, -0.6948653639845896 
2.780000000001442, -0.6955669202908712 
2.7900000000014633, -0.6961542225163395 
2.8000000000014844, -0.6966005891938627 
2.8100000000015055, -0.6969023129211263 
2.8200000000015266, -0.6970669139839517 
2.8300000000015477, -0.6971035765013409 
2.840000000001569, -0.6970167858716004 
2.85000000000159, -0.6968023354714539 
2.860000000001611, -0.6964448256709648 
2.870000000001632, -0.6959166148088368 
2.8800000000016532, -0.6951794466780183 
2.8900000000016743, -0.6941911192361243 
2.9000000000016954, -0.6929191427017064 
2.9100000000017165, -0.6913593890462676 
2.9200000000017377, -0.6895509739850009 
2.9300000000017588, -0.6875758578732427 
2.94000000000178, -0.685539974896455 
2.950000000001801, -0.6835464623030505 
2.960000000001822, -0.6816759740276175 
2.970000000001843, -0.679980721899251 
2.9800000000018643, -0.678488797914447 
2.9900000000018854, -0.6772119765458859 
3.0000000000019065, -0.6761523337020386 
3.0100000000019276, -0.6753061938577949 
3.0200000000019487, -0.674665852674575 
3.03000000000197, -0.6742201395162757 
3.040000000001991, -0.6739547660576144 
3.050000000002012, -0.673853012825872 
3.060000000002033, -0.6738968833766548 
3.070000000002054, -0.6740685383263543 
3.0800000000020753, -0.6743516625538836 
3.0900000000020964, -0.6747323839185497 
3.1000000000021175, -0.6751993531025691 
3.1100000000021386, -0.6757425556407382 
3.1200000000021597, -0.6763504898059658 
3.130000000002181, -0.6770058598306625 
3.140000000002202, -0.677681170156714 
3.150000000002223, -0.6783370759506628 
3.160000000002244, -0.6789264303397303 
3.1700000000022652, -0.6794041133660749 
3.1800000000022863, -0.6797381672010854 
3.1900000000023074, -0.679915946393675 
3.2000000000023285, -0.6799424932055641 
3.2100000000023496, -0.6798337068284537 
3.2200000000023707, -0.6796090319024648 
3.230000000002392, -0.6792868495255331 
3.240000000002413, -0.6788834249727168 
3.250000000002434, -0.6784151664669529 
3.260000000002455, -0.6779040817777706 
3.2700000000024763, -0.6773868750634222 
3.2800000000024974, -0.6769282742324384 
3.2900000000025185, -0.6766379585937811 
3.3000000000025396, -0.6766864892631493 
3.3100000000025607, -0.6773076856401293 
3.3200000000025818, -0.6787649241020544 
3.330000000002603, -0.6812589014914487 
3.340000000002624, -0.6847889698611567 
3.350000000002645, -0.6890548000742566 
3.360000000002666, -0.6935200945636277 
3.3700000000026873, -0.69763959038459 
3.3800000000027084, -0.7010713217584368 
3.3900000000027295, -0.7037217692994566 
3.4000000000027506, -0.7056604250571662 
3.4100000000027717, -0.7070188654836588 
3.420000000002793, -0.7079300533534458 
3.430000000002814, -0.7085041686905732 
3.440000000002835, -0.7088233427387874 
3.450000000002856, -0.708943434769642 
3.460000000002877, -0.7088972555710921 
3.4700000000028983, -0.7086969391496668 
3.4800000000029194, -0.7083346667145296 
3.4900000000029405, -0.7077818431174083 
3.5000000000029616, -0.7069879147938034 
3.5100000000029827, -0.7058818537349003 
3.520000000003004, -0.7043816966076596 
3.530000000003025, -0.7024179823312137 
3.540000000003046, -0.6999704112463069 
3.550000000003067, -0.6971019740218378 
3.5600000000030882, -0.6939642151431811 
3.5700000000031094, -0.6907614275299936 
3.5800000000031305, -0.6876936416348942 
3.5900000000031516, -0.6849123482098886 
3.6000000000031727, -0.6825056551248638 
3.6100000000031938, -0.6805062702753932 
3.620000000003215, -0.6789078663966659 
3.630000000003236, -0.6776801551287293 
3.640000000003257, -0.6767796777037631 
3.650000000003278, -0.6761569304364875 
3.6600000000032993, -0.6757612256002213 
3.6700000000033204, -0.6755442166951107 
3.6800000000033415, -0.6754624084825234 
3.6900000000033626, -0.6754786785985891 
3.7000000000033837, -0.6755628701589448 
3.710000000003405, -0.6756916819116673 
3.720000000003426, -0.6758481664318055 
3.730000000003447, -0.6760210085661665 
3.740000000003468, -0.6762034102655285 
3.750000000003489, -0.6763911050729428 
3.7600000000035103, -0.6765792185695806 
3.7700000000035314, -0.676758641326946 
3.7800000000035525, -0.6769137673530904 
3.7900000000035736, -0.6770235985606023 
3.8000000000035947, -0.677066484168446 
3.810000000003616, -0.6770261612028576 
3.820000000003637, -0.6768957293104447 
3.830000000003658, -0.6766779049518097 
3.840000000003679, -0.6763826409622321 
3.8500000000037002, -0.676024531108195 
3.8600000000037213, -0.6756219395572006 
3.8700000000037424, -0.675198734326216 
3.8800000000037635, -0.6747888303996443 
3.8900000000037847, -0.6744434889551199 
3.9000000000038058, -0.6742409955592109 
3.910000000003827, -0.6742974065564062 
3.920000000003848, -0.6747750349553995 
3.930000000003869, -0.6758819594111789 
3.94000000000389, -0.6778515286381115 
3.9500000000039113, -0.6808884196971524 
3.9600000000039324, -0.6850752917628918 
3.9700000000039535, -0.690263604000141 
3.9800000000039746, -0.6960207660896595 
3.9900000000039957, -0.7017200918624038 
4.000000000004016, -0.7067665910325862 
4.010000000003993, -0.7108089503730544 
4.02000000000397, -0.713790191873834 
4.030000000003946, -0.7158504149676885 
4.040000000003923, -0.7171980549641426 
4.0500000000039, -0.7180271682748806 
4.0600000000038765, -0.7184865174433431 
4.070000000003853, -0.7186775806539689 
4.08000000000383, -0.7186621729471494 
4.090000000003807, -0.7184701522493139 
4.100000000003783, -0.7181038701480461 
4.11000000000376, -0.7175386529286748 
4.120000000003737, -0.7167196837460305 
4.130000000003713, -0.7155569489021744 
4.14000000000369, -0.7139229087019119 
4.150000000003667, -0.7116629734301221 
4.1600000000036434, -0.7086335070170826 
4.17000000000362, -0.7047743843213774 
4.180000000003597, -0.7001906969455652 
4.1900000000035735, -0.6951804790355215 
4.20000000000355, -0.6901621517634331 
4.210000000003527, -0.6855379355303033 
4.220000000003504, -0.6815832806965494 
4.23000000000348, -0.6784141059746605 
4.240000000003457, -0.6760161802348272 
4.250000000003434, -0.6742960419398474 
4.26000000000341, -0.6731260307727036 
4.270000000003387, -0.6723747374321551 
4.280000000003364, -0.6719240467202997 
4.2900000000033405, -0.6716765223904424 
4.300000000003317, -0.6715565931592449 
4.310000000003294, -0.6715082035213743 
4.320000000003271, -0.6714909108708986 
4.330000000003247, -0.6714758582595077 
4.340000000003224, -0.6714425806817078 
4.350000000003201, -0.6713771571973545 
4.360000000003177, -0.6712716913192394 
4.370000000003154, -0.6711244222044317 
4.380000000003131, -0.6709391929772268 
4.390000000003107, -0.6707231711885123 
4.400000000003084, -0.6704830059926136 
4.410000000003061, -0.6702212304951888 
4.4200000000030375, -0.6699351051008512 
4.430000000003014, -0.6696186300316478 
4.440000000002991, -0.6692663628247818 
4.450000000002968, -0.6688768166977139 
4.460000000002944, -0.6684541561890951 
4.470000000002921, -0.6680085124838046 
4.480000000002898, -0.667556120118326 
4.490000000002874, -0.6671203209934538 
4.500000000002851, -0.6667338458163784 
4.510000000002828, -0.6664421804950519 
4.520000000002804, -0.6663073726811015 
4.530000000002781, -0.6664112397329243 
4.540000000002758, -0.6668565083751486 
4.5500000000027345, -0.6677638679937075 
4.560000000002711, -0.6692621534898263 
4.570000000002688, -0.6714679837599422 
4.580000000002665, -0.6744512520613262 
4.590000000002641, -0.6781871432153981 
4.600000000002618, -0.6825084834660724 
4.610000000002595, -0.6870922522483645 
4.620000000002571, -0.691518736912397 
4.630000000002548, -0.6953995044025999 
4.640000000002525, -0.6985012276656973 
4.6500000000025015, -0.7007833231895939 
4.660000000002478, -0.7023440717184811 
4.670000000002455, -0.7033366453867413 
4.6800000000024315, -0.703908057257964 
4.690000000002408, -0.7041724825064566 
4.700000000002385, -0.7042068120607871 
4.710000000002362, -0.7040547370433754 
4.720000000002338, -0.7037314164357366 
4.730000000002315, -0.7032254060131882 
4.740000000002292, -0.7024967718359879 
4.750000000002268, -0.7014713848585041 
4.760000000002245, -0.7000329081162812 
4.770000000002222, -0.6980178509243159 
4.7800000000021985, -0.6952268634591359 
4.790000000002175, -0.6914740151720971 
4.800000000002152, -0.6866883643320729 
4.810000000002129, -0.6810342482887235 
4.820000000002105, -0.6749507696502597 
4.830000000002082, -0.6690310844058903 
4.840000000002059, -0.6638038880499443 
4.850000000002035, -0.6595737743563221 
4.860000000002012, -0.6564003073391099 
4.870000000001989, -0.6541724738261567 
4.880000000001965, -0.6527011837857886 
4.890000000001942, -0.6517867876721761 
4.900000000001919, -0.6512547684091785 
4.9100000000018955, -0.6509681574407203 
4.920000000001872, -0.6508268357777887 
