t, s[1].omega / s[0].omega 
0, -0.6699977025892836 
0.009999999999999995, -0.6697562014348932 
0.019999999999999934, -0.6694893023502742 
0.029999999999999874, -0.6691920095463365 
0.04000000000000012, -0.6688595477540313 
0.050000000000000405, -0.6684903726946541 
0.06000000000000069, -0.6680877973880561 
0.07000000000000098, -0.6676603230794669 
0.08000000000000126, -0.6672216564426503 
0.09000000000000155, -0.6667913827878521 
0.10000000000000184, -0.666396752969162 
0.11000000000000212, -0.6660755063338448 
0.12000000000000241, -0.6658792395308353 
0.130000000000002, -0.6658764672548464 
0.1400000000000009, -0.6661541092646349 
0.1499999999999998, -0.6668156165603937 
0.1599999999999987, -0.6679732811556739 
0.1699999999999976, -0.6697315920069667 
0.1799999999999965, -0.6721586686930234 
0.1899999999999954, -0.6752462585884743 
0.1999999999999943, -0.6788689742347557 
0.2099999999999932, -0.6827691146825756 
0.2199999999999921, -0.6865984899007473 
0.229999999999991, -0.6900187203253356 
0.2399999999999899, -0.6928070955563184 
0.2499999999999888, -0.6948999187550565 
0.2599999999999877, -0.6963590046066226 
0.2699999999999866, -0.697304779594471 
0.2799999999999855, -0.6978617862158197 
0.2899999999999844, -0.6981314317127957 
0.2999999999999833, -0.6981848618709069 
0.3099999999999822, -0.6980648539456764 
0.3199999999999811, -0.6977894509672465 
0.32999999999998, -0.6973539954202406 
0.3399999999999789, -0.6967304071226883 
0.3499999999999778, -0.69586366305015 
0.35999999999997667, -0.6946666762724438 
0.36999999999997557, -0.693017467507739 
0.37999999999997447, -0.6907676381735818 
0.38999999999997337, -0.6877765811649275 
0.39999999999997227, -0.6839813236967498 
0.40999999999997117, -0.6794822872940377 
0.41999999999997006, -0.6745816588503323 
0.42999999999996896, -0.6697152241629195 
0.43999999999996786, -0.6653036829839628 
0.44999999999996676, -0.6616241811931767 
0.45999999999996566, -0.658771802219152 
0.46999999999996456, -0.6566980738152934 
0.47999999999996346, -0.6552757658694668 
0.48999999999996235, -0.6543535545367247 
0.49999999999996125, -0.6537894009826558 
0.5099999999999602, -0.653465610462187 
0.519999999999959, -0.6532921294183007 
0.529999999999958, -0.6532036882485747 
0.5399999999999568, -0.6531545283370079 
0.5499999999999557, -0.6531129012246699 
0.5599999999999546, -0.6530565004082832 
0.5699999999999535, -0.652969382747224 
0.5799999999999524, -0.652840557491924 
0.5899999999999513, -0.6526640210434111 
0.5999999999999502, -0.6524394449654349 
0.6099999999999491, -0.6521721987077718 
0.619999999999948, -0.6518715410253545 
0.6299999999999469, -0.6515470480513101 
0.6399999999999458, -0.6512049399710989 
0.6499999999999447, -0.6508464301744815 
0.6599999999999436, -0.6504689567525405 
0.6699999999999425, -0.6500692780094187 
0.6799999999999414, -0.6496465531968033 
0.6899999999999403, -0.6492041890416698 
0.6999999999999392, -0.6487505191704103 
0.7099999999999381, -0.6482991723646717 
0.719999999999937, -0.6478699636856916 
0.7299999999999359, -0.6474906935869524 
0.7399999999999348, -0.6471997754983351 
0.7499999999999337, -0.6470492560752392 
0.7599999999999326, -0.6471074777529601 
0.7699999999999315, -0.6474602527440645 
0.7799999999999304, -0.6482088631486262 
0.7899999999999293, -0.6494623865644196 
0.7999999999999282, -0.6513209295126869 
0.8099999999999271, -0.6538464018970156 
0.819999999999926, -0.657021348213495 
0.8299999999999249, -0.6607078308207892 
0.8399999999999238, -0.6646352213558763 
0.8499999999999227, -0.6684490172949753 
0.8599999999999216, -0.6718172220363872 
0.8699999999999205, -0.674534290894939 
0.8799999999999194, -0.6765552335942124 
0.8899999999999183, -0.6779540400084676 
0.8999999999999172, -0.6788551685155089 
0.9099999999999161, -0.6793818437211753 
0.919999999999915, -0.6796320574376635 
0.9299999999999139, -0.6796733770586048 
0.9399999999999128, -0.6795455327110761 
0.9499999999999117, -0.6792640725407376 
0.9599999999999106, -0.6788221740056686 
0.9699999999999095, -0.6781897153191169 
0.9799999999999084, -0.6773098236089392 
0.9899999999999073, -0.6760945741417129 
0.9999999999999062, -0.674424563604586 
1.0099999999999052, -0.6721620761432924 
1.019999999999904, -0.6691907736283362 
1.029999999999903, -0.6654849466661663 
1.039999999999902, -0.6611790740008583 
1.0499999999999008, -0.6565777237365777 
1.0599999999998997, -0.6520722785056209 
1.0699999999998986, -0.6480111692155595 
1.0799999999998975, -0.6446088513657672 
1.0899999999998964, -0.6419315086647368 
1.0999999999998953, -0.6399354586082974 
1.1099999999998942, -0.6385181171067517 
1.119999999999893, -0.6375581669034844 
1.129999999999892, -0.6369397518244828 
1.1399999999998909, -0.6365639050438349 
1.1499999999998898, -0.6363518817909469 
1.1599999999998887, -0.6362440650501099 
1.1699999999998876, -0.6361968594533998 
1.1799999999998865, -0.6361790694667346 
1.1899999999998854, -0.636168664495896 
1.1999999999998843, -0.6361504380591918 
1.2099999999998832, -0.6361147295379632 
1.219999999999882, -0.6360569665003082 
1.229999999999881, -0.6359773016868597 
1.2399999999998799, -0.6358793524349886 
1.2499999999998788, -0.635767484495621 
1.2599999999998777, -0.6356432954578024 
1.2699999999998766, -0.6355031073035063 
1.2799999999998755, -0.635338172187754 
1.2899999999998744, -0.635137695457112 
1.2999999999998733, -0.6348929353947109 
1.3099999999998722, -0.6346001726468948 
1.319999999999871, -0.6342615615985352 
1.32999999999987, -0.6338845140499818 
1.3399999999998689, -0.6334810170358225 
1.3499999999998678, -0.6330680387364159 
1.3599999999998666, -0.6326695918103369 
1.3699999999998655, -0.6323205868198946 
1.3799999999998644, -0.6320723269632176 
1.3899999999998633, -0.6319991094051459 
1.3999999999998622, -0.6322045833606229 
1.4099999999998611, -0.6328249446617449 
1.41999999999986, -0.6340235152319903 
1.429999999999859, -0.6359682776242097 
1.4399999999998578, -0.6387833670227581 
1.4499999999998567, -0.6424745656817366 
1.4599999999998556, -0.6468555726417519 
1.4699999999998545, -0.6515357372461131 
1.4799999999998534, -0.6560215833712125 
1.4899999999998523, -0.6598956796783016 
1.4999999999998512, -0.6629486457841399 
1.5099999999998501, -0.6651821042675493 
1.519999999999849, -0.6667220952208759 
1.529999999999848, -0.6677285647420736 
1.5399999999998468, -0.6683434755644501 
1.5499999999998457, -0.6686737144726036 
1.5599999999998446, -0.6687915832354346 
1.5699999999998435, -0.6687404774555153 
1.5799999999998424, -0.6685400723308605 
1.5899999999998413, -0.668189205162825 
1.5999999999998402, -0.6676663457231786 
1.6099999999998391, -0.6669285295012716 
1.619999999999838, -0.665910988961431 
1.629999999999837, -0.664531963059058 
1.6399999999998358, -0.6627092639628276 
1.6499999999998347, -0.6603929772090417 
1.6599999999998336, -0.6576067398162448 
1.6699999999998325, -0.6544725730541738 
1.6799999999998314, -0.6511930405207507 
1.6899999999998303, -0.6479938305218786 
1.6999999999998292, -0.6450621883089097 
1.709999999999828, -0.6425142287084651 
1.719999999999827, -0.6403956751587201 
1.729999999999826, -0.6387006185886664 
1.7399999999998248, -0.637392673409396 
1.7499999999998237, -0.636421154133515 
1.7599999999998226, -0.6357313314849521 
1.7699999999998215, -0.6352703089873818 
1.7799999999998204, -0.63499019564348 
1.7899999999998193, -0.6348496751872222 
1.7999999999998182, -0.6348145685591036 
1.809999999999817, -0.6348577334936123 
1.819999999999816, -0.6349585649789018 
1.8299999999998149, -0.6351023128223924 
1.8399999999998138, -0.6352793018733129 
1.8499999999998127, -0.6354838877418398 
1.8599999999998116, -0.6357127181971237 
1.8699999999998105, -0.6359619041156919 
1.8799999999998094, -0.6362233590502242 
1.8899999999998083, -0.6364817219761311 
1.8999999999998072, -0.6367140273357739 
1.909999999999806, -0.6368934362949386 
1.919999999999805, -0.636995820470015 
1.9299999999998039, -0.6370057365538496 
1.9399999999998028, -0.6369186904332158 
1.9499999999998017, -0.6367393409391744 
1.9599999999998006, -0.6364777485703736 
1.9699999999997995, -0.6361461421592925 
1.9799999999997984, -0.6357576240400569 
1.9899999999997973, -0.6353272190336324 
1.9999999999997962, -0.6348753154602624 
2.0099999999998173, -0.6344336245602054 
2.0199999999998384, -0.6340537762953216 
2.0299999999998595, -0.6338179508364389 
2.0399999999998806, -0.6338487128486131 
2.0499999999999017, -0.6343106856015297 
2.059999999999923, -0.6353905598199875 
2.069999999999944, -0.6372401031459953 
2.079999999999965, -0.6398836966765095 
2.089999999999986, -0.6431375232487663 
2.100000000000007, -0.6466258052812213 
2.1100000000000283, -0.649925871476759 
2.1200000000000494, -0.6527404031353059 
2.1300000000000705, -0.6549626794518213 
2.1400000000000916, -0.6566260216572979 
2.1500000000001127, -0.6578230237108741 
2.160000000000134, -0.6586527417193873 
2.170000000000155, -0.6591993804605637 
2.180000000000176, -0.6595275447437842 
2.190000000000197, -0.6596832562734946 
2.2000000000002182, -0.6596961112722591 
2.2100000000002393, -0.6595810276133143 
2.2200000000002604, -0.659339171868587 
2.2300000000002815, -0.6589582062993965 
2.2400000000003026, -0.6584126012780878 
2.2500000000003237, -0.6576656604252833 
2.260000000000345, -0.6566758487416237 
2.270000000000366, -0.655409762426189 
2.280000000000387, -0.6538606002596806 
2.290000000000408, -0.6520642685904015 
2.3000000000004293, -0.6501012348618666 
2.3100000000004504, -0.6480789782305737 
2.3200000000004715, -0.6461041442973302 
2.3300000000004926, -0.6442602757320699 
2.3400000000005137, -0.6425998182247862 
2.3500000000005348, -0.6411480175961051 
2.360000000000556, -0.6399116087831538 
2.370000000000577, -0.6388868694055774 
2.380000000000598, -0.6380649761264228 
2.390000000000619, -0.6374348221533823 
2.4000000000006403, -0.636984234314729 
2.4100000000006614, -0.6367004918424961 
2.4200000000006825, -0.6365707328316148 
2.4300000000007036, -0.6365825022442031 
2.4400000000007247, -0.636724439744391 
2.450000000000746, -0.6369869385905502 
2.460000000000767, -0.6373624950204028 
2.470000000000788, -0.6378453593976433 
2.480000000000809, -0.6384299912006849 
2.49000000000083, -0.6391078545925095 
2.5000000000008513, -0.6398626058613329 
2.5100000000008724, -0.6406650180058665 
2.5200000000008935, -0.6414706900277388 
2.5300000000009146, -0.6422240668082208 
2.5400000000009357, -0.642869535240792 
2.550000000000957, -0.6433650482204343 
2.560000000000978, -0.6436907522068197 
2.570000000000999, -0.6438483878468274 
2.58000000000102, -0.643853673466332 
2.5900000000010412, -0.643727113887439 
2.6000000000010624, -0.6434871983314262 
2.6100000000010835, -0.6431469984031477 
2.6200000000011046, -0.6427134633759554 
2.6300000000011257, -0.6421885003448435 
2.6400000000011468, -0.6415714007068285 
2.650000000001168, -0.6408626215999945 
2.660000000001189, -0.6400688685431305 
2.67000000000121, -0.639208346460109 
2.680000000001231, -0.6383126208211825 
2.6900000000012523, -0.6374191575941763 
2.7000000000012734, -0.6365520846701782 
2.7100000000012945, -0.6357051622520992 
2.7200000000013156, -0.6348578079414129 
2.7300000000013367, -0.63402847215281 
2.740000000001358, -0.6333036144453655 
2.750000000001379, -0.6327889849322267 
2.7600000000014, -0.6325332815040365 
2.770000000001421, -0.6325049346686331 
2.780000000001442, -0.6326252431138499 
2.7900000000014633, -0.6328112804880812 
2.8000000000014844, -0.6329996171446243 
2.8100000000015055, -0.6331505781961057 
2.8200000000015266, -0.633242787026427 
2.8300000000015477, -0.6332655476380418 
2.840000000001569, -0.6332123961473036 
2.85000000000159, -0.6330765988825318 
2.860000000001611, -0.632848507489561 
2.870000000001632, -0.6325147562800467 
2.8800000000016532, -0.632059681819195 
2.8900000000016743, -0.6314694716508906 
2.9000000000016954, -0.6307387346785667 
2.9100000000017165, -0.6298772024077702 
2.9200000000017377, -0.628912460691611 
2.9300000000017588, -0.6278856338340654 
2.94000000000178, -0.6268414085349778 
2.950000000001801, -0.6258178633388032 
2.960000000001822, -0.6248411240969873 
2.970000000001843, -0.6239258731493487 
2.9800000000018643, -0.623079385856311 
2.9900000000018854, -0.6223061715783269 
3.0000000000019065, -0.6216115142272225 
3.0100000000019276, -0.6210035646475209 
3.0200000000019487, -0.6204943281220449 
3.03000000000197, -0.6200999826285518 
3.040000000001991, -0.6198408144943615 
3.050000000002012, -0.6197409158034748 
3.060000000002033, -0.6198277091321697 
3.070000000002054, -0.6201312878308288 
3.0800000000020753, -0.6206833858574775 
3.0900000000020964, -0.621515443907675 
3.1000000000021175, -0.6226547295445378 
3.1100000000021386, -0.6241170283232479 
3.1200000000021597, -0.6258947251711433 
3.130000000002181, -0.6279413606344331 
3.140000000002202, -0.6301588707983207 
3.150000000002223, -0.6323994151532244 
3.160000000002244, -0.634492028266194 
3.1700000000022652, -0.6362884937428883 
3.1800000000022863, -0.637703363512182 
3.1900000000023074, -0.6387240711377943 
3.2000000000023285, -0.6393910416242409 
3.2100000000023496, -0.639767117917763 
3.2200000000023707, -0.6399136204019402 
3.230000000002392, -0.6398779890416629 
3.240000000002413, -0.6396897670222269 
3.250000000002434, -0.6393601625891525 
3.260000000002455, -0.6388818490395188 
3.2700000000024763, -0.6382272245839293 
3.2800000000024974, -0.6373443904974412 
3.2900000000025185, -0.6361511407962493 
3.3000000000025396, -0.6345294745460183 
3.3100000000025607, -0.6323281243627321 
3.3200000000025818, -0.6293882635229794 
3.330000000002603, -0.6256096184395183 
3.340000000002624, -0.6210498351672503 
3.350000000002645, -0.6159934434927843 
3.360000000002666, -0.610902880193697 
3.3700000000026873, -0.6062521355963537 
3.3800000000027084, -0.60236217585464 
3.3900000000027295, -0.5993440768370232 
3.4000000000027506, -0.5971439879545505 
3.4100000000027717, -0.5956224960122835 
3.420000000002793, -0.5946187745400203 
3.430000000002814, -0.5939864341187127 
3.440000000002835, -0.5936072671199374 
3.450000000002856, -0.5933924875615514 
3.460000000002877, -0.5932784848439161 
3.4700000000028983, -0.593221044061458 
3.4800000000029194, -0.5931899307587617 
3.4900000000029405, -0.5931646302325432 
3.5000000000029616, -0.5931314997876032 
3.5100000000029827, -0.5930823021149778 
3.520000000003004, -0.5930137856974502 
3.530000000003025, -0.5929275610481871 
3.540000000003046, -0.5928291897240262 
3.550000000003067, -0.5927256488681447 
3.5600000000030882, -0.5926214458429072 
3.5700000000031094, -0.5925150645614461 
3.5800000000031305, -0.5923978871584178 
3.5900000000031516, -0.5922565355061327 
3.6000000000031727, -0.5920774460582431 
3.6100000000031938, -0.5918511555141317 
3.620000000003215, -0.5915743565198142 
3.630000000003236, -0.5912496085057557 
3.640000000003257, -0.5908840051182689 
3.650000000003278, -0.5904883005702499 
3.6600000000032993, -0.5900774555317261 
3.6700000000033204, -0.5896730341593667 
3.6800000000033415, -0.5893076468250035 
3.6900000000033626, -0.5890315098458209 
3.7000000000033837, -0.5889207818974411 
3.710000000003405, -0.5890860707671038 
3.720000000003426, -0.5896766528391508 
3.730000000003447, -0.5908710897478039 
3.740000000003468, -0.5928399868929078 
3.750000000003489, -0.5956701369269736 
3.7600000000035103, -0.5992669539973956 
3.7700000000035314, -0.6033040423759697 
3.7800000000035525, -0.6073042525868971 
3.7900000000035736, -0.610835440457431 
3.8000000000035947, -0.613670071268435 
3.810000000003616, -0.6157945160868766 
3.820000000003637, -0.6173154672129569 
3.830000000003658, -0.6183685062277536 
3.840000000003679, -0.6190721650797631 
3.8500000000037002, -0.6195161377366715 
3.8600000000037213, -0.6197635086735583 
3.8700000000037424, -0.6198559081589075 
3.8800000000037635, -0.6198178237181564 
3.8900000000037847, -0.6196593713202644 
3.9000000000038058, -0.619377802904135 
3.910000000003827, -0.6189584638989499 
3.920000000003848, -0.6183764540052846 
3.930000000003869, -0.6176009149034892 
3.94000000000389, -0.6166039789771924 
3.9500000000039113, -0.6153745104050876 
3.9600000000039324, -0.6139320920719943 
3.9700000000039535, -0.6123323329587171 
3.9800000000039746, -0.6106570107994103 
3.9900000000039957, -0.6089929194579538 
4.000000000004016, -0.6074116372385637 
4.010000000003993, -0.6059598743547101 
4.02000000000397, -0.6046609820487523 
4.030000000003946, -0.6035222793984268 
4.040000000003923, -0.6025428584470649 
4.0500000000039, -0.601719229378555 
4.0600000000038765, -0.6010484547331802 
4.070000000003853, -0.6005294388091142 
4.08000000000383, -0.6001631820178264 
4.090000000003807, -0.5999526173741848 
4.100000000003783, -0.5999024088138374 
4.11000000000376, -0.6000188858269108 
4.120000000003737, -0.6003100967228422 
4.130000000003713, -0.6007857421929088 
4.14000000000369, -0.6014564691754913 
4.150000000003667, -0.6023316770715725 
4.1600000000036434, -0.6034147738436881 
4.17000000000362, -0.6046951734966738 
4.180000000003597, -0.6061380017126946 
4.1900000000035735, -0.6076758478460764 
4.20000000000355, -0.6092102171466898 
4.210000000003527, -0.6106287001903399 
4.220000000003504, -0.6118338485486523 
4.23000000000348, -0.6127682674128493 
4.240000000003457, -0.6134213572934417 
4.250000000003434, -0.613817329807064 
4.26000000000341, -0.6139958510103918 
4.270000000003387, -0.6139960450552366 
4.280000000003364, -0.6138474404947895 
4.2900000000033405, -0.61356622734372 
4.300000000003317, -0.613153871828425 
4.310000000003294, -0.6125957805114521 
4.320000000003271, -0.6118586068202171 
4.330000000003247, -0.610885485299477 
4.340000000003224, -0.6095894079394096 
4.350000000003201, -0.6078473667410023 
4.360000000003177, -0.6055036929125703 
4.370000000003154, -0.6024001648842117 
4.380000000003131, -0.5984520875478582 
4.390000000003107, -0.593757209494468 
4.400000000003084, -0.5886564750263963 
4.410000000003061, -0.5836523204726627 
4.4200000000030375, -0.5792126790132995 
4.430000000003014, -0.5756108361375516 
4.440000000002991, -0.5728983488595143 
4.450000000002968, -0.5709756354760187 
4.460000000002944, -0.5696796918384104 
4.470000000002921, -0.5688444324791508 
4.480000000002898, -0.5683291122231762 
4.490000000002874, -0.5680257509097868 
4.500000000002851, -0.5678563980993099 
4.510000000002828, -0.5677669308161409 
4.520000000002804, -0.5677206524319087 
4.530000000002781, -0.5676930044637841 
4.540000000002758, -0.5676677853352246 
4.5500000000027345, -0.5676348831007852 
4.560000000002711, -0.5675892990760176 
4.570000000002688, -0.567530934504495 
4.580000000002665, -0.5674642213260895 
4.590000000002641, -0.5673965212159628 
4.600000000002618, -0.5673347810575363 
4.610000000002595, -0.5672812634900728 
4.620000000002571, -0.5672304253415497 
4.630000000002548, -0.5671689977433709 
4.640000000002525, -0.5670796542143302 
4.6500000000025015, -0.5669464049052597 
4.660000000002478, -0.566758861398353 
4.670000000002455, -0.5665136346473618 
4.6800000000024315, -0.566213224147887 
4.690000000002408, -0.5658640267756242 
4.700000000002385, -0.565475003967736 
4.710000000002362, -0.5650578435218259 
4.720000000002338, -0.5646289246519822 
4.730000000002315, -0.5642132266496158 
4.740000000002292, -0.5638502504017742 
4.750000000002268, -0.5636015710291706 
4.760000000002245, -0.563558118012667 
4.770000000002222, -0.5638418317943958 
4.7800000000021985, -0.5645909348684878 
4.790000000002175, -0.5659148680074824 
4.800000000002152, -0.5678172156065582 
4.810000000002129, -0.5701268817747094 
4.820000000002105, -0.5725205762929422 
4.830000000002082, -0.5746695034333518 
4.840000000002059, -0.5763967908825804 
4.850000000002035, -0.5777023909681387 
4.860000000002012, -0.578673788927927 
4.870000000001989, -0.579400130736665 
4.880000000001965, -0.5799421249500787 
4.890000000001942, -0.5803364823375496 
4.900000000001919, -0.580606577974749 
4.9100000000018955, -0.5807688356038296 
4.920000000001872, -0.5808348927130376 
