t, s[1].omega / s[0].omega 
0, -0.6399977132720415 
0.009999999999999995, -0.6397622820348146 
0.019999999999999934, -0.6395103592169051 
0.029999999999999874, -0.6392343260615824 
0.04000000000000012, -0.6389260061074541 
0.050000000000000405, -0.6385805525336827 
0.06000000000000069, -0.6381985789113749 
0.07000000000000098, -0.637786520803148 
0.08000000000000126, -0.6373564051684896 
0.09000000000000155, -0.6369263054975269 
0.10000000000000184, -0.6365222306164401 
0.11000000000000212, -0.6361816391671041 
0.12000000000000241, -0.6359583742565067 
0.130000000000002, -0.6359284247267003 
0.1400000000000009, -0.6361952987766921 
0.1499999999999998, -0.6368927005614456 
0.1599999999999987, -0.6381804108982345 
0.1699999999999976, -0.6402268506286845 
0.1799999999999965, -0.6431701246585477 
0.1899999999999954, -0.6470531398058371 
0.1999999999999943, -0.6517461130053672 
0.2099999999999932, -0.6569030070743567 
0.2199999999999921, -0.6620166256101908 
0.229999999999991, -0.6665837285398445 
0.2399999999999899, -0.6702825397699239 
0.2499999999999888, -0.6730372481849854 
0.2599999999999877, -0.6749535196035408 
0.2699999999999866, -0.6762102854007821 
0.2799999999999855, -0.6769817864981679 
0.2899999999999844, -0.6774046328236064 
0.2999999999999833, -0.6775730662448273 
0.3099999999999822, -0.6775447663000698 
0.3199999999999811, -0.6773476158978965 
0.32999999999998, -0.6769838263593176 
0.3399999999999789, -0.6764306048528331 
0.3499999999999778, -0.6756377965863666 
0.35999999999997667, -0.6745243147733168 
0.36999999999997557, -0.6729780144211744 
0.37999999999997447, -0.6708682304141007 
0.38999999999997337, -0.668082779704106 
0.39999999999997227, -0.6645914435950392 
0.40999999999997117, -0.6605086007208565 
0.41999999999997006, -0.6561020569318132 
0.42999999999996896, -0.6517208199003713 
0.43999999999996786, -0.6476836362122171 
0.44999999999996676, -0.6442001838537157 
0.45999999999996566, -0.6413557631008117 
0.46999999999996456, -0.6391396257653095 
0.47999999999996346, -0.637484589981116 
0.48999999999996235, -0.6362992423782212 
0.49999999999996125, -0.6354884688045693 
0.5099999999999602, -0.6349645947369754 
0.519999999999959, -0.6346524510463093 
0.529999999999958, -0.634490834540942 
0.5399999999999568, -0.6344319141668839 
0.5499999999999557, -0.6344395798575113 
0.5599999999999546, -0.6344874488182829 
0.5699999999999535, -0.6345570543920352 
0.5799999999999524, -0.6346365065249302 
0.5899999999999513, -0.6347195476877603 
0.5999999999999502, -0.6348044728363489 
0.6099999999999491, -0.6348921168274206 
0.619999999999948, -0.6349824945460243 
0.6299999999999469, -0.6350708523262485 
0.6399999999999458, -0.6351451382384993 
0.6499999999999447, -0.6351869210457407 
0.6599999999999436, -0.6351759615530628 
0.6699999999999425, -0.6350961273140368 
0.6799999999999414, -0.6349394236889238 
0.6899999999999403, -0.6347065432554947 
0.6999999999999392, -0.6344048684726512 
0.7099999999999381, -0.6340461045527858 
0.719999999999937, -0.6336453248071607 
0.7299999999999359, -0.6332222889704753 
0.7399999999999348, -0.632805334053989 
0.7499999999999337, -0.6324379987279874 
0.7599999999999326, -0.6321884097980915 
0.7699999999999315, -0.6321607570415413 
0.7799999999999304, -0.6325061955045086 
0.7899999999999293, -0.6334264351863623 
0.7999999999999282, -0.635157001823941 
0.8099999999999271, -0.6379120839354719 
0.819999999999926, -0.6417809020986243 
0.8299999999999249, -0.6466051358765751 
0.8399999999999238, -0.6519305669364608 
0.8499999999999227, -0.657130458618587 
0.8599999999999216, -0.6616591468753276 
0.8699999999999205, -0.665242478278792 
0.8799999999999194, -0.667878964886546 
0.8899999999999183, -0.6697195037315425 
0.8999999999999172, -0.6709515113525233 
0.9099999999999161, -0.6717385840015941 
0.919999999999915, -0.6722034301792625 
0.9299999999999139, -0.6724301699681636 
0.9399999999999128, -0.6724715071860975 
0.9499999999999117, -0.6723549795648789 
0.9599999999999106, -0.6720867103665575 
0.9699999999999095, -0.6716527010712063 
0.9799999999999084, -0.6710185488220964 
0.9899999999999073, -0.6701296225669371 
0.9999999999999062, -0.6689156085918229 
1.0099999999999052, -0.6673050033905866 
1.019999999999904, -0.6652530891216851 
1.029999999999903, -0.6627768604705748 
1.039999999999902, -0.6599761145647344 
1.0499999999999008, -0.6570193177060965 
1.0599999999998997, -0.6540969262743282 
1.0699999999998986, -0.6513709418667437 
1.0799999999998975, -0.6489475353969978 
1.0899999999998964, -0.6468766567340878 
1.0999999999998953, -0.6451663322091756 
1.1099999999998942, -0.6437989820449538 
1.119999999999893, -0.6427437187838432 
1.129999999999892, -0.6419639138606362 
1.1399999999998909, -0.6414214458707631 
1.1499999999998898, -0.6410791595280597 
1.1599999999998887, -0.6409024929698183 
1.1699999999998876, -0.6408606728344441 
1.1799999999998865, -0.6409275577774588 
1.1899999999998854, -0.6410821150987148 
1.1999999999998843, -0.6413085205028596 
1.2099999999998832, -0.6415958358908574 
1.219999999999882, -0.641937061197318 
1.229999999999881, -0.6423271473724845 
1.2399999999998799, -0.6427595996248592 
1.2499999999998788, -0.643221989378332 
1.2599999999998777, -0.6436920455372048 
1.2699999999998766, -0.644137102645629 
1.2799999999998755, -0.6445189399734531 
1.2899999999998744, -0.644802825335345 
1.2999999999998733, -0.6449661114862464 
1.3099999999998722, -0.6450016889164801 
1.319999999999871, -0.6449153969175327 
1.32999999999987, -0.6447202967784963 
1.3399999999998689, -0.6444314184622109 
1.3499999999998678, -0.6440629922256528 
1.3599999999998666, -0.6436285729158198 
1.3699999999998655, -0.6431439127650276 
1.3799999999998644, -0.642632662614429 
1.3899999999998633, -0.6421353030180048 
1.3999999999998622, -0.6417213904469211 
1.4099999999998611, -0.6415032526945967 
1.41999999999986, -0.6416443692178172 
1.429999999999859, -0.6423475445865587 
1.4399999999998578, -0.6438020530098486 
1.4499999999998567, -0.6460827276652565 
1.4599999999998556, -0.6490465723313917 
1.4699999999998545, -0.6523299524088737 
1.4799999999998534, -0.655499847441051 
1.4899999999998523, -0.6582468902390344 
1.4999999999998512, -0.6604569561838662 
1.5099999999998501, -0.6621530318132341 
1.519999999999849, -0.6634117447288891 
1.529999999999848, -0.6643156104072019 
1.5399999999998468, -0.6649366744672472 
1.5499999999998457, -0.6653330003574992 
1.5599999999998446, -0.6655484602600632 
1.5699999999998435, -0.6656131332587321 
1.5799999999998424, -0.6655436883160232 
1.5899999999998413, -0.6653434770171399 
1.5999999999998402, -0.6650022923602622 
1.6099999999998391, -0.6644962933934943 
1.619999999999838, -0.6637895378560976 
1.629999999999837, -0.6628396517581113 
1.6399999999998358, -0.6616102322379931 
1.6499999999998347, -0.6600894877507976 
1.6599999999998336, -0.6583078021113088 
1.6699999999998325, -0.6563418573216043 
1.6799999999998314, -0.654298584685364 
1.6899999999998303, -0.6522869692474905 
1.6999999999998292, -0.6503942175718638 
1.709999999999828, -0.648676400070224 
1.719999999999827, -0.6471618683813815 
1.729999999999826, -0.6458601174460621 
1.7399999999998248, -0.6447701688459044 
1.7499999999998237, -0.6438861022347837 
1.7599999999998226, -0.6431998187349759 
1.7699999999998215, -0.6427020354093477 
1.7799999999998204, -0.6423825206794195 
1.7899999999998193, -0.6422302639386698 
1.7999999999998182, -0.6422339124761571 
1.809999999999817, -0.6423825076475773 
1.819999999999816, -0.6426663368645624 
1.8299999999998149, -0.6430775716361304 
1.8399999999998138, -0.6436102360851619 
1.8499999999998127, -0.644258920796338 
1.8599999999998116, -0.645015639511183 
1.8699999999998105, -0.6458646674420614 
1.8799999999998094, -0.6467765155237498 
1.8899999999998083, -0.6477042221932894 
1.8999999999998072, -0.6485862836983999 
1.909999999999806, -0.6493581951355774 
1.919999999999805, -0.6499684773553841 
1.9299999999998039, -0.6503903590497118 
1.9399999999998028, -0.650622852710788 
1.9499999999998017, -0.6506826834868427 
1.9599999999998006, -0.6505934224200884 
1.9699999999997995, -0.6503770494519221 
1.9799999999997984, -0.6500495614617957 
1.9899999999997973, -0.6496199019405108 
1.9999999999997962, -0.6490910870028133 
2.0099999999998173, -0.6484629745166777 
2.0199999999998384, -0.6477367635825662 
2.0299999999998595, -0.6469214262601726 
2.0399999999998806, -0.6460411929890515 
2.0499999999999017, -0.6451401712666772 
2.059999999999923, -0.644275882467034 
2.069999999999944, -0.6434942114431472 
2.079999999999965, -0.6427963276766469 
2.089999999999986, -0.6421389863735125 
2.100000000000007, -0.6414970704303125 
2.1100000000000283, -0.6409272114741872 
2.1200000000000494, -0.6405378756744311 
2.1300000000000705, -0.6403955820151678 
2.1400000000000916, -0.6404786680868926 
2.1500000000001127, -0.640706282789602 
2.160000000000134, -0.6409887690995789 
2.170000000000155, -0.6412576709247714 
2.180000000000176, -0.6414717034453787 
2.190000000000197, -0.6416103968326881 
2.2000000000002182, -0.6416650316425923 
2.2100000000002393, -0.6416310581582828 
2.2200000000002604, -0.6415028680839108 
2.2300000000002815, -0.6412706729979718 
2.2400000000003026, -0.640919354828441 
2.2500000000003237, -0.6404297278299358 
2.260000000000345, -0.6397830292755039 
2.270000000000366, -0.6389687785257943 
2.280000000000387, -0.6379938027396574 
2.290000000000408, -0.6368874144873005 
2.3000000000004293, -0.6356979490120421 
2.3100000000004504, -0.6344810792678821 
2.3200000000004715, -0.6332863707999664 
2.3300000000004926, -0.6321491388686631 
2.3400000000005137, -0.6310898454155988 
2.3500000000005348, -0.630118510743436 
2.360000000000556, -0.6292403651700316 
2.370000000000577, -0.6284603266905433 
2.380000000000598, -0.6277856425971556 
2.390000000000619, -0.6272270188062093 
2.4000000000006403, -0.6267987849617225 
2.4100000000006614, -0.6265185259431456 
2.4200000000006825, -0.626406463593941 
2.4300000000007036, -0.6264847819391346 
2.4400000000007247, -0.6267769990246296 
2.450000000000746, -0.6273073066999144 
2.460000000000767, -0.6280994609392464 
2.470000000000788, -0.6291743134547169 
2.480000000000809, -0.6305445866723942 
2.49000000000083, -0.6322054992993119 
2.5000000000008513, -0.6341213485880092 
2.5100000000008724, -0.6362122231988923 
2.5200000000008935, -0.6383506995778294 
2.5300000000009146, -0.6403796974630525 
2.5400000000009357, -0.6421516303942826 
2.550000000000957, -0.6435696668913582 
2.560000000000978, -0.6446057502577082 
2.570000000000999, -0.645288158993492 
2.58000000000102, -0.6456734400668347 
2.5900000000010412, -0.6458211302892808 
2.6000000000010624, -0.6457791190026725 
2.6100000000010835, -0.6455780099454892 
2.6200000000011046, -0.6452299173340219 
2.6300000000011257, -0.6447280358034322 
2.6400000000011468, -0.6440448576921267 
2.650000000001168, -0.64312794112848 
2.660000000001189, -0.6418929167763163 
2.67000000000121, -0.6402150462600575 
2.680000000001231, -0.637925168351612 
2.6900000000012523, -0.6348255208188944 
2.7000000000012734, -0.630751575039306 
2.7100000000012945, -0.6256933550936015 
2.7200000000013156, -0.6199209481069493 
2.7300000000013367, -0.6139817222744608 
2.740000000001358, -0.6085046144594249 
2.750000000001379, -0.6039475683665374 
2.7600000000014, -0.6004798562588956 
2.770000000001421, -0.5980311614901668 
2.780000000001442, -0.5964084141461357 
2.7900000000014633, -0.5953929665576501 
2.8000000000014844, -0.5947926671166115 
2.8100000000015055, -0.5944590001655976 
2.8200000000015266, -0.5942857090259116 
2.8300000000015477, -0.5942004053430952 
2.840000000001569, -0.5941551208579606 
2.85000000000159, -0.5941182616929321 
2.860000000001611, -0.5940687123059432 
2.870000000001632, -0.5939921590708669 
2.8800000000016532, -0.5938794610968796 
2.8900000000016743, -0.593726655610368 
2.9000000000016954, -0.5935357092741715 
2.9100000000017165, -0.5933145778682316 
2.9200000000017377, -0.5930751791713488 
2.9300000000017588, -0.592829105577694 
2.94000000000178, -0.5925827848313386 
2.950000000001801, -0.5923347480443218 
2.960000000001822, -0.5920766314955902 
2.970000000001843, -0.5917972378195431 
2.9800000000018643, -0.5914872543410679 
2.9900000000018854, -0.5911423663510894 
3.0000000000019065, -0.5907641278432603 
3.0100000000019276, -0.5903595334112052 
3.0200000000019487, -0.589940745191479 
3.03000000000197, -0.589526069745778 
3.040000000001991, -0.5891427527399499 
3.050000000002012, -0.5888318360305436 
3.060000000002033, -0.5886551164768059 
3.070000000002054, -0.5887038187313011 
3.0800000000020753, -0.5891074446366111 
3.0900000000020964, -0.5900386996666904 
3.1000000000021175, -0.5917057790295257 
3.1100000000021386, -0.5943174837810064 
3.1200000000021597, -0.5980059965758763 
3.130000000002181, -0.6027126610900508 
3.140000000002202, -0.6080965955850053 
3.150000000002223, -0.6135741728964488 
3.160000000002244, -0.6185313330209883 
3.1700000000022652, -0.6225705830626134 
3.1800000000022863, -0.6255987550339057 
3.1900000000023074, -0.6277368916701068 
3.2000000000023285, -0.629182875805505 
3.2100000000023496, -0.6301231522663053 
3.2200000000023707, -0.6307014528880183 
3.230000000002392, -0.6310177875727989 
3.240000000002413, -0.6311366651448207 
3.250000000002434, -0.6310953018092097 
3.260000000002455, -0.6309092253433122 
3.2700000000024763, -0.6305752217391917 
3.2800000000024974, -0.6300725052032611 
3.2900000000025185, -0.6293637915511585 
3.3000000000025396, -0.6283991677501439 
3.3100000000025607, -0.6271267333355806 
3.3200000000025818, -0.6255126571221697 
3.330000000002603, -0.623566573276783 
3.340000000002624, -0.6213581888269081 
3.350000000002645, -0.619009302344074 
3.360000000002666, -0.6166611590555306 
3.3700000000026873, -0.614436750750424 
3.3800000000027084, -0.6124188462951557 
3.3900000000027295, -0.6106486434525672 
3.4000000000027506, -0.6091366327786542 
3.4100000000027717, -0.6078756356040114 
3.420000000002793, -0.6068506708403214 
3.430000000002814, -0.6060446814711014 
3.440000000002835, -0.6054411657328591 
3.450000000002856, -0.6050250895629938 
3.460000000002877, -0.6047831178147199 
3.4700000000028983, -0.6047037582411684 
3.4800000000029194, -0.6047776568521296 
3.4900000000029405, -0.60499803590611 
3.5000000000029616, -0.605361085771447 
3.5100000000029827, -0.6058659472859512 
3.520000000003004, -0.6065137045354894 
3.530000000003025, -0.6073045997276378 
3.540000000003046, -0.6082327568218513 
3.550000000003067, -0.6092785938809357 
3.5600000000030882, -0.6104012501885256 
3.5700000000031094, -0.6115360497875625 
3.5800000000031305, -0.6126024043820749 
3.5900000000031516, -0.6135223273775001 
3.6000000000031727, -0.6142409306660682 
3.6100000000031938, -0.6147369798643767 
3.620000000003215, -0.6150189062639383 
3.630000000003236, -0.6151118610766787 
3.640000000003257, -0.6150444245402875 
3.650000000003278, -0.6148396997835479 
3.6600000000032993, -0.6145109342892239 
3.6700000000033204, -0.6140598052073579 
3.6800000000033415, -0.6134755158966511 
3.6900000000033626, -0.6127334526982364 
3.7000000000033837, -0.6117925744750529 
3.710000000003405, -0.6105908482233778 
3.720000000003426, -0.6090384330249855 
3.730000000003447, -0.6070108654470934 
3.740000000003468, -0.604353243768418 
3.750000000003489, -0.6009221795762543 
3.7600000000035103, -0.5966922494428568 
3.7700000000035314, -0.5918876805217097 
3.7800000000035525, -0.5869977855965608 
3.7900000000035736, -0.5825872909532424 
3.8000000000035947, -0.5790430930618456 
3.810000000003616, -0.5764690095205888 
3.820000000003637, -0.5747533165800114 
3.830000000003658, -0.5736925233352311 
3.840000000003679, -0.5730819743405492 
3.8500000000037002, -0.5727562781552371 
3.8600000000037213, -0.5725965770448396 
3.8700000000037424, -0.5725232706663025 
3.8800000000037635, -0.5724851618226291 
3.8900000000037847, -0.5724497093884893 
3.9000000000038058, -0.572395772137198 
3.910000000003827, -0.5723089328120057 
3.920000000003848, -0.5721791591087644 
3.930000000003869, -0.5720004861035849 
3.94000000000389, -0.5717721436374597 
3.9500000000039113, -0.5714999506773737 
3.9600000000039324, -0.5711962550290175 
3.9700000000039535, -0.5708770943271982 
3.9800000000039746, -0.5705569960433176 
3.9900000000039957, -0.5702438254929222 
4.000000000004016, -0.5699365091916178 
4.010000000003993, -0.569626784112361 
4.02000000000397, -0.5693037030470811 
4.030000000003946, -0.5689583147559442 
4.040000000003923, -0.5685865258792387 
4.0500000000039, -0.5681898518035584 
4.0600000000038765, -0.5677751172256958 
4.070000000003853, -0.5673544682779472 
4.08000000000383, -0.5669466672569913 
4.090000000003807, -0.5665801902329461 
4.100000000003783, -0.5662983979381042 
4.11000000000376, -0.5661668611421455 
4.120000000003737, -0.5662824144215435 
4.130000000003713, -0.5667820882579786 
4.14000000000369, -0.5678468634829501 
4.150000000003667, -0.5696895091299703 
4.1600000000036434, -0.5725093581532875 
4.17000000000362, -0.576399469952265 
4.180000000003597, -0.581223860526482 
4.1900000000035735, -0.5865500737015328 
4.20000000000355, -0.5917515607536333 
4.210000000003527, -0.5962674059901214 
4.220000000003504, -0.5998179226177353 
4.23000000000348, -0.6024139296298718 
4.240000000003457, -0.6042233165612345 
4.250000000003434, -0.6054432545795134 
4.26000000000341, -0.6062386904929353 
4.270000000003387, -0.6067294633177724 
4.280000000003364, -0.6069964916404885 
4.2900000000033405, -0.6070910769867666 
4.300000000003317, -0.6070421625008473 
4.310000000003294, -0.606860862432303 
4.320000000003271, -0.6065429116452391 
4.330000000003247, -0.6060701840460567 
4.340000000003224, -0.6054130359716372 
4.350000000003201, -0.6045359807859161 
4.360000000003177, -0.6034091171500895 
4.370000000003154, -0.6020249076313855 
4.380000000003131, -0.6004137543775296 
4.390000000003107, -0.5986471701299932 
4.400000000003084, -0.596822392324559 
4.410000000003061, -0.5950359577596265 
4.4200000000030375, -0.5933618287886256 
4.430000000003014, -0.5918436439357635 
4.440000000002991, -0.590499306841255 
4.450000000002968, -0.5893306799558058 
4.460000000002944, -0.5883325702928806 
4.470000000002921, -0.587498707753437 
4.480000000002898, -0.5868248202292001 
4.490000000002874, -0.5863097662135384 
4.500000000002851, -0.5859556636009642 
4.510000000002828, -0.5857676647837853 
4.520000000002804, -0.5857537521744738 
4.530000000002781, -0.5859247117831344 
4.540000000002758, -0.5862942383793431 
4.5500000000027345, -0.5868788680742334 
4.560000000002711, -0.5876970689436022 
4.570000000002688, -0.5887663549937159 
4.580000000002665, -0.5900969286055726 
4.590000000002641, -0.591680737155856 
4.600000000002618, -0.5934770905126169 
4.610000000002595, -0.5954008570363782 
4.620000000002571, -0.5973243060932664 
4.630000000002548, -0.5991013647964374 
4.640000000002525, -0.6006079697787121 
4.6500000000025015, -0.6017754948383558 
4.660000000002478, -0.6025972345862839 
4.670000000002455, -0.603109768758914 
4.6800000000024315, -0.6033665412467781 
4.690000000002408, -0.6034178097784411 
4.700000000002385, -0.6033003548768052 
4.710000000002362, -0.603033804095448 
4.720000000002338, -0.6026194182095452 
4.730000000002315, -0.602038399703119 
4.740000000002292, -0.6012480181594372 
4.750000000002268, -0.6001747755754384 
4.760000000002245, -0.598705345062214 
4.770000000002222, -0.596680030998035 
4.7800000000021985, -0.5939022522866126 
4.790000000002175, -0.5901882701152235 
4.800000000002152, -0.5854742357870093 
4.810000000002129, -0.5799415741361675 
4.820000000002105, -0.5740459597378064 
4.830000000002082, -0.5683709570045588 
4.840000000002059, -0.5633990766853011 
4.850000000002035, -0.5593746095602119 
4.860000000002012, -0.5563151677027305 
4.870000000001989, -0.554100958658964 
4.880000000001965, -0.552561653548324 
4.890000000001942, -0.5515297913751513 
4.900000000001919, -0.5508640244005754 
4.9100000000018955, -0.5504544823669834 
4.920000000001872, -0.5502199920877228 
