t, s[1].omega / s[0].omega 
0, -0.7399976761018153 
0.009999999999999995, -0.7397442428614547 
0.019999999999999934, -0.739447617664501 
0.029999999999999874, -0.7391045991576808 
0.04000000000000012, -0.7387134815336218 
0.050000000000000405, -0.7382770598186142 
0.06000000000000069, -0.7378042380529134 
0.07000000000000098, -0.7373105096931039 
0.08000000000000126, -0.7368183397491612 
0.09000000000000155, -0.7363581631689088 
0.10000000000000184, -0.735969897148957 
0.11000000000000212, -0.7357041546554408 
0.12000000000000241, -0.7356220351586231 
0.130000000000002, -0.735792553508656 
0.1400000000000009, -0.7362873852114318 
0.1499999999999998, -0.7371733168062076 
0.1599999999999987, -0.7385030524519461 
0.1699999999999976, -0.7403045528891325 
0.1799999999999965, -0.742568405460112 
0.1899999999999954, -0.7452333859957944 
0.1999999999999943, -0.7481741598607489 
0.2099999999999932, -0.7512015053868175 
0.2199999999999921, -0.7540881063057883 
0.229999999999991, -0.7566214137808867 
0.2399999999999899, -0.7586608591958228 
0.2499999999999888, -0.7601651256481526 
0.2599999999999877, -0.7611762511635278 
0.2699999999999866, -0.7617792924729504 
0.2799999999999855, -0.7620648408309932 
0.2899999999999844, -0.7621074953295913 
0.2999999999999833, -0.7619586180530145 
0.3099999999999822, -0.7616467514696821 
0.3199999999999811, -0.761180615762658 
0.32999999999998, -0.7605525228953747 
0.3399999999999789, -0.7597423412369225 
0.3499999999999778, -0.7587237630116251 
0.35999999999997667, -0.7574756440226977 
0.36999999999997557, -0.75600068678245 
0.37999999999997447, -0.7543495038769552 
0.38999999999997337, -0.7526388416093914 
0.39999999999997227, -0.7510449292652697 
0.40999999999997117, -0.7497631420738362 
0.41999999999997006, -0.7489541780593971 
0.42999999999996896, -0.7487035611337378 
0.43999999999996786, -0.7489947293355261 
0.44999999999996676, -0.749701890420887 
0.45999999999996566, -0.7506293182577821 
0.46999999999996456, -0.7515837996957393 
0.47999999999996346, -0.7524290838049321 
0.48999999999996235, -0.7530974399720327 
0.49999999999996125, -0.7535721810643935 
0.5099999999999602, -0.7538634201053427 
0.519999999999959, -0.7539890181564384 
0.529999999999958, -0.753962757385579 
0.5399999999999568, -0.7537875679473067 
0.5499999999999557, -0.7534512137080934 
0.5599999999999546, -0.7529229299104796 
0.5699999999999535, -0.7521512374222917 
0.5799999999999524, -0.7510654940541999 
0.5899999999999513, -0.7495861702876903 
0.5999999999999502, -0.7476487043324476 
0.6099999999999491, -0.7452385514550555 
0.619999999999948, -0.7424210090532013 
0.6299999999999469, -0.739342443400228 
0.6399999999999458, -0.7361955244037479 
0.6499999999999447, -0.7331686804520076 
0.6599999999999436, -0.7304083609646637 
0.6699999999999425, -0.7280060776344329 
0.6799999999999414, -0.726003648903966 
0.6899999999999403, -0.7244050099910946 
0.6999999999999392, -0.7231873966231811 
0.7099999999999381, -0.722310057293597 
0.719999999999937, -0.7217212267404618 
0.7299999999999359, -0.7213642669649913 
0.7399999999999348, -0.7211831058599263 
0.7499999999999337, -0.7211264959741405 
0.7599999999999326, -0.7211506141627492 
0.7699999999999315, -0.7212199816778588 
0.7799999999999304, -0.721307196190057 
0.7899999999999293, -0.7213921854808452 
0.7999999999999282, -0.7214614757057516 
0.8099999999999271, -0.7215074039586109 
0.819999999999926, -0.7215266683708424 
0.8299999999999249, -0.721517696254184 
0.8399999999999238, -0.7214773157033292 
0.8499999999999227, -0.7213984389796828 
0.8599999999999216, -0.7212705174938735 
0.8699999999999205, -0.7210828704154024 
0.8799999999999194, -0.7208289444684053 
0.8899999999999183, -0.7205091251458788 
0.8999999999999172, -0.720131260392429 
0.9099999999999161, -0.7197099389949904 
0.919999999999915, -0.7192662168611031 
0.9299999999999139, -0.7188289007747602 
0.9399999999999128, -0.718437535465357 
0.9499999999999117, -0.7181464317087042 
0.9599999999999106, -0.7180284597641089 
0.9699999999999095, -0.7181768668246318 
0.9799999999999084, -0.7187031559577187 
0.9899999999999073, -0.7197291863148384 
0.9999999999999062, -0.7213719828109056 
1.0099999999999052, -0.7237200628888972 
1.019999999999904, -0.7268009854935541 
1.029999999999903, -0.7305437007466196 
1.039999999999902, -0.7347491402652192 
1.0499999999999008, -0.739095262732044 
1.0599999999998997, -0.7432008496921985 
1.0699999999998986, -0.7467359896770038 
1.0799999999998975, -0.7495178705867964 
1.0899999999998964, -0.75153163463199 
1.0999999999998953, -0.7528784297982295 
1.1099999999998942, -0.7537021686430493 
1.119999999999893, -0.7541373509255582 
1.129999999999892, -0.7542864962110972 
1.1399999999998909, -0.75421662839226 
1.1499999999998898, -0.7539630171812562 
1.1599999999998887, -0.7535332933922355 
1.1699999999998876, -0.7529091352668871 
1.1799999999998865, -0.7520448433613993 
1.1899999999998854, -0.7508632426230093 
1.1999999999998843, -0.7492506911523704 
1.2099999999998832, -0.7470558309877313 
1.219999999999882, -0.7441024592143034 
1.229999999999881, -0.7402349853150063 
1.2399999999998799, -0.7354150934389903 
1.2499999999998788, -0.7298521727289786 
1.2599999999998777, -0.7240668910780118 
1.2699999999998766, -0.7187582594300994 
1.2799999999998755, -0.7145070997138891 
1.2899999999998744, -0.7115476284305122 
1.2999999999998733, -0.7097684240886994 
1.3099999999998722, -0.7088712879819442 
1.319999999999871, -0.7085332523522085 
1.32999999999987, -0.7084948644495148 
1.3399999999998689, -0.7085810065201553 
1.3499999999998678, -0.7086870282862914 
1.3599999999998666, -0.7087555291430945 
1.3699999999998655, -0.7087557368828357 
1.3799999999998644, -0.7086686772516052 
1.3899999999998633, -0.7084776392109822 
1.3999999999998622, -0.7081627674405506 
1.4099999999998611, -0.7076992955700738 
1.41999999999986, -0.7070598995814648 
1.429999999999859, -0.7062218450255136 
1.4399999999998578, -0.7051778503276889 
1.4499999999998567, -0.7039459700678583 
1.4599999999998556, -0.7025715968961055 
1.4699999999998545, -0.7011182761540534 
1.4799999999998534, -0.6996519883813827 
1.4899999999998523, -0.6982279109118044 
1.4999999999998512, -0.6968852421650391 
1.5099999999998501, -0.6956492689630719 
1.519999999999849, -0.6945365447928105 
1.529999999999848, -0.693559621975625 
1.5399999999998468, -0.6927297802547258 
1.5499999999998457, -0.692057721044522 
1.5599999999998446, -0.6915528703235809 
1.5699999999998435, -0.6912220835919064 
1.5799999999998424, -0.6910684753134051 
1.5899999999998413, -0.691090898247936 
1.5999999999998402, -0.691284288703302 
1.6099999999998391, -0.6916407254099504 
1.619999999999838, -0.6921507164131779 
1.629999999999837, -0.69280399660903 
1.6399999999998358, -0.6935890108228269 
1.6499999999998347, -0.6944903576848779 
1.6599999999998336, -0.6954840642830276 
1.6699999999998325, -0.6965320256984755 
1.6799999999998314, -0.6975790602325366 
1.6899999999998303, -0.6985570562254181 
1.6999999999998292, -0.699397896711252 
1.709999999999828, -0.7000502597797542 
1.719999999999827, -0.7004908117990276 
1.729999999999826, -0.7007237551350759 
1.7399999999998248, -0.700771146422194 
1.7499999999998237, -0.7006611605299802 
1.7599999999998226, -0.7004197479204193 
1.7699999999998215, -0.7000671873380588 
1.7799999999998204, -0.6996188099237644 
1.7899999999998193, -0.6990891191392505 
1.7999999999998182, -0.6984994864717662 
1.809999999999817, -0.6978904964584773 
1.819999999999816, -0.697339913169637 
1.8299999999998149, -0.6969846923610132 
1.8399999999998138, -0.6970383134186864 
1.8499999999998127, -0.6977821532936701 
1.8599999999998116, -0.6994992952440189 
1.8699999999998105, -0.7023364309062742 
1.8799999999998094, -0.7061520396730214 
1.8899999999998083, -0.7104909615986874 
1.8999999999998072, -0.7147667738150992 
1.909999999999806, -0.7185199188977165 
1.919999999999805, -0.7215411299895033 
1.9299999999998039, -0.7238262370689352 
1.9399999999998028, -0.7254743995309949 
1.9499999999998017, -0.7266125780344036 
1.9599999999998006, -0.7273580955355403 
1.9699999999997995, -0.7278049322255034 
1.9799999999997984, -0.7280211135897592 
1.9899999999997973, -0.7280501796605983 
1.9999999999997962, -0.7279132074944596 
2.0099999999998173, -0.7276096888353154 
2.0199999999998384, -0.7271166710757716 
2.0299999999998595, -0.7263866545217146 
2.0399999999998806, -0.7253464955233728 
2.0499999999999017, -0.7239023829844573 
2.059999999999923, -0.7219585126274193 
2.069999999999944, -0.71945437699117 
2.079999999999965, -0.7164115114218308 
2.089999999999986, -0.7129610116519974 
2.100000000000007, -0.7093235644390606 
2.1100000000000283, -0.7057474188803895 
2.1200000000000494, -0.7024431458228735 
2.1300000000000705, -0.6995487647644117 
2.1400000000000916, -0.6971285756153419 
2.1500000000001127, -0.6951898598415513 
2.160000000000134, -0.6937024025873169 
2.170000000000155, -0.6926141346504255 
2.180000000000176, -0.6918622124592322 
2.190000000000197, -0.6913808471501877 
2.2000000000002182, -0.6911069640263301 
2.2100000000002393, -0.6909840807236459 
2.2200000000002604, -0.6909644605141989 
2.2300000000002815, -0.6910097079055818 
2.2400000000003026, -0.6910902617733121 
2.2500000000003237, -0.6911844139287412 
2.260000000000345, -0.6912773649878824 
2.270000000000366, -0.6913603987531813 
2.280000000000387, -0.69142969099559 
2.290000000000408, -0.6914840320320444 
2.3000000000004293, -0.6915213513224929 
2.3100000000004504, -0.6915352664518446 
2.3200000000004715, -0.6915137949490819 
2.3300000000004926, -0.6914415888603296 
2.3400000000005137, -0.6913047605523522 
2.3500000000005348, -0.6910955266573562 
2.360000000000556, -0.6908143288518623 
2.370000000000577, -0.6904693059397682 
2.380000000000598, -0.6900748268891532 
2.390000000000619, -0.6896510200934513 
2.4000000000006403, -0.6892254104225807 
2.4100000000006614, -0.6888368968175369 
2.4200000000006825, -0.6885417034261059 
2.4300000000007036, -0.6884203935263992 
2.4400000000007247, -0.6885842553386294 
2.450000000000746, -0.6891782388228294 
2.460000000000767, -0.6903762014871373 
2.470000000000788, -0.6923627269173561 
2.480000000000809, -0.6952950524865736 
2.49000000000083, -0.6992415879123539 
2.5000000000008513, -0.7041062904828796 
2.5100000000008724, -0.7095748729613789 
2.5200000000008935, -0.7151424860283071 
2.5300000000009146, -0.7202551429527488 
2.5400000000009357, -0.7245012117894741 
2.550000000000957, -0.7277229724170693 
2.560000000000978, -0.7299871281068111 
2.570000000000999, -0.7314754548767513 
2.58000000000102, -0.7323861335485 
2.5900000000010412, -0.7328827646078556 
2.6000000000010624, -0.7330811755581423 
2.6100000000010835, -0.7330534560465816 
2.6200000000011046, -0.7328355693765252 
2.6300000000011257, -0.7324325352270795 
2.6400000000011468, -0.7318192133053688 
2.650000000001168, -0.730936251056663 
2.660000000001189, -0.729681703144214 
2.67000000000121, -0.7279011661031005 
2.680000000001231, -0.7253853859164924 
2.6900000000012523, -0.7218953085333877 
2.7000000000012734, -0.7172423756208455 
2.7100000000012945, -0.7114289593159598 
2.7200000000013156, -0.7047773234265149 
2.7300000000013367, -0.6979114825251109 
2.740000000001358, -0.6915432368908996 
2.750000000001379, -0.6862059111657579 
2.7600000000014, -0.6821219126063711 
2.770000000001421, -0.6792399402024006 
2.780000000001442, -0.6773522694070908 
2.7900000000014633, -0.6762038850939177 
2.8000000000014844, -0.6755594639230812 
2.8100000000015055, -0.6752314833538022 
2.8200000000015266, -0.675083889977511 
2.8300000000015477, -0.6750240903330887 
2.840000000001569, -0.6749913858209085 
2.85000000000159, -0.6749460625655568 
2.860000000001611, -0.674860893432742 
2.870000000001632, -0.6747155931462017 
2.8800000000016532, -0.6744943144040099 
2.8900000000016743, -0.6741860085695934 
2.9000000000016954, -0.673786847217882 
2.9100000000017165, -0.6733028025632707 
2.9200000000017377, -0.6727497914310123 
2.9300000000017588, -0.6721498924760617 
2.94000000000178, -0.6715249878330819 
2.950000000001801, -0.670891341835083 
2.960000000001822, -0.6702579316785643 
2.970000000001843, -0.669628614421639 
2.9800000000018643, -0.6690060809821184 
2.9900000000018854, -0.668395435726161 
3.0000000000019065, -0.6678064883090421 
3.0100000000019276, -0.6672550249852247 
3.0200000000019487, -0.6667636835629086 
3.03000000000197, -0.6663627646786601 
3.040000000001991, -0.6660908773889253 
3.050000000002012, -0.6659950641506035 
3.060000000002033, -0.6661300403142316 
3.070000000002054, -0.666556307284778 
3.0800000000020753, -0.6673369462102825 
3.0900000000020964, -0.6685326314135512 
3.1000000000021175, -0.6701937177159313 
3.1100000000021386, -0.6723474911985405 
3.1200000000021597, -0.6749790225416484 
3.130000000002181, -0.6780077174611461 
3.140000000002202, -0.6812701808763133 
3.150000000002223, -0.6845290510734567 
3.160000000002244, -0.6875225920747713 
3.1700000000022652, -0.6900405835428529 
3.1800000000022863, -0.6919814205353164 
3.1900000000023074, -0.6933553959874839 
3.2000000000023285, -0.6942437582546694 
3.2100000000023496, -0.694749504061103 
3.2200000000023707, -0.6949645640844512 
3.230000000002392, -0.6949561609826921 
3.240000000002413, -0.6947646202200763 
3.250000000002434, -0.6944050154857256 
3.260000000002455, -0.6938682177698632 
3.2700000000024763, -0.6931193308995919 
3.2800000000024974, -0.6920927205644549 
3.2900000000025185, -0.6906837516818886 
3.3000000000025396, -0.6887394307459543 
3.3100000000025607, -0.6860558461722694 
3.3200000000025818, -0.6824019842169883 
3.330000000002603, -0.6776012321314681 
3.340000000002624, -0.6716825734092715 
3.350000000002645, -0.6650245003574188 
3.360000000002666, -0.6583250312744617 
3.3700000000026873, -0.6523355542633891 
3.3800000000027084, -0.6475519484580828 
3.3900000000027295, -0.6440986137663903 
3.4000000000027506, -0.6418194071882525 
3.4100000000027717, -0.6404358893854176 
3.420000000002793, -0.6396659993942606 
3.430000000002814, -0.6392799381179385 
3.440000000002835, -0.6391121121368682 
3.450000000002856, -0.6390522319013734 
3.460000000002877, -0.6390303615313806 
3.4700000000028983, -0.6390028631360025 
3.4800000000029194, -0.6389415775494452 
3.4900000000029405, -0.6388265571404519 
3.5000000000029616, -0.6386420912134473 
3.5100000000029827, -0.6383757578892013 
3.520000000003004, -0.63802010506573 
3.530000000003025, -0.6375758279140598 
3.540000000003046, -0.6370541541912889 
3.550000000003067, -0.6364758166257817 
3.5600000000030882, -0.635865800768356 
3.5700000000031094, -0.6352462105289083 
3.5800000000031305, -0.6346311938881269 
3.5900000000031516, -0.6340263203562976 
3.6000000000031727, -0.633431769902462 
3.6100000000031938, -0.6328468622945009 
3.620000000003215, -0.6322737665110699 
3.630000000003236, -0.6317197015079088 
3.640000000003257, -0.63119814743098 
3.650000000003278, -0.6307298998551888 
3.6600000000032993, -0.6303444724237284 
3.6700000000033204, -0.6300818827001338 
3.6800000000033415, -0.6299945151805252 
3.6900000000033626, -0.6301485648710122 
3.7000000000033837, -0.6306244156289169 
3.710000000003405, -0.6315150156356889 
3.720000000003426, -0.6329206401684451 
3.730000000003447, -0.6349372467014581 
3.740000000003468, -0.6376344262889049 
3.750000000003489, -0.6410198810974529 
3.7600000000035103, -0.6449948371585208 
3.7700000000035314, -0.6493219886263968 
3.7800000000035525, -0.65364410230748 
3.7900000000035736, -0.6575760926954105 
3.8000000000035947, -0.6608320886890834 
3.810000000003616, -0.6633024108918708 
3.820000000003637, -0.6650360657549919 
3.830000000003658, -0.6661660054321862 
3.840000000003679, -0.6668387096537205 
3.8500000000037002, -0.6671759227539151 
3.8600000000037213, -0.6672633868304261 
3.8700000000037424, -0.667152427879417 
3.8800000000037635, -0.6668643209603293 
3.8900000000037847, -0.6663926519826957 
3.9000000000038058, -0.6657018937526915 
3.910000000003827, -0.6647218161945985 
3.920000000003848, -0.6633388649286598 
3.930000000003869, -0.6613894061312502 
3.94000000000389, -0.658667783403567 
3.9500000000039113, -0.6549720233163628 
3.9600000000039324, -0.6502049395417173 
3.9700000000039535, -0.6445007903280009 
3.9800000000039746, -0.63827604673793 
3.9900000000039957, -0.6321168863112516 
4.000000000004016, -0.6265616400126303 
4.010000000003993, -0.6219380151918537 
4.02000000000397, -0.6183375980216932 
4.030000000003946, -0.615684286069685 
4.040000000003923, -0.6138202919681326 
4.0500000000039, -0.6125688500832959 
4.0600000000038765, -0.6117680991987559 
4.070000000003853, -0.6112844873081823 
4.08000000000383, -0.6110147514999362 
4.090000000003807, -0.6108825715488296 
4.100000000003783, -0.6108333452380221 
4.11000000000376, -0.6108288956480981 
4.120000000003737, -0.6108430324994502 
4.130000000003713, -0.6108584047627701 
4.14000000000369, -0.6108647283996427 
4.150000000003667, -0.6108580466136704 
4.1600000000036434, -0.6108401375196176 
4.17000000000362, -0.610816834487352 
4.180000000003597, -0.6107944613516146 
4.1900000000035735, -0.6107750284430086 
4.20000000000355, -0.6107524360787484 
4.210000000003527, -0.6107121884600528 
4.220000000003504, -0.6106353339976237 
4.23000000000348, -0.6105046265741714 
4.240000000003457, -0.6103095295072549 
4.250000000003434, -0.6100479208185782 
4.26000000000341, -0.6097249251276214 
4.270000000003387, -0.6093509031277163 
4.280000000003364, -0.6089405390490747 
4.2900000000033405, -0.6085141171983439 
4.300000000003317, -0.6081014646946765 
4.310000000003294, -0.6077488664463517 
4.320000000003271, -0.6075291758155543 
4.330000000003247, -0.6075547544481219 
4.340000000003224, -0.6079909317351763 
4.350000000003201, -0.6090631930309254 
4.360000000003177, -0.6110434078914072 
4.370000000003154, -0.6141917881521693 
4.380000000003131, -0.6186357750288216 
4.390000000003107, -0.6242124314304394 
4.400000000003084, -0.630389900428602 
4.410000000003061, -0.6364096319431444 
4.4200000000030375, -0.6416120754266466 
4.430000000003014, -0.6456837903584798 
4.440000000002991, -0.6486492745369341 
4.450000000002968, -0.6507075679753722 
4.460000000002944, -0.6520871238391039 
4.470000000002921, -0.6529785302390245 
4.480000000002898, -0.6535206560479615 
4.490000000002874, -0.6538073270610226 
4.500000000002851, -0.6538974601503027 
4.510000000002828, -0.653822999021747 
4.520000000002804, -0.6535936582699828 
4.530000000002781, -0.6531989479312512 
4.540000000002758, -0.6526086344748179 
4.5500000000027345, -0.6517738234788485 
4.560000000002711, -0.6506324974787671 
4.570000000002688, -0.6491244591965977 
4.580000000002665, -0.6472177895890046 
4.590000000002641, -0.6449389060486901 
4.600000000002618, -0.6423866069227735 
4.610000000002595, -0.6397137162270795 
4.620000000002571, -0.6370835882531074 
4.630000000002548, -0.6346286711416635 
4.640000000002525, -0.6324318205620513 
4.6500000000025015, -0.6305301140586728 
4.660000000002478, -0.6289290699173821 
4.670000000002455, -0.6276167568763829 
4.6800000000024315, -0.6265734508868441 
4.690000000002408, -0.6257768291012148 
4.700000000002385, -0.6252042495381733 
4.710000000002362, -0.6248336447629212 
4.720000000002338, -0.6246440271458714 
4.730000000002315, -0.6246160703179984 
4.740000000002292, -0.6247328542083277 
4.750000000002268, -0.6249806461345487 
4.760000000002245, -0.6253494760055309 
4.770000000002222, -0.6258331541992016 
4.7800000000021985, -0.626428207217766 
4.790000000002175, -0.6271310433613478 
4.800000000002152, -0.6279328436377987 
4.810000000002129, -0.6288127219057065 
4.820000000002105, -0.6297317839871266 
4.830000000002082, -0.6306327011850772 
4.840000000002059, -0.6314485528551134 
4.850000000002035, -0.6321191477554357 
4.860000000002012, -0.6326063587160301 
4.870000000001989, -0.6328996648827844 
4.880000000001965, -0.6330104632665094 
4.890000000001942, -0.6329609204988662 
4.900000000001919, -0.6327739071449295 
4.9100000000018955, -0.6324669613467109 
4.920000000001872, -0.632050036244011 
