t, s[1].omega / s[0].omega 
0, -0.5999977266244907 
0.009999999999999995, -0.5997686977324166 
0.019999999999999934, -0.5995327095669614 
0.029999999999999874, -0.5992807198431492 
0.04000000000000012, -0.5990024036338698 
0.050000000000000405, -0.5986903095430418 
0.06000000000000069, -0.5983421931013178 
0.07000000000000098, -0.5979613607511475 
0.08000000000000126, -0.5975561432599318 
0.09000000000000155, -0.5971398376643002 
0.10000000000000184, -0.5967320107281744 
0.11000000000000212, -0.5963615776272141 
0.12000000000000241, -0.5960717893294865 
0.130000000000002, -0.5959270234406778 
0.1400000000000009, -0.5960207286304917 
0.1499999999999998, -0.5964825506011145 
0.1599999999999987, -0.5974799897622882 
0.1699999999999976, -0.5992056265903055 
0.1799999999999965, -0.601836707875242 
0.1899999999999954, -0.6054570516801092 
0.1999999999999943, -0.6099560164419832 
0.2099999999999932, -0.614968962775218 
0.2199999999999921, -0.6199481385272598 
0.229999999999991, -0.6243678408628283 
0.2399999999999899, -0.6279211057569587 
0.2499999999999888, -0.6305631142422544 
0.2599999999999877, -0.6324182233187639 
0.2699999999999866, -0.6336646186289306 
0.2799999999999855, -0.6344651511643553 
0.2899999999999844, -0.6349441564950552 
0.2999999999999833, -0.6351876266249972 
0.3099999999999822, -0.6352502575428379 
0.3199999999999811, -0.6351622171993382 
0.32999999999998, -0.6349336103702472 
0.3399999999999789, -0.6345566443074745 
0.3499999999999778, -0.6340063791249407 
0.35999999999997667, -0.6332418472579907 
0.36999999999997557, -0.6322106322384144 
0.37999999999997447, -0.6308609343872662 
0.38999999999997337, -0.6291631613358819 
0.39999999999997227, -0.6271354559021506 
0.40999999999997117, -0.6248577585894138 
0.41999999999997006, -0.6224596667047573 
0.42999999999996896, -0.6200851485191824 
0.43999999999996786, -0.6178554466886352 
0.44999999999996676, -0.6158495434325493 
0.45999999999996566, -0.6141048044501453 
0.46999999999996456, -0.6126285358681068 
0.47999999999996346, -0.6114108350025661 
0.48999999999996235, -0.6104340406840764 
0.49999999999996125, -0.609678180245877 
0.5099999999999602, -0.6091235452474117 
0.519999999999959, -0.6087517214692038 
0.529999999999958, -0.6085460186601603 
0.5399999999999568, -0.6084918045199605 
0.5499999999999557, -0.6085769142037093 
0.5599999999999546, -0.6087920926577698 
0.5699999999999535, -0.6091312834047977 
0.5799999999999524, -0.6095914350906616 
0.5899999999999513, -0.6101713143174606 
0.5999999999999502, -0.6108686655925346 
0.6099999999999491, -0.6116752413285527 
0.619999999999948, -0.6125702059183132 
0.6299999999999469, -0.6135143878816243 
0.6399999999999458, -0.6144498089918141 
0.6499999999999447, -0.6153082548673258 
0.6599999999999436, -0.6160274310731991 
0.6699999999999425, -0.6165666139508653 
0.6799999999999414, -0.6169129199638403 
0.6899999999999403, -0.6170762523890254 
0.6999999999999392, -0.6170783018021818 
0.7099999999999381, -0.6169421507509127 
0.719999999999937, -0.6166856158921081 
0.7299999999999359, -0.6163181387240553 
0.7399999999999348, -0.6158397688014683 
0.7499999999999337, -0.6152409303267399 
0.7599999999999326, -0.6145021642108731 
0.7699999999999315, -0.6135933220390323 
0.7799999999999304, -0.6124715998951852 
0.7899999999999293, -0.6110776457051623 
0.7999999999999282, -0.6093303816109497 
0.8099999999999271, -0.6071281173959631 
0.819999999999926, -0.6043776424023989 
0.8299999999999249, -0.6010746407593304 
0.8399999999999238, -0.597404261738517 
0.8499999999999227, -0.5937476198314375 
0.8599999999999216, -0.5905282316653938 
0.8699999999999205, -0.5880177046460879 
0.8799999999999194, -0.5862646074954995 
0.8899999999999183, -0.5851567237575285 
0.8999999999999172, -0.5845210451993743 
0.9099999999999161, -0.5841930887249763 
0.919999999999915, -0.5840451780437921 
0.9299999999999139, -0.5839889299958979 
0.9399999999999128, -0.5839672480911793 
0.9499999999999117, -0.5839444446857539 
0.9599999999999106, -0.5838979376717075 
0.9699999999999095, -0.5838123814273046 
0.9799999999999084, -0.5836761849710569 
0.9899999999999073, -0.5834802246693862 
0.9999999999999062, -0.5832185358327902 
1.0099999999999052, -0.5828904270075752 
1.019999999999904, -0.5825026888064484 
1.029999999999903, -0.5820699224227645 
1.039999999999902, -0.5816115711875482 
1.0499999999999008, -0.5811463279285455 
1.0599999999998997, -0.5806867046281925 
1.0699999999998986, -0.5802366594968656 
1.0799999999998975, -0.5797931467685998 
1.0899999999998964, -0.5793501236178219 
1.0999999999998953, -0.5789026634051662 
1.1099999999998942, -0.5784496265997332 
1.119999999999893, -0.5779947977672806 
1.129999999999892, -0.5775473640334304 
1.1399999999998909, -0.5771227421791615 
1.1499999999998898, -0.576744422250822 
1.1599999999998887, -0.5764471192420321 
1.1699999999998876, -0.5762812487882794 
1.1799999999998865, -0.5763184442459937 
1.1899999999998854, -0.5766572443561687 
1.1999999999998843, -0.5774268210554341 
1.2099999999998832, -0.578784231112998 
1.219999999999882, -0.5808970955527164 
1.229999999999881, -0.5839008130992849 
1.2399999999998799, -0.5878245173050245 
1.2499999999998788, -0.5925049646208917 
1.2599999999998777, -0.5975507372974805 
1.2699999999998766, -0.602430247397278 
1.2799999999998755, -0.6066687080705784 
1.2899999999998744, -0.6100156007043895 
1.2999999999998733, -0.6124643306093234 
1.3099999999998722, -0.6141554837839586 
1.319999999999871, -0.6152693047940232 
1.32999999999987, -0.6159644304106378 
1.3399999999998689, -0.6163590749827731 
1.3499999999998678, -0.6165329679431412 
1.3599999999998666, -0.6165348915138863 
1.3699999999998655, -0.6163893817905816 
1.3799999999998644, -0.6161009035869615 
1.3899999999998633, -0.6156557287887007 
1.3999999999998622, -0.6150227019741685 
1.4099999999998611, -0.6141551700058324 
1.41999999999986, -0.6129977685390647 
1.429999999999859, -0.6115021617377463 
1.4399999999998578, -0.6096520345209189 
1.4499999999998567, -0.6074878757282728 
1.4599999999998556, -0.6051135052930176 
1.4699999999998545, -0.6026732513162981 
1.4799999999998534, -0.6003109699526678 
1.4899999999998523, -0.5981358812874138 
1.4999999999998512, -0.5962104381609532 
1.5099999999998501, -0.5945570503603541 
1.519999999999849, -0.5931722474448239 
1.529999999999848, -0.5920396048298244 
1.5399999999998468, -0.5911382926655719 
1.5499999999998457, -0.590447582752107 
1.5599999999998446, -0.589948748361913 
1.5699999999998435, -0.589625666777918 
1.5799999999998424, -0.5894649714644429 
1.5899999999998413, -0.5894561792423402 
1.5999999999998402, -0.5895919216141097 
1.6099999999998391, -0.5898682081447112 
1.619999999999838, -0.590284478746314 
1.629999999999837, -0.5908429971438619 
1.6399999999998358, -0.5915468922094942 
1.6499999999998347, -0.592396021485105 
1.6599999999998336, -0.5933802318559116 
1.6699999999998325, -0.5944711020099085 
1.6799999999998314, -0.5956159201945621 
1.6899999999998303, -0.596739741691245 
1.6999999999998292, -0.5977592231066808 
1.709999999999828, -0.5986040270738088 
1.719999999999827, -0.5992340894260164 
1.729999999999826, -0.5996431267461717 
1.7399999999998248, -0.599849170804353 
1.7499999999998237, -0.5998804188166078 
1.7599999999998226, -0.599763668271816 
1.7699999999998215, -0.5995176042632505 
1.7799999999998204, -0.5991497192425534 
1.7899999999998193, -0.5986547622117986 
1.7999999999998182, -0.5980130129044492 
1.809999999999817, -0.5971872154434692 
1.819999999999816, -0.5961173766500418 
1.8299999999998149, -0.5947132774025367 
1.8399999999998138, -0.5928469487049127 
1.8499999999998127, -0.5903544060577477 
1.8599999999998116, -0.587068614375249 
1.8699999999998105, -0.5829095350518463 
1.8799999999998094, -0.5780133899183981 
1.8899999999998083, -0.5727919461879218 
1.8999999999998072, -0.5678091996463037 
1.909999999999806, -0.5635406044070299 
1.919999999999805, -0.5602127781531069 
1.9299999999998039, -0.5578116098738994 
1.9399999999998028, -0.5561843291580757 
1.9499999999998017, -0.5551381019957281 
1.9599999999998006, -0.5544969316825947 
1.9699999999997995, -0.5541223697090627 
1.9799999999997984, -0.5539142967116703 
1.9899999999997973, -0.5538039474005612 
1.9999999999997962, -0.5537455225748513 
2.0099999999998173, -0.5537089595973609 
2.0199999999998384, -0.5536746058273911 
2.0299999999998595, -0.5536298290307581 
2.0399999999998806, -0.55356735305476 
2.0499999999999017, -0.5534849079513727 
2.059999999999923, -0.5533854240126215 
2.069999999999944, -0.5532765915801885 
2.079999999999965, -0.5531686470072625 
2.089999999999986, -0.5530702116725583 
2.100000000000007, -0.5529836143495025 
2.1100000000000283, -0.5529021661899567 
2.1200000000000494, -0.5528112375830838 
2.1300000000000705, -0.5526928501819672 
2.1400000000000916, -0.5525313397647695 
2.1500000000001127, -0.5523172185342125 
2.160000000000134, -0.5520479739550842 
2.170000000000155, -0.5517266268675636 
2.180000000000176, -0.5513598015931043 
2.190000000000197, -0.5509567194822637 
2.2000000000002182, -0.5505298079574567 
2.2100000000002393, -0.5500971824847017 
2.2200000000002604, -0.5496871479145428 
2.2300000000002815, -0.5493447300245089 
2.2400000000003026, -0.5491395117700186 
2.2500000000003237, -0.5491718502136874 
2.260000000000345, -0.5495699588841634 
2.270000000000366, -0.5504641885841425 
2.280000000000387, -0.5519249438801415 
2.290000000000408, -0.5538759100347854 
2.3000000000004293, -0.5560517467540829 
2.3100000000004504, -0.5580908092025992 
2.3200000000004715, -0.5597313097109609 
2.3300000000004926, -0.5609256243148641 
2.3400000000005137, -0.5617757856987577 
2.3500000000005348, -0.5624054084881056 
2.360000000000556, -0.5628938104722501 
2.370000000000577, -0.563276682864974 
2.380000000000598, -0.5635671198879428 
2.390000000000619, -0.5637707650698449 
2.4000000000006403, -0.5638917652897538 
2.4100000000006614, -0.563933499128406 
2.4200000000006825, -0.5638974859720054 
2.4300000000007036, -0.5637821602954043 
2.4400000000007247, -0.5635822393885868 
2.450000000000746, -0.5632891856568775 
2.460000000000767, -0.5628933223012172 
2.470000000000788, -0.5623879635567849 
2.480000000000809, -0.5617749359200211 
2.49000000000083, -0.561069152655163 
2.5000000000008513, -0.5602988845499313 
2.5100000000008724, -0.5595000483517631 
2.5200000000008935, -0.5587068504681515 
2.5300000000009146, -0.5579438322340015 
2.5400000000009357, -0.5572230425516874 
2.550000000000957, -0.5565463774671715 
2.560000000000978, -0.5559105225067507 
2.570000000000999, -0.5553117726506074 
2.58000000000102, -0.5547493546700906 
2.5900000000010412, -0.5542272958158476 
2.6000000000010624, -0.5537555922656461 
2.6100000000010835, -0.5533514491459932 
2.6200000000011046, -0.5530410730841238 
2.6300000000011257, -0.5528621984234945 
2.6400000000011468, -0.5528672892084407 
2.650000000001168, -0.5531270760138506 
2.660000000001189, -0.5537335427354815 
2.67000000000121, -0.5548003566349522 
2.680000000001231, -0.5564567070022541 
2.6900000000012523, -0.5588277662724337 
2.7000000000012734, -0.5619937392054734 
2.7100000000012945, -0.565926251150964 
2.7200000000013156, -0.570424332709885 
2.7300000000013367, -0.5751053217417303 
2.740000000001358, -0.579501897614094 
2.750000000001379, -0.5832324037540875 
2.7600000000014, -0.5861233358188385 
2.770000000001421, -0.588203902270323 
2.780000000001442, -0.589615378720764 
2.7900000000014633, -0.5905219494271707 
2.8000000000014844, -0.5910629795080198 
2.8100000000015055, -0.5913398450244091 
2.8200000000015266, -0.5914188593786168 
2.8300000000015477, -0.5913380626753765 
2.840000000001569, -0.591112802075287 
2.85000000000159, -0.5907389026966727 
2.860000000001611, -0.5901939291619805 
2.870000000001632, -0.5894381555760478 
2.8800000000016532, -0.588418264310976 
2.8900000000016743, -0.5870781537597618 
2.9000000000016954, -0.5853802021677365 
2.9100000000017165, -0.5833333157503107 
2.9200000000017377, -0.5810124417825042 
2.9300000000017588, -0.5785508620444055 
2.94000000000178, -0.5761036188373814 
2.950000000001801, -0.573804128715774 
2.960000000001822, -0.5717388174355081 
2.970000000001843, -0.5699460696912135 
2.9800000000018643, -0.5684295704034724 
2.9900000000018854, -0.5671740394922379 
3.0000000000019065, -0.5661570566548535 
3.0100000000019276, -0.5653559159401753 
3.0200000000019487, -0.5647507818897265 
3.03000000000197, -0.5643257482052684 
3.040000000001991, -0.5640689802969562 
3.050000000002012, -0.5639726246478521 
3.060000000002033, -0.5640327943480142 
3.070000000002054, -0.5642496857600671 
3.0800000000020753, -0.5646276767110734 
3.0900000000020964, -0.5651750236478152 
3.1000000000021175, -0.5659024627248096 
3.1100000000021386, -0.5668196833610032 
3.1200000000021597, -0.5679285918776913 
3.130000000002181, -0.5692132014911164 
3.140000000002202, -0.5706286550967412 
3.150000000002223, -0.5720958816394781 
3.160000000002244, -0.5735100845125949 
3.1700000000022652, -0.5747651193397234 
3.1800000000022863, -0.5757829120190456 
3.1900000000023074, -0.5765303908952158 
3.2000000000023285, -0.5770157846205602 
3.2100000000023496, -0.5772714635129027 
3.2200000000023707, -0.5773357669706971 
3.230000000002392, -0.577240813804868 
3.240000000002413, -0.5770065138356121 
3.250000000002434, -0.5766380262810877 
3.260000000002455, -0.5761239013978459 
3.2700000000024763, -0.5754330002596275 
3.2800000000024974, -0.5745090830909622 
3.2900000000025185, -0.5732629841408854 
3.3000000000025396, -0.571564883210429 
3.3100000000025607, -0.5692454888920041 
3.3200000000025818, -0.5661251013649246 
3.330000000002603, -0.5620922400917479 
3.340000000002624, -0.5572204535285026 
3.350000000002645, -0.5518396224196127 
3.360000000002666, -0.546460310226655 
3.3700000000026873, -0.5415752174796562 
3.3800000000027084, -0.5374912637877108 
3.3900000000027295, -0.5342946403915538 
3.4000000000027506, -0.5319156493326318 
3.4100000000027717, -0.5302132115792023 
3.420000000002793, -0.5290344263446423 
3.430000000002814, -0.5282440406962015 
3.440000000002835, -0.527733899269314 
3.450000000002856, -0.527422466889481 
3.460000000002877, -0.5272506468439155 
3.4700000000028983, -0.527176943699919 
3.4800000000029194, -0.5271732228004029 
3.4900000000029405, -0.5272214688342772 
3.5000000000029616, -0.5273115651815001 
3.5100000000029827, -0.5274398803774121 
3.520000000003004, -0.5276081801460126 
3.530000000003025, -0.5278220764381635 
3.540000000003046, -0.5280881062639935 
3.550000000003067, -0.5284089982157802 
3.5600000000030882, -0.5287779521115111 
3.5700000000031094, -0.5291743963396012 
3.5800000000031305, -0.5295644289982955 
3.5900000000031516, -0.5299074972255924 
3.6000000000031727, -0.5301669167034635 
3.6100000000031938, -0.5303186750279606 
3.620000000003215, -0.5303540814512286 
3.630000000003236, -0.5302762914100316 
3.640000000003257, -0.5300940659547316 
3.650000000003278, -0.5298160432812682 
3.6600000000032993, -0.5294468630507806 
3.6700000000033204, -0.5289848693121013 
3.6800000000033415, -0.528420462306382 
3.6900000000033626, -0.5277340379875115 
3.7000000000033837, -0.526892306384571 
3.710000000003405, -0.5258414283937436 
3.720000000003426, -0.5244954940731735 
3.730000000003447, -0.5227220964712459 
3.740000000003468, -0.520338788200404 
3.750000000003489, -0.5171557474635425 
3.7600000000035103, -0.5130995295835706 
3.7700000000035314, -0.5083681225060867 
3.7800000000035525, -0.5034493008215136 
3.7900000000035736, -0.49891431602498965 
3.8000000000035947, -0.49515863468949173 
3.810000000003616, -0.4923050067273646 
3.820000000003637, -0.490273110033132 
3.830000000003658, -0.4888945939297372 
3.840000000003679, -0.487993985931596 
3.8500000000037002, -0.4874247929754299 
3.8600000000037213, -0.4870774119325394 
3.8700000000037424, -0.4868748204339367 
3.8800000000037635, -0.48676500448442345 
3.8900000000037847, -0.4867138939152406 
3.9000000000038058, -0.48669996448265473 
3.910000000003827, -0.4867106169614048 
3.920000000003848, -0.48674008440308103 
3.930000000003869, -0.4867884373382439 
3.94000000000389, -0.4868610109338231 
3.9500000000039113, -0.48696727887718627 
3.9600000000039324, -0.4871181375998844 
3.9700000000039535, -0.4873211564080968 
3.9800000000039746, -0.48757470520786184 
3.9900000000039957, -0.48786343541275345 
4.000000000004016, -0.4881581953164097 
4.010000000003993, -0.48842190630552107 
4.02000000000397, -0.48861933334143287 
4.030000000003946, -0.4887257014906047 
4.040000000003923, -0.48872988166737646 
4.0500000000039, -0.4886318069063149 
4.0600000000038765, -0.4884369602300619 
4.070000000003853, -0.4881509320703679 
4.08000000000383, -0.4877753688147385 
4.090000000003807, -0.487305081343216 
4.100000000003783, -0.4867253250731506 
4.11000000000376, -0.4860079743067815 
4.120000000003737, -0.4851050807164688 
4.130000000003713, -0.4839382491616779 
4.14000000000369, -0.4823838312508526 
4.150000000003667, -0.48026110935004673 
4.1600000000036434, -0.47734807234216825 
4.17000000000362, -0.47346637471200026 
4.180000000003597, -0.4686425317794902 
4.1900000000035735, -0.4632310616282421 
4.20000000000355, -0.45782701163572115 
4.210000000003527, -0.4529933562042389 
4.220000000003504, -0.449045003801323 
4.23000000000348, -0.44603005818647334 
4.240000000003457, -0.4438333422199351 
4.250000000003434, -0.4422835880589423 
4.26000000000341, -0.4412163561945954 
4.270000000003387, -0.44049813176329644 
4.280000000003364, -0.4400294722975547 
4.2900000000033405, -0.4397401073611154 
4.300000000003317, -0.4395824091016527 
4.310000000003294, -0.43952570676990543 
4.320000000003271, -0.4395520953749054 
4.330000000003247, -0.4396536815288271 
4.340000000003224, -0.4398309367372059 
4.350000000003201, -0.44009162660291185 
4.360000000003177, -0.44044950284000317 
4.370000000003154, -0.4409216281597018 
4.380000000003131, -0.44152312815352684 
4.390000000003107, -0.44225882575891956 
4.400000000003084, -0.44311314181057737 
4.410000000003061, -0.4440427271021209 
4.4200000000030375, -0.4449784218688636 
4.430000000003014, -0.4458401756763751 
4.440000000002991, -0.4465594552274374 
4.450000000002968, -0.44709631809572886 
4.460000000002944, -0.44744209991573125 
4.470000000002921, -0.44760983074588767 
4.480000000002898, -0.44762090461335247 
4.490000000002874, -0.44749442772876186 
4.500000000002851, -0.44724072248772584 
4.510000000002828, -0.4468575037698438 
4.520000000002804, -0.44632669850989826 
4.530000000002781, -0.44561052739070933 
4.540000000002758, -0.4446467627188896 
4.5500000000027345, -0.44334556365647926 
4.560000000002711, -0.44159484931060555 
4.570000000002688, -0.43928626458753117 
4.580000000002665, -0.4363703283431006 
4.590000000002641, -0.432923403921473 
4.600000000002618, -0.42917199486826607 
4.610000000002595, -0.425429738932902 
4.620000000002571, -0.42198119698668224 
4.630000000002548, -0.4189986069302889 
4.640000000002525, -0.41653303129853086 
4.6500000000025015, -0.41455339206288083 
4.660000000002478, -0.4129916871995586 
4.670000000002455, -0.41177389236231443 
4.6800000000024315, -0.4108353063271474 
4.690000000002408, -0.41012585035382054 
4.700000000002385, -0.4096105206047739 
4.710000000002362, -0.40926820030112143 
4.720000000002338, -0.4090904384192628 
4.730000000002315, -0.4090808809214067 
4.740000000002292, -0.4092555735317937 
4.750000000002268, -0.4096440679761965 
4.760000000002245, -0.41029090497983917 
4.770000000002222, -0.41125634842571773 
4.7800000000021985, -0.412613916164241 
4.790000000002175, -0.414440223513736 
4.800000000002152, -0.4167909818412432 
4.810000000002129, -0.4196596491566439 
4.820000000002105, -0.42292918658202383 
4.830000000002082, -0.42635234202544564 
4.840000000002059, -0.42960347566921475 
4.850000000002035, -0.4323949105377056 
4.860000000002012, -0.4345774747390809 
4.870000000001989, -0.436153427505651 
4.880000000001965, -0.4372175317921309 
4.890000000001942, -0.4378893538967336 
4.900000000001919, -0.43827336716662746 
4.9100000000018955, -0.43844610725241645 
