t, s[1].omega / s[0].omega 
0, -0.7699976639084966 
0.009999999999999995, -0.7697384157241036 
0.019999999999999934, -0.7694275113353317 
0.029999999999999874, -0.769063468588461 
0.04000000000000012, -0.7686469685430088 
0.050000000000000405, -0.7681834449749025 
0.06000000000000069, -0.7676844774851732 
0.07000000000000098, -0.7671682820574514 
0.08000000000000126, -0.7666601493847218 
0.09000000000000155, -0.7661932445636972 
0.10000000000000184, -0.7658093556099409 
0.11000000000000212, -0.7655585973995815 
0.12000000000000241, -0.765497081049548 
0.130000000000002, -0.765682200798014 
0.1400000000000009, -0.7661661770336584 
0.1499999999999998, -0.7669891891824394 
0.1599999999999987, -0.768173243721011 
0.1699999999999976, -0.7697168822345226 
0.1799999999999965, -0.7715898095489553 
0.1899999999999954, -0.773726836404811 
0.1999999999999943, -0.7760231501524516 
0.2099999999999932, -0.7783370689970511 
0.2199999999999921, -0.7805079351815114 
0.229999999999991, -0.7823897714887807 
0.2399999999999899, -0.7838870540990717 
0.2499999999999888, -0.7849719295824001 
0.2599999999999877, -0.7856741638374793 
0.2699999999999866, -0.7860545301798014 
0.2799999999999855, -0.7861789133247417 
0.2899999999999844, -0.7861026083630686 
0.2999999999999833, -0.7858648015060936 
0.3099999999999822, -0.785489485851144 
0.3199999999999811, -0.7849899274070152 
0.32999999999998, -0.7843761088742487 
0.3399999999999789, -0.7836666986668536 
0.3499999999999778, -0.7829083177875872 
0.35999999999997667, -0.782203899531936 
0.36999999999997557, -0.781745867797884 
0.37999999999997447, -0.7818354708621601 
0.38999999999997337, -0.7828501991810476 
0.39999999999997227, -0.7851194054986032 
0.40999999999997117, -0.7887243375698347 
0.41999999999997006, -0.7933502374252787 
0.42999999999996896, -0.7983558387531295 
0.43999999999996786, -0.8030546960975853 
0.44999999999996676, -0.8069865822903681 
0.45999999999996566, -0.8099957391992222 
0.46999999999996456, -0.8121454368625981 
0.47999999999996346, -0.8135948689102566 
0.48999999999996235, -0.8145136903660312 
0.49999999999996125, -0.8150427234495863 
0.5099999999999602, -0.815283588376458 
0.519999999999959, -0.8153006806310714 
0.529999999999958, -0.8151257790093073 
0.5399999999999568, -0.8147607581489572 
0.5499999999999557, -0.8141765648303961 
0.5599999999999546, -0.8133079509378878 
0.5699999999999535, -0.8120449552306932 
0.5799999999999524, -0.8102256303250162 
0.5899999999999513, -0.807641763390088 
0.5999999999999502, -0.8040785508845923 
0.6099999999999491, -0.7994073164872351 
0.619999999999948, -0.7937138342124077 
0.6299999999999469, -0.7873786552568738 
0.6399999999999458, -0.7810107383351351 
0.6499999999999447, -0.7752418402660144 
0.6599999999999436, -0.7705159703607736 
0.6699999999999425, -0.7669980458820304 
0.6799999999999414, -0.7646119062874744 
0.6899999999999403, -0.7631409972235186 
0.6999999999999392, -0.762326725316493 
0.7099999999999381, -0.7619336262068743 
0.719999999999937, -0.7617784359989668 
0.7299999999999359, -0.7617332307029645 
0.7399999999999348, -0.7617150921066149 
0.7499999999999337, -0.761671765641488 
0.7599999999999326, -0.7615685787251332 
0.7699999999999315, -0.7613787202523985 
0.7799999999999304, -0.7610774472206426 
0.7899999999999293, -0.760640459389706 
0.7999999999999282, -0.760046621267068 
0.8099999999999271, -0.7592843136369218 
0.819999999999926, -0.7583585602724143 
0.8299999999999249, -0.7572942576714258 
0.8399999999999238, -0.7561322299040498 
0.8499999999999227, -0.7549196942417696 
0.8599999999999216, -0.7537006701374643 
0.8699999999999205, -0.7525109879059955 
0.8799999999999194, -0.7513784905464249 
0.8899999999999183, -0.7503260072985996 
0.8999999999999172, -0.749374365412002 
0.9099999999999161, -0.7485439051314996 
0.919999999999915, -0.7478541776457053 
0.9299999999999139, -0.7473222304514551 
0.9399999999999128, -0.7469602524898972 
0.9499999999999117, -0.746773499047272 
0.9599999999999106, -0.7467593043821823 
0.9699999999999095, -0.7469075790586832 
0.9799999999999084, -0.7472026080255472 
0.9899999999999073, -0.7476254692226952 
0.9999999999999062, -0.7481561716468251 
1.0099999999999052, -0.7487746720629316 
1.019999999999904, -0.7494601868060664 
1.029999999999903, -0.7501887183960134 
1.039999999999902, -0.7509296765736692 
1.0499999999999008, -0.751643804935891 
1.0599999999998997, -0.7522852930398167 
1.0699999999998986, -0.7528093211353541 
1.0799999999998975, -0.7531823176481671 
1.0899999999998964, -0.7533892321934947 
1.0999999999998953, -0.7534338120851061 
1.1099999999998942, -0.7533329302398646 
1.119999999999893, -0.7531094100687834 
1.129999999999892, -0.7527872864188823 
1.1399999999998909, -0.7523911580877333 
1.1499999999998898, -0.7519497472633577 
1.1599999999998887, -0.7515034598929556 
1.1699999999998876, -0.7511157712299915 
1.1799999999998865, -0.7508875881985135 
1.1899999999998854, -0.7509715770418525 
1.1999999999998843, -0.7515795636653073 
1.2099999999998832, -0.7529714524355345 
1.219999999999882, -0.7554115782958889 
1.229999999999881, -0.7590836162172012 
1.2399999999998799, -0.7639759504723194 
1.2499999999998788, -0.7697884240580918 
1.2599999999998777, -0.7759444497106609 
1.2699999999998766, -0.7817583278794513 
1.2799999999998755, -0.786683245330036 
1.2899999999998744, -0.7904723584856161 
1.2999999999998733, -0.7931627543454033 
1.3099999999998722, -0.7949486428930572 
1.319999999999871, -0.7960579456736853 
1.32999999999987, -0.7966847368320813 
1.3399999999998689, -0.7969694046146052 
1.3499999999998678, -0.7970019785092336 
1.3599999999998666, -0.7968313597976303 
1.3699999999998655, -0.7964726471828791 
1.3799999999998644, -0.7959100485419284 
1.3899999999998633, -0.7950949565063532 
1.3999999999998622, -0.7939396996383045 
1.4099999999998611, -0.7923090809928542 
1.41999999999986, -0.7900160300221539 
1.429999999999859, -0.7868362833262996 
1.4399999999998578, -0.7825673954600607 
1.4499999999998567, -0.7771522028133758 
1.4599999999998556, -0.7708331991082958 
1.4699999999998545, -0.7642110765844353 
1.4799999999998534, -0.7580784573074615 
1.4899999999998523, -0.7530933853464836 
1.4999999999998512, -0.7495390756746355 
1.5099999999998501, -0.7473215968449488 
1.519999999999849, -0.7461311095895914 
1.529999999999848, -0.7456142970374752 
1.5399999999998468, -0.7454763183345572 
1.5499999999998457, -0.7455115093946476 
1.5599999999998446, -0.745593285836877 
1.5699999999998435, -0.7456503663109862 
1.5799999999998424, -0.74564385718558 
1.5899999999998413, -0.7455500406909291 
1.5999999999998402, -0.7453489668097475 
1.6099999999998391, -0.7450176975163351 
1.619999999999838, -0.7445275895121305 
1.629999999999837, -0.7438460965328424 
1.6399999999998358, -0.7429440222135931 
1.6499999999998347, -0.7418075400855213 
1.6599999999998336, -0.7404503178284896 
1.6699999999998325, -0.7389179624630076 
1.6799999999998314, -0.7372799800235458 
1.6899999999998303, -0.7356130935257995 
1.6999999999998292, -0.7339856030186487 
1.709999999999828, -0.7324497352498247 
1.719999999999827, -0.7310419905972304 
1.729999999999826, -0.7297873509488926 
1.7399999999998248, -0.7287034129505895 
1.7499999999998237, -0.7278025979595049 
1.7599999999998226, -0.7270923901634873 
1.7699999999998215, -0.7265744650601286 
1.7799999999998204, -0.7262437837262435 
1.7899999999998193, -0.7260885014889462 
1.7999999999998182, -0.7260910520788277 
1.809999999999817, -0.7262302182465896 
1.819999999999816, -0.7264836099373305 
1.8299999999998149, -0.7268298668051992 
1.8399999999998138, -0.7272500188077513 
1.8499999999998127, -0.72772759766991 
1.8599999999998116, -0.7282472184951669 
1.8699999999998105, -0.7287916498776472 
1.8799999999998094, -0.7293382015275715 
1.8899999999998083, -0.7298564677864893 
1.8999999999998072, -0.7303099761203622 
1.909999999999806, -0.7306626493802663 
1.919999999999805, -0.730887484373569 
1.9299999999998039, -0.7309725636942076 
1.9399999999998028, -0.730921265238919 
1.9499999999998017, -0.7307477785318676 
1.9599999999998006, -0.7304716458905457 
1.9699999999997995, -0.7301145219915648 
1.9799999999997984, -0.7297005277251174 
1.9899999999997973, -0.7292603787434037 
1.9999999999997962, -0.7288391657570534 
2.0099999999998173, -0.7285075122847249 
2.0199999999998384, -0.7283749780340802 
2.0299999999998595, -0.7286023963646655 
2.0399999999998806, -0.7294061942619237 
2.0499999999999017, -0.7310434585256487 
2.059999999999923, -0.7337642193526097 
2.069999999999944, -0.7377229522076593 
2.079999999999965, -0.7428637708266103 
2.089999999999986, -0.7488359646618166 
2.100000000000007, -0.7550277796135052 
2.1100000000000283, -0.7607573674223623 
2.1200000000000494, -0.7655221851346521 
2.1300000000000705, -0.769133104165888 
2.1400000000000916, -0.7716686829500901 
2.1500000000001127, -0.7733390849158217 
2.160000000000134, -0.774370395930011 
2.170000000000155, -0.7749477782739166 
2.180000000000176, -0.7752021531813269 
2.190000000000197, -0.7752158367563166 
2.2000000000002182, -0.7750318321871024 
2.2100000000002393, -0.7746603640069428 
2.2200000000002604, -0.7740807062123216 
2.2300000000002815, -0.7732379730969896 
2.2400000000003026, -0.772035384792752 
2.2500000000003237, -0.7703244941981328 
2.260000000000345, -0.7679011999892392 
2.270000000000366, -0.7645256292554539 
2.280000000000387, -0.759993687653488 
2.290000000000408, -0.754273556190413 
2.3000000000004293, -0.7476518864058137 
2.3100000000004504, -0.7407526899535052 
2.3200000000004715, -0.7343405468741836 
2.3300000000004926, -0.729021388212194 
2.3400000000005137, -0.7250588224619949 
2.3500000000005348, -0.7223914387788624 
2.360000000000556, -0.7207673946263875 
2.370000000000577, -0.7198820110921438 
2.380000000000598, -0.7194635966404743 
2.390000000000619, -0.7193066183500553 
2.4000000000006403, -0.7192716769566123 
2.4100000000006614, -0.7192710407418293 
2.4200000000006825, -0.7192514229267986 
2.4300000000007036, -0.7191793258608897 
2.4400000000007247, -0.7190304803174012 
2.450000000000746, -0.7187833689448242 
2.460000000000767, -0.7184166538789358 
2.470000000000788, -0.7179105712425362 
2.480000000000809, -0.7172520148575361 
2.49000000000083, -0.7164414258528241 
2.5000000000008513, -0.7154974708473331 
2.5100000000008724, -0.7144554348316665 
2.5200000000008935, -0.7133590184360392 
2.5300000000009146, -0.7122500708404436 
2.5400000000009357, -0.7111618327483564 
2.550000000000957, -0.7101178877248433 
2.560000000000978, -0.7091351622948032 
2.570000000000999, -0.7082280101344489 
2.58000000000102, -0.7074113178721297 
2.5900000000010412, -0.7067019397952522 
2.6000000000010624, -0.7061185923030208 
2.6100000000010835, -0.7056806163821153 
2.6200000000011046, -0.7054060979812534 
2.6300000000011257, -0.7053099058161292 
2.6400000000011468, -0.7054022112189786 
2.650000000001168, -0.7056878781691475 
2.660000000001189, -0.7061667338203228 
2.67000000000121, -0.7068342575842096 
2.680000000001231, -0.7076818187273394 
2.6900000000012523, -0.708695406839575 
2.7000000000012734, -0.709852062778161 
2.7100000000012945, -0.7111143065842824 
2.7200000000013156, -0.7124250175785173 
2.7300000000013367, -0.7137075918898796 
2.740000000001358, -0.7148759883273212 
2.750000000001379, -0.7158537306626439 
2.7600000000014, -0.716592778389228 
2.770000000001421, -0.7170811799126221 
2.780000000001442, -0.7173364300693683 
2.7900000000014633, -0.7173911450931205 
2.8000000000014844, -0.7172797915298738 
2.8100000000015055, -0.7170308945093459 
2.8200000000015266, -0.7166647406593495 
2.8300000000015477, -0.7161950882788978 
2.840000000001569, -0.7156340414927322 
2.85000000000159, -0.7150005357355658 
2.860000000001611, -0.7143338331977023 
2.870000000001632, -0.7137130876484147 
2.8800000000016532, -0.7132806983051496 
2.8900000000016743, -0.7132584873597648 
2.9000000000016954, -0.7139319641752573 
2.9100000000017165, -0.7155707548064263 
2.9200000000017377, -0.7182824161103167 
2.9300000000017588, -0.7218793719197474 
2.94000000000178, -0.7258971811140541 
2.950000000001801, -0.7297967886083991 
2.960000000001822, -0.7331874926667529 
2.970000000001843, -0.7359044448908353 
2.9800000000018643, -0.7379535285974613 
2.9900000000018854, -0.7394248878939133 
3.0000000000019065, -0.7404317039937203 
3.0100000000019276, -0.7410787362351535 
3.0200000000019487, -0.7414497549948034 
3.03000000000197, -0.7416045174876087 
3.040000000001991, -0.7415795052063932 
3.050000000002012, -0.7413891499918948 
3.060000000002033, -0.7410258668235248 
3.070000000002054, -0.7404583472974364 
3.0800000000020753, -0.739628844548055 
3.0900000000020964, -0.7384523300346081 
3.1000000000021175, -0.7368236957344749 
3.1100000000021386, -0.7346415720190426 
3.1200000000021597, -0.7318525320825489 
3.130000000002181, -0.7285016127495076 
3.140000000002202, -0.7247548908467654 
3.150000000002223, -0.72086713821388 
3.160000000002244, -0.7171088657652731 
3.1700000000022652, -0.713698114446459 
3.1800000000022863, -0.7107687886018627 
3.1900000000023074, -0.7083739093800895 
3.2000000000023285, -0.7065055083869353 
3.2100000000023496, -0.7051163132607062 
3.2200000000023707, -0.7041372939796053 
3.230000000002392, -0.703490603981778 
3.240000000002413, -0.7030988986702406 
3.250000000002434, -0.7028916826259735 
3.260000000002455, -0.7028089243786452 
3.2700000000024763, -0.7028022290028763 
3.2800000000024974, -0.7028341960944704 
3.2900000000025185, -0.7028768641320109 
3.3000000000025396, -0.7029101368857302 
3.3100000000025607, -0.70292074540283 
3.3200000000025818, -0.7029016679224406 
3.330000000002603, -0.7028512549758614 
3.340000000002624, -0.702771137766556 
3.350000000002645, -0.7026628326098309 
3.360000000002666, -0.7025244186597672 
3.3700000000026873, -0.7023493792373213 
3.3800000000027084, -0.7021286146631294 
3.3900000000027295, -0.7018544761617712 
3.4000000000027506, -0.7015244250596852 
3.4100000000027717, -0.7011427110684519 
3.420000000002793, -0.7007203245232653 
3.430000000002814, -0.7002746603515413 
3.440000000002835, -0.6998302218190925 
3.450000000002856, -0.699420894122558 
3.460000000002877, -0.6990935179905188 
3.4700000000028983, -0.6989118891312212 
3.4800000000029194, -0.6989598337406497 
3.4900000000029405, -0.699341641007536 
3.5000000000029616, -0.7001779118060282 
3.5100000000029827, -0.7015947529925063 
3.520000000003004, -0.7037040826069861 
3.530000000003025, -0.7065730281417489 
3.540000000003046, -0.7101830791268189 
3.550000000003067, -0.7143885769615184 
3.5600000000030882, -0.7188997837576142 
3.5700000000031094, -0.7233242382244349 
3.5800000000031305, -0.727274046985093 
3.5900000000031516, -0.7304875620419454 
3.6000000000031727, -0.7328865879619896 
3.6100000000031938, -0.7345431018346792 
3.620000000003215, -0.7356010685746288 
3.630000000003236, -0.7362098121165809 
3.640000000003257, -0.7364900876813236 
3.650000000003278, -0.7365253300244822 
3.6600000000032993, -0.7363642743171567 
3.6700000000033204, -0.7360256721085623 
3.6800000000033415, -0.7355008516307091 
3.6900000000033626, -0.7347526293203519 
3.7000000000033837, -0.7337102829759826 
3.710000000003405, -0.7322613595714574 
3.720000000003426, -0.730243721430358 
3.730000000003447, -0.7274476857771057 
3.740000000003468, -0.7236493484134139 
3.750000000003489, -0.7187031373037549 
3.7600000000035103, -0.712693122060981 
3.7700000000035314, -0.7060537394337469 
3.7800000000035525, -0.6995058431227582 
3.7900000000035736, -0.6937790278526769 
3.8000000000035947, -0.6893216390058547 
3.810000000003616, -0.6862092158567352 
3.820000000003637, -0.6842479755198547 
3.830000000003658, -0.6831358768658972 
3.840000000003679, -0.6825801152261214 
3.8500000000037002, -0.6823501088796948 
3.8600000000037213, -0.6822857250695473 
3.8700000000037424, -0.6822847772893708 
3.8800000000037635, -0.682285309538585 
3.8900000000037847, -0.6822498127396642 
3.9000000000038058, -0.6821535269432102 
3.910000000003827, -0.6819768589132102 
3.920000000003848, -0.6817015093000681 
3.930000000003869, -0.6813101479729483 
3.94000000000389, -0.6807895247048761 
3.9500000000039113, -0.6801360045066225 
3.9600000000039324, -0.6793606910288019 
3.9700000000039535, -0.6784902166452356 
3.9800000000039746, -0.6775612259420716 
3.9900000000039957, -0.6766110262953005 
4.000000000004016, -0.6756696819473149 
4.010000000003993, -0.6747572183253596 
4.02000000000397, -0.6738857180033592 
4.030000000003946, -0.6730636561867558 
4.040000000003923, -0.6722999618530514 
4.0500000000039, -0.6716066759021374 
4.0600000000038765, -0.6710002046784372 
4.070000000003853, -0.6705015434580042 
4.08000000000383, -0.6701357597816139 
4.090000000003807, -0.669930897235605 
4.100000000003783, -0.6699164674353083 
4.11000000000376, -0.6701217814463296 
4.120000000003737, -0.670574366011069 
4.130000000003713, -0.6712984753367678 
4.14000000000369, -0.6723132179164997 
4.150000000003667, -0.6736292025072057 
4.1600000000036434, -0.6752422357707404 
4.17000000000362, -0.6771232151092074 
4.180000000003597, -0.6792059975380859 
4.1900000000035735, -0.6813799363479195 
4.20000000000355, -0.6834977734641638 
4.210000000003527, -0.6854051931238957 
4.220000000003504, -0.6869823037992278 
4.23000000000348, -0.6881730655404075 
4.240000000003457, -0.6889855712239648 
4.250000000003434, -0.6894688082544598 
4.26000000000341, -0.689684605982315 
4.270000000003387, -0.6896880309010535 
4.280000000003364, -0.6895183399005504 
4.2900000000033405, -0.6891967164922262 
4.300000000003317, -0.6887266734564312 
4.310000000003294, -0.6880946559561399 
4.320000000003271, -0.6872698906400816 
4.330000000003247, -0.6862034579522047 
4.340000000003224, -0.684827105415481 
4.350000000003201, -0.6830528343858981 
4.360000000003177, -0.6807758442770457 
4.370000000003154, -0.6778887990683964 
4.380000000003131, -0.6743259021209089 
4.390000000003107, -0.6701536017737663 
4.400000000003084, -0.6656682270516356 
4.410000000003061, -0.661375283966219 
4.4200000000030375, -0.65778489949925 
4.430000000003014, -0.6551768192247328 
4.440000000002991, -0.6535356527758598 
4.450000000002968, -0.6526557149830928 
4.460000000002944, -0.6522812982167392 
4.470000000002921, -0.6521937052665729 
4.480000000002898, -0.6522385352967972 
4.490000000002874, -0.6523194177166445 
4.500000000002851, -0.6523809541742346 
4.510000000002828, -0.6523922520796664 
4.520000000002804, -0.6523345982093944 
4.530000000002781, -0.6521933765664782 
4.540000000002758, -0.6519535161558462 
4.5500000000027345, -0.6515980860844758 
4.560000000002711, -0.6511101845071161 
4.570000000002688, -0.6504781665594734 
4.580000000002665, -0.6497028349159526 
4.590000000002641, -0.6488028982818981 
4.600000000002618, -0.647814234439837 
4.610000000002595, -0.6467817224001988 
4.620000000002571, -0.6457478065762396 
4.630000000002548, -0.644744154780117 
4.640000000002525, -0.6437897532711649 
4.6500000000025015, -0.6428942300659869 
4.660000000002478, -0.642063090718253 
4.670000000002455, -0.6413022460294406 
4.6800000000024315, -0.6406208752876945 
4.690000000002408, -0.6400328200060504 
4.700000000002385, -0.6395570232356425 
4.710000000002362, -0.6392173874791471 
4.720000000002338, -0.6390422312184361 
4.730000000002315, -0.6390634495380787 
4.740000000002292, -0.6393154839807542 
4.750000000002268, -0.6398341418099126 
4.760000000002245, -0.6406550384659448 
4.770000000002222, -0.6418109041843025 
4.7800000000021985, -0.6433262921821516 
4.790000000002175, -0.6452077921681545 
4.800000000002152, -0.6474287585954873 
4.810000000002129, -0.6499114323751032 
4.820000000002105, -0.6525165403993183 
4.830000000002082, -0.655055824494178 
4.840000000002059, -0.6573349621993234 
4.850000000002035, -0.6592098965373594 
4.860000000002012, -0.6606218757527638 
4.870000000001989, -0.6615916503696024 
4.880000000001965, -0.662185872394405 
4.890000000001942, -0.6624818474754842 
4.900000000001919, -0.6625454220519102 
4.9100000000018955, -0.6624220403672996 
4.920000000001872, -0.6621350579343549 
