t, s[1].omega / s[0].omega 
0, -0.32999779478918584 
0.009999999999999995, -0.32980691697141534 
0.019999999999999934, -0.329667950191995 
0.029999999999999874, -0.3295627394466904 
0.04000000000000012, -0.32946715344427585 
0.050000000000000405, -0.3293574329743753 
0.06000000000000069, -0.3292148575383083 
0.07000000000000098, -0.32902722275332974 
0.08000000000000126, -0.3287874234585363 
0.09000000000000155, -0.32849047546001314 
0.10000000000000184, -0.3281301312035804 
0.11000000000000212, -0.327695448707324 
0.12000000000000241, -0.3271669375874149 
0.130000000000002, -0.3265115163684066 
0.1400000000000009, -0.32567566655946817 
0.1499999999999998, -0.3245775672008434 
0.1599999999999987, -0.32310322831188476 
0.1699999999999976, -0.32111969315249966 
0.1799999999999965, -0.31852380306763944 
0.1899999999999954, -0.31532632885508816 
0.1999999999999943, -0.311716843026023 
0.2099999999999932, -0.30802704834011896 
0.2199999999999921, -0.3045943836117282 
0.229999999999991, -0.3016368582790789 
0.2399999999999899, -0.29922328488114347 
0.2499999999999888, -0.29731786856953735 
0.2599999999999877, -0.29583889807334773 
0.2699999999999866, -0.2946987737483991 
0.2799999999999855, -0.29382279178126297 
0.2899999999999844, -0.2931547217845749 
0.2999999999999833, -0.29265650680186495 
0.3099999999999822, -0.2923063313185088 
0.3199999999999811, -0.2920970427160687 
0.32999999999998, -0.29203573856631476 
0.3399999999999789, -0.2921448158491806 
0.3499999999999778, -0.2924644929888088 
0.35999999999997667, -0.29305636738543156 
0.36999999999997557, -0.2940064375428354 
0.37999999999997447, -0.2954234293834212 
0.38999999999997337, -0.2974236317411231 
0.39999999999997227, -0.3000887922386295 
0.40999999999997117, -0.3033894010714934 
0.41999999999997006, -0.30710155611397016 
0.42999999999996896, -0.3108046780072589 
0.43999999999996786, -0.3140348380171536 
0.44999999999996676, -0.31650658776549756 
0.45999999999996566, -0.3182022031630893 
0.46999999999996456, -0.31927916810941653 
0.47999999999996346, -0.3199318726159876 
0.48999999999996235, -0.3203151852988716 
0.49999999999996125, -0.32053070780665077 
0.5099999999999602, -0.32063916686486593 
0.519999999999959, -0.320675570811788 
0.529999999999958, -0.3206600772003989 
0.5399999999999568, -0.32060463735885 
0.5499999999999557, -0.3205170297588157 
0.5599999999999546, -0.3204036424887212 
0.5699999999999535, -0.32027179506451425 
0.5799999999999524, -0.32013179545085013 
0.5899999999999513, -0.319998324467024 
0.5999999999999502, -0.31989029027806765 
0.6099999999999491, -0.3198283572028872 
0.619999999999948, -0.3198301286395463 
0.6299999999999469, -0.3199041484472237 
0.6399999999999458, -0.3200448840717784 
0.6499999999999447, -0.32023120840584585 
0.6599999999999436, -0.3204300991790365 
0.6699999999999425, -0.32060487397959064 
0.6799999999999414, -0.32072432062634426 
0.6899999999999403, -0.3207682891286586 
0.6999999999999392, -0.32072781915140147 
0.7099999999999381, -0.32060122819432063 
0.719999999999937, -0.3203888714224384 
0.7299999999999359, -0.3200883801947362 
0.7399999999999348, -0.3196907444232905 
0.7499999999999337, -0.3191767876115722 
0.7599999999999326, -0.31851363068984717 
0.7699999999999315, -0.3176516960326297 
0.7799999999999304, -0.3165249572352789 
0.7899999999999293, -0.31506035250761677 
0.7999999999999282, -0.3132035897344552 
0.8099999999999271, -0.3109603342506325 
0.819999999999926, -0.30843022986178953 
0.8299999999999249, -0.3057973278121719 
0.8399999999999238, -0.3032683695889903 
0.8499999999999227, -0.30100091187660427 
0.8599999999999216, -0.299069764421495 
0.8699999999999205, -0.29747803982430787 
0.8799999999999194, -0.2961875693128818 
0.8899999999999183, -0.2951461021340641 
0.8999999999999172, -0.29430372641262237 
0.9099999999999161, -0.2936202019595673 
0.919999999999915, -0.29306707921728087 
0.9299999999999139, -0.2926276613285536 
0.9399999999999128, -0.2922966401356142 
0.9499999999999117, -0.29208038281325843 
0.9599999999999106, -0.2919983735114042 
0.9699999999999095, -0.29208601707403725 
0.9799999999999084, -0.2923985706298708 
0.9899999999999073, -0.2930148378998291 
0.9999999999999062, -0.29403650296998857 
1.0099999999999052, -0.29557358320081595 
1.019999999999904, -0.2977000076062286 
1.029999999999903, -0.3003677508731962 
1.039999999999902, -0.30331081952860417 
1.0499999999999008, -0.30605161578895973 
1.0599999999998997, -0.3081119364937758 
1.0699999999998986, -0.3092956128080034 
1.0799999999998975, -0.3097483858851974 
1.0899999999998964, -0.3097670950217282 
1.0999999999998953, -0.30960368732742627 
1.1099999999998942, -0.309401805094197 
1.119999999999893, -0.30922087429980694 
1.129999999999892, -0.30907591372644516 
1.1399999999998909, -0.3089644793543961 
1.1499999999998898, -0.30887993518784823 
1.1599999999998887, -0.3088167532283124 
1.1699999999998876, -0.30877228223290126 
1.1799999999998865, -0.30874734735666387 
1.1899999999998854, -0.3087467088517929 
1.1999999999998843, -0.3087796711756249 
1.2099999999998832, -0.3088606498470111 
1.219999999999882, -0.3090090905259841 
1.229999999999881, -0.3092478194767799 
1.2399999999998799, -0.309598872173937 
1.2499999999998788, -0.31007636240736214 
1.2599999999998777, -0.31067734023583593 
1.2699999999998766, -0.31137398369810854 
1.2799999999998755, -0.3121127150418873 
1.2899999999998744, -0.3128245714548744 
1.2999999999998733, -0.3134441737253456 
1.3099999999998722, -0.3139270210439004 
1.319999999999871, -0.3142556270719229 
1.32999999999987, -0.31443394531824753 
1.3399999999998689, -0.3144766102571111 
1.3499999999998678, -0.3143992941073695 
1.3599999999998666, -0.31421255438735324 
1.3699999999998655, -0.31391865717484285 
1.3799999999998644, -0.3135101693350235 
1.3899999999998633, -0.31296976560290946 
1.3999999999998622, -0.31227188217428303 
1.4099999999998611, -0.3113880513922357 
1.41999999999986, -0.3102979580148476 
1.429999999999859, -0.30900552380384466 
1.4399999999998578, -0.3075529092953718 
1.4499999999998567, -0.30602042662441675 
1.4599999999998556, -0.30450651163714626 
1.4699999999998545, -0.3030978536907348 
1.4799999999998534, -0.301848013113009 
1.4899999999998523, -0.300773742934742 
1.4999999999998512, -0.29986441458814395 
1.5099999999998501, -0.29909514684195565 
1.519999999999849, -0.2984374736130747 
1.529999999999848, -0.29786580789028244 
1.5399999999998468, -0.2973603823750323 
1.5499999999998457, -0.2969080318791198 
1.5599999999998446, -0.2965020527953752 
1.5699999999998435, -0.29614199029566723 
1.5799999999998424, -0.295833798432 
1.5899999999998413, -0.29559041969592864 
1.5999999999998402, -0.29543227312054104 
1.6099999999998391, -0.29538602945725306 
1.619999999999838, -0.2954778028674883 
1.629999999999837, -0.29571339583526496 
1.6399999999998358, -0.29603679374593433 
1.6499999999998347, -0.2962715540968462 
1.6599999999998336, -0.29609675851111394 
1.6699999999998325, -0.295158872635206 
1.6799999999998314, -0.2933291680612625 
1.6899999999998303, -0.2908656529241473 
1.6999999999998292, -0.2882539293893072 
1.709999999999828, -0.28590369981527747 
1.719999999999827, -0.28400421880760507 
1.729999999999826, -0.2825663986063171 
1.7399999999998248, -0.28151779939237087 
1.7499999999998237, -0.2807689849296732 
1.7599999999998226, -0.28024287975710555 
1.7699999999998215, -0.2798824421009841 
1.7799999999998204, -0.27964957247944794 
1.7899999999998193, -0.27952185088436365 
1.7999999999998182, -0.27948967951660464 
1.809999999999817, -0.279554568941416 
1.819999999999816, -0.27972857504436943 
1.8299999999998149, -0.2800345415170713 
1.8399999999998138, -0.2805064214571646 
1.8499999999998127, -0.2811883030312549 
1.8599999999998116, -0.2821297586062504 
1.8699999999998105, -0.28337413576426057 
1.8799999999998094, -0.2849370351430607 
1.8899999999998083, -0.28677790145028753 
1.8999999999998072, -0.28878018833618324 
1.909999999999806, -0.29076491202809923 
1.919999999999805, -0.2925462187986138 
1.9299999999998039, -0.2939972957614 
1.9399999999998028, -0.29507963265207937 
1.9499999999998017, -0.29582460341625916 
1.9599999999998006, -0.29629520410833343 
1.9699999999997995, -0.29655592159007643 
1.9799999999997984, -0.29665854937579395 
1.9899999999997973, -0.29663915235153576 
1.9999999999997962, -0.296519946360929 
2.0099999999998173, -0.29631254196244394 
2.0199999999998384, -0.29602141670033955 
2.0299999999998595, -0.2956477335153698 
2.0399999999998806, -0.29519388942794456 
2.0499999999999017, -0.29466856219365084 
2.059999999999923, -0.29409072772759554 
2.069999999999944, -0.29349012731505153 
2.079999999999965, -0.2929025458116095 
2.089999999999986, -0.2923612507141224 
2.100000000000007, -0.29188859353078406 
2.1100000000000283, -0.29149151152275843 
2.1200000000000494, -0.2911620968396878 
2.1300000000000705, -0.29088202784688977 
2.1400000000000916, -0.2906286286567971 
2.1500000000001127, -0.2903802970127844 
2.160000000000134, -0.29011971495141353 
2.170000000000155, -0.28983442565968315 
2.180000000000176, -0.289515403711324 
2.190000000000197, -0.28915457315768467 
2.2000000000002182, -0.28874185917126216 
2.2100000000002393, -0.2882617144491714 
2.2200000000002604, -0.2876884771934076 
2.2300000000002815, -0.28697958650810607 
2.2400000000003026, -0.2860660848338888 
2.2500000000003237, -0.28484246619354536 
2.260000000000345, -0.28316540622681774 
2.270000000000366, -0.2808827354618371 
2.280000000000387, -0.27791351105346923 
2.290000000000408, -0.2743535846525614 
2.3000000000004293, -0.27050735097274015 
2.3100000000004504, -0.26677348732680023 
2.3200000000004715, -0.2634689248607812 
2.3300000000004926, -0.26073808253895014 
2.3400000000005137, -0.2585777325451703 
2.3500000000005348, -0.256907696732235 
2.360000000000556, -0.25562820500226235 
2.370000000000577, -0.25464960198247555 
2.380000000000598, -0.2539024571228882 
2.390000000000619, -0.2533382853544905 
2.4000000000006403, -0.2529272382722699 
2.4100000000006614, -0.2526557864013864 
2.4200000000006825, -0.25252561410460717 
2.4300000000007036, -0.2525541789309237 
2.4400000000007247, -0.25277706182738224 
2.450000000000746, -0.25325187215432826 
2.460000000000767, -0.25406249002285775 
2.470000000000788, -0.25531988349128804 
2.480000000000809, -0.25715045410325893 
2.49000000000083, -0.2596556310094305 
2.5000000000008513, -0.26282741894023054 
2.5100000000008724, -0.26644095643929877 
2.5200000000008935, -0.2700272685928662 
2.5300000000009146, -0.27304721414956656 
2.5400000000009357, -0.2751833120646374 
2.550000000000957, -0.27646365346570134 
2.560000000000978, -0.2771260561496931 
2.570000000000999, -0.2774240485342549 
2.58000000000102, -0.27753466451973674 
2.5900000000010412, -0.27755683739861486 
2.6000000000010624, -0.27753899563922635 
2.6100000000010835, -0.27750321086894403 
2.6200000000011046, -0.2774596272423949 
2.6300000000011257, -0.27741385550255304 
2.6400000000011468, -0.27737065355004253 
2.650000000001168, -0.27733600958000887 
2.660000000001189, -0.27731868065401855 
2.67000000000121, -0.2773315137727209 
2.680000000001231, -0.2773923257128952 
2.6900000000012523, -0.27752367250683707 
2.7000000000012734, -0.277750595039996 
2.7100000000012945, -0.2780955609181717 
2.7200000000013156, -0.278570536056536 
2.7300000000013367, -0.27916771022160775 
2.740000000001358, -0.2798529016100944 
2.750000000001379, -0.2805674037570557 
2.7600000000014, -0.2812413061673453 
2.770000000001421, -0.28181326433897275 
2.780000000001442, -0.28224553066796937 
2.7900000000014633, -0.28252666895586553 
2.8000000000014844, -0.2826639215887303 
2.8100000000015055, -0.282672390294481 
2.8200000000015266, -0.2825663843574431 
2.8300000000015477, -0.2823543347975682 
2.840000000001569, -0.2820364436824375 
2.85000000000159, -0.28160405592627347 
2.860000000001611, -0.2810405973834077 
2.870000000001632, -0.28032502436747697 
2.8800000000016532, -0.2794393396526484 
2.8900000000016743, -0.27838056806800837 
2.9000000000016954, -0.2771735061552471 
2.9100000000017165, -0.27587564015847577 
2.9200000000017377, -0.2745666748253464 
2.9300000000017588, -0.27332566573947487 
2.94000000000178, -0.27220922333141645 
2.950000000001801, -0.27124231651388664 
2.960000000001822, -0.27042225545635085 
2.970000000001843, -0.26972908915933724 
2.9800000000018643, -0.26913596237328935 
2.9900000000018854, -0.268616419711187 
3.0000000000019065, -0.2681482851337814 
3.0100000000019276, -0.2677149116207013 
3.0200000000019487, -0.2673048615478081 
3.03000000000197, -0.26691089565477266 
3.040000000001991, -0.26652875129164505 
3.050000000002012, -0.26615569547247186 
3.060000000002033, -0.26578821550968035 
3.070000000002054, -0.26541726620557754 
3.0800000000020753, -0.26501804434299425 
3.0900000000020964, -0.2645299456129543 
3.1000000000021175, -0.26382502968346755 
3.1100000000021386, -0.26268010914425644 
3.1200000000021597, -0.26080524958139284 
3.130000000002181, -0.2579953637202099 
3.140000000002202, -0.254350907377599 
3.150000000002223, -0.2503258800707729 
3.160000000002244, -0.2464835023460302 
3.1700000000022652, -0.2432068604561281 
3.1800000000022863, -0.24061691152786083 
3.1900000000023074, -0.23865879188421632 
3.2000000000023285, -0.2372110066770678 
3.2100000000023496, -0.2361509597027232 
3.2200000000023707, -0.23538003134309693 
3.230000000002392, -0.23482766049146261 
3.240000000002413, -0.23444800042071484 
3.250000000002434, -0.23421549783779788 
3.260000000002455, -0.23412170675757166 
3.2700000000024763, -0.23417396112384026 
3.2800000000024974, -0.23439594096167432 
3.2900000000025185, -0.23482988189530363 
3.3000000000025396, -0.2355396498094736 
3.3100000000025607, -0.23661252033154834 
3.3200000000025818, -0.23815448556095936 
3.330000000002603, -0.24026910175788302 
3.340000000002624, -0.24300714810360896 
3.350000000002645, -0.24628736424103895 
3.360000000002666, -0.24983361396390097 
3.3700000000026873, -0.25321953408555065 
3.3800000000027084, -0.256049953899029 
3.3900000000027295, -0.2581411917915938 
3.4000000000027506, -0.25954044745370375 
3.4100000000027717, -0.2604129393693454 
3.420000000002793, -0.26093027086717047 
3.430000000002814, -0.2612217005684253 
3.440000000002835, -0.26137102790878985 
3.450000000002856, -0.26142895255382975 
3.460000000002877, -0.26142555633014397 
3.4700000000028983, -0.26137910433952394 
3.4800000000029194, -0.26130170185697854 
3.4900000000029405, -0.2612030970895646 
3.5000000000029616, -0.2610935718417999 
3.5100000000029827, -0.2609862776091991 
3.520000000003004, -0.2608987672153068 
3.530000000003025, -0.2608530105842556 
3.540000000003046, -0.2608731342808993 
3.550000000003067, -0.2609806356309154 
3.5600000000030882, -0.2611877333719829 
3.5700000000031094, -0.26149060899698107 
3.5800000000031305, -0.261865445566343 
3.5900000000031516, -0.26227058111502255 
3.6000000000031727, -0.2626559732743894 
3.6100000000031938, -0.26297640932447786 
3.620000000003215, -0.26320159056751885 
3.630000000003236, -0.26331845808715265 
3.640000000003257, -0.2633266902958219 
3.650000000003278, -0.26323155729872527 
3.6600000000032993, -0.26303756463193667 
3.6700000000033204, -0.2627440572847449 
3.6800000000033415, -0.2623425264771761 
3.6900000000033626, -0.2618152546768017 
3.7000000000033837, -0.2611357560887184 
3.710000000003405, -0.26027272866440676 
3.720000000003426, -0.2591999822090511 
3.730000000003447, -0.25791294206724424 
3.740000000003468, -0.2564459386201322 
3.750000000003489, -0.25487721314506645 
3.7600000000035103, -0.253311543965103 
3.7700000000035314, -0.2518475193169897 
3.7800000000035525, -0.2505501948637152 
3.7900000000035736, -0.24944318622322012 
3.8000000000035947, -0.24851740818909582 
3.810000000003616, -0.24774565118430317 
3.820000000003637, -0.24709504055721512 
3.830000000003658, -0.24653481101591543 
3.840000000003679, -0.24603992687583073 
3.8500000000037002, -0.24559196394109556 
3.8600000000037213, -0.24517856212573172 
3.8700000000037424, -0.2447923466521023 
3.8800000000037635, -0.24442973108331117 
3.8900000000037847, -0.24408948851420895 
3.9000000000038058, -0.2437702858625949 
3.910000000003827, -0.2434652478145937 
3.920000000003848, -0.24314984184281335 
3.930000000003869, -0.2427578736189032 
3.94000000000389, -0.2421443339925148 
3.9500000000039113, -0.24105601864519946 
3.9600000000039324, -0.2391759796407454 
3.9700000000039535, -0.236310370788185 
3.9800000000039746, -0.23262155702486265 
3.9900000000039957, -0.22862575615442998 
4.000000000004016, -0.22489300103774798 
4.010000000003993, -0.22176759361350565 
4.02000000000397, -0.21932878824861338 
4.030000000003946, -0.2174988795767597 
4.040000000003923, -0.21615060797542124 
4.0500000000039, -0.2151644611457467 
4.0600000000038765, -0.21444782821087416 
4.070000000003853, -0.21393635667203129 
4.08000000000383, -0.21358982765641085 
4.090000000003807, -0.21338785820793665 
4.100000000003783, -0.21332722313018784 
4.11000000000376, -0.21342123167433308 
4.120000000003737, -0.21370114357023778 
4.130000000003713, -0.21421930138888334 
4.14000000000369, -0.21505287568387685 
4.150000000003667, -0.21630503987440247 
4.1600000000036434, -0.21809598488668613 
4.17000000000362, -0.22052986598668975 
4.180000000003597, -0.2236232819729514 
4.1900000000035735, -0.22720817858741035 
4.20000000000355, -0.2308898400646909 
4.210000000003527, -0.2341694261819923 
4.220000000003504, -0.23669222225560466 
4.23000000000348, -0.23839467673532405 
4.240000000003457, -0.23943226667433987 
4.250000000003434, -0.24002023468019132 
4.26000000000341, -0.24033434561620287 
4.270000000003387, -0.24048915357169678 
4.280000000003364, -0.24055153846269453 
4.2900000000033405, -0.2405590099147025 
4.300000000003317, -0.24053300432353142 
4.310000000003294, -0.2404869678793236 
4.320000000003271, -0.24043115705451018 
4.330000000003247, -0.24037577268277316 
4.340000000003224, -0.24033331851135267 
4.350000000003201, -0.24032040658924642 
4.360000000003177, -0.24035866471181128 
4.370000000003154, -0.2404740073102985 
4.380000000003131, -0.2406934496592054 
4.390000000003107, -0.24103897550394743 
4.400000000003084, -0.24151884810880184 
4.410000000003061, -0.24211854486951112 
4.4200000000030375, -0.24279605835169676 
4.430000000003014, -0.24348721358473924 
4.440000000002991, -0.24412206848141368 
4.450000000002968, -0.24464472618688932 
4.460000000002944, -0.24502515706689643 
4.470000000002921, -0.24525818917577116 
4.480000000002898, -0.24535412445777852 
4.490000000002874, -0.24532825838193634 
4.500000000002851, -0.24519344751674396 
4.510000000002828, -0.24495621387578095 
4.520000000002804, -0.24461538942893474 
4.530000000002781, -0.24416256785515902 
4.540000000002758, -0.24358454320581738 
4.5500000000027345, -0.24286863225118255 
4.560000000002711, -0.2420113863372238 
4.570000000002688, -0.24102877211883666 
4.580000000002665, -0.23996217089330946 
4.590000000002641, -0.23887367698176268 
4.600000000002618, -0.2378302040624042 
4.610000000002595, -0.23688479290486875 
4.620000000002571, -0.23606540638469392 
4.630000000002548, -0.23537467181835145 
4.640000000002525, -0.23479689930413744 
4.6500000000025015, -0.23430702557736147 
4.660000000002478, -0.23387807658368764 
4.670000000002455, -0.23348588671313447 
4.6800000000024315, -0.23311106843275825 
4.690000000002408, -0.23273884691972585 
4.700000000002385, -0.23235755631561425 
4.710000000002362, -0.23195638039087454 
4.720000000002338, -0.23152243181560225 
4.730000000002315, -0.23103664843248378 
4.740000000002292, -0.2304673323762377 
4.750000000002268, -0.22975972498081715 
4.760000000002245, -0.22882098265339845 
4.770000000002222, -0.22750565286827484 
4.7800000000021985, -0.2256217468078571 
4.790000000002175, -0.2229945014147515 
4.800000000002152, -0.21960069206761865 
4.810000000002129, -0.21568225289601073 
4.820000000002105, -0.211686420730822 
4.830000000002082, -0.2080453757385396 
4.840000000002059, -0.2050014821833857 
4.850000000002035, -0.20259564097631605 
