t, s[1].omega / s[0].omega 
0, -0.9699975718413881 
0.009999999999999995, -0.9697098927494776 
0.019999999999999934, -0.969336073418174 
0.029999999999999874, -0.968884111064763 
0.04000000000000012, -0.9683673233891922 
0.050000000000000405, -0.9678043900733384 
0.06000000000000069, -0.9672193353386241 
0.07000000000000098, -0.9666411950732655 
0.08000000000000126, -0.9661027315676647 
0.09000000000000155, -0.9656374316183051 
0.10000000000000184, -0.9652746165995902 
0.11000000000000212, -0.9650337294801407 
0.12000000000000241, -0.9649199039910927 
0.130000000000002, -0.9649227786857608 
0.1400000000000009, -0.9650190701760222 
0.1499999999999998, -0.9651776512755188 
0.1599999999999987, -0.9653650129141462 
0.1699999999999976, -0.9655494287738963 
0.1799999999999965, -0.9657032811514711 
0.1899999999999954, -0.9658039416106122 
0.1999999999999943, -0.9658339134419247 
0.2099999999999932, -0.9657808107658266 
0.2199999999999921, -0.9656374888877913 
0.229999999999991, -0.965402366147561 
0.2399999999999899, -0.9650797259045003 
0.2499999999999888, -0.9646797360477283 
0.2599999999999877, -0.9642181808963496 
0.2699999999999866, -0.9637161914527568 
0.2799999999999855, -0.9632001547474836 
0.2899999999999844, -0.9627014170179077 
0.2999999999999833, -0.9622548081680513 
0.3099999999999822, -0.9618950503914396 
0.3199999999999811, -0.9616511243166055 
0.32999999999998, -0.9615402065041341 
0.3399999999999789, -0.9615636670286051 
0.3499999999999778, -0.9617069036848479 
0.35999999999997667, -0.9619428964374735 
0.36999999999997557, -0.9622377014803882 
0.37999999999997447, -0.9625557232799272 
0.38999999999997337, -0.9628634158007685 
0.39999999999997227, -0.9631312349022176 
0.40999999999997117, -0.9633344592414371 
0.41999999999997006, -0.9634536956841326 
0.42999999999996896, -0.9634755994448859 
0.43999999999996786, -0.9633937750437644 
0.44999999999996676, -0.9632093322462051 
0.45999999999996566, -0.9629305972621275 
0.46999999999996456, -0.9625720866805783 
0.47999999999996346, -0.9621534716845848 
0.48999999999996235, -0.9616992530189116 
0.49999999999996125, -0.9612391619503218 
0.5099999999999602, -0.9608083478802257 
0.519999999999959, -0.9604458292619965 
0.529999999999958, -0.9601900676034759 
0.5399999999999568, -0.9600720779254163 
0.5499999999999557, -0.9601084207576218 
0.5599999999999546, -0.9602971410264196 
0.5699999999999535, -0.9606183651422977 
0.5799999999999524, -0.9610388383878157 
0.5899999999999513, -0.9615180581336278 
0.5999999999999502, -0.9620137373575768 
0.6099999999999491, -0.9624855690133314 
0.619999999999948, -0.9628975663066583 
0.6299999999999469, -0.9632198748420867 
0.6399999999999458, -0.9634306865015215 
0.6499999999999447, -0.9635180271317296 
0.6599999999999436, -0.9634804948907891 
0.6699999999999425, -0.9633262558533338 
0.6799999999999414, -0.9630706822644373 
0.6899999999999403, -0.9627339597033165 
0.6999999999999392, -0.9623399758116362 
0.7099999999999381, -0.9619169351328043 
0.719999999999937, -0.9614989912530006 
0.7299999999999359, -0.9611271917175805 
0.7399999999999348, -0.9608476222849992 
0.7499999999999337, -0.9607054488705277 
0.7599999999999326, -0.9607358107846873 
0.7699999999999315, -0.9609550032429095 
0.7799999999999304, -0.9613559109010025 
0.7899999999999293, -0.9619094150653185 
0.7999999999999282, -0.962570329920527 
0.8099999999999271, -0.9632848448565682 
0.819999999999926, -0.9639971425307934 
0.8299999999999249, -0.964654599749293 
0.8399999999999238, -0.9652121777736097 
0.8499999999999227, -0.9656364778356169 
0.8599999999999216, -0.9659088383376447 
0.8699999999999205, -0.9660260777306642 
0.8799999999999194, -0.9659981576959831 
0.8899999999999183, -0.9658437549721658 
0.8999999999999172, -0.9655859082718786 
0.9099999999999161, -0.9652496476162922 
0.919999999999915, -0.9648623386708748 
0.9299999999999139, -0.9644562454794509 
0.9399999999999128, -0.9640717778574114 
0.9499999999999117, -0.9637589874380776 
0.9599999999999106, -0.9635745776580187 
0.9699999999999095, -0.9635730599724539 
0.9799999999999084, -0.9637940007308291 
0.9899999999999073, -0.9642505298321591 
0.9999999999999062, -0.9649243186420563 
1.0099999999999052, -0.9657686190079972 
1.019999999999904, -0.9667168936199104 
1.029999999999903, -0.9676932688313133 
1.039999999999902, -0.9686224764916865 
1.0499999999999008, -0.9694387568097037 
1.0599999999998997, -0.9700934551542464 
1.0699999999998986, -0.9705599562431413 
1.0799999999998975, -0.9708340830912592 
1.0899999999998964, -0.9709295786694631 
1.0999999999998953, -0.9708707810303805 
1.1099999999998942, -0.9706857971573901 
1.119999999999893, -0.9704026190151561 
1.129999999999892, -0.9700489352796937 
1.1399999999998909, -0.9696551271842248 
1.1499999999998898, -0.9692591579420974 
1.1599999999998887, -0.9689111727381275 
1.1699999999998876, -0.9686745203579632 
1.1799999999998865, -0.9686197360577367 
1.1899999999998854, -0.968810530598055 
1.1999999999998843, -0.9692858494296945 
1.2099999999998832, -0.9700458723000068 
1.219999999999882, -0.971048364550114 
1.229999999999881, -0.9722160461839302 
1.2399999999998799, -0.9734508763050205 
1.2499999999998788, -0.9746505245739499 
1.2599999999998777, -0.9757240461335422 
1.2699999999998766, -0.97660465973136 
1.2799999999998755, -0.9772570219014419 
1.2899999999998744, -0.9776767835660166 
1.2999999999998733, -0.9778829982960474 
1.3099999999998722, -0.9779072246291813 
1.319999999999871, -0.9777839890372034 
1.32999999999987, -0.9775454354933469 
1.3399999999998689, -0.9772206402118089 
1.3499999999998678, -0.9768387966564784 
1.3599999999998666, -0.9764350880607215 
1.3699999999998655, -0.9760575101520864 
1.3799999999998644, -0.9757715259705056 
1.3899999999998633, -0.9756579578286161 
1.3999999999998622, -0.9758003283681879 
1.4099999999998611, -0.9762629445195309 
1.41999999999986, -0.9770681023725366 
1.429999999999859, -0.9781834235728392 
1.4399999999998578, -0.9795251526340942 
1.4499999999998567, -0.9809750054979339 
1.4599999999998556, -0.982403742106149 
1.4699999999998545, -0.9836949636874884 
1.4799999999998534, -0.984764025893701 
1.4899999999998523, -0.9855677220748019 
1.4999999999998512, -0.986102476729213 
1.5099999999998501, -0.9863931930778038 
1.519999999999849, -0.9864787030822756 
1.529999999999848, -0.9863997902343314 
1.5399999999998468, -0.9861927393810435 
1.5499999999998457, -0.9858884085913205 
1.5599999999998446, -0.9855156066869573 
1.5699999999998435, -0.9851075626561894 
1.5799999999998424, -0.9847100977511204 
1.5899999999998413, -0.9843887461721206 
1.5999999999998402, -0.9842298254977845 
1.6099999999998391, -0.9843297866330817 
1.619999999999838, -0.9847714991653158 
1.629999999999837, -0.9855951032993058 
1.6399999999998358, -0.9867775020795244 
1.6499999999998347, -0.9882312041977459 
1.6599999999998336, -0.9898226526226207 
1.6699999999998325, -0.9914018345473199 
1.6799999999998314, -0.9928332056008621 
1.6899999999998303, -0.9940196626936346 
1.6999999999998292, -0.9949136700345067 
1.709999999999828, -0.9955136837449216 
1.719999999999827, -0.9958498095308442 
1.729999999999826, -0.9959664760376808 
1.7399999999998248, -0.9959089205051482 
1.7499999999998237, -0.9957162777980739 
1.7599999999998226, -0.9954207579826366 
1.7699999999998215, -0.9950513383953474 
1.7799999999998204, -0.9946406902645399 
1.7899999999998193, -0.9942340971179882 
1.7999999999998182, -0.9938977459295769 
1.809999999999817, -0.9937211358668467 
1.819999999999816, -0.993806996675883 
1.8299999999998149, -0.9942462030384517 
1.8399999999998138, -0.9950852665421452 
1.8499999999998127, -0.9963023491668246 
1.8599999999998116, -0.9978049699321 
1.8699999999998105, -0.9994503482405754 
1.8799999999998094, -1.0010788096427072 
1.8899999999998083, -1.0025481122740856 
1.8999999999998072, -1.0037589136968723 
1.909999999999806, -1.0046652462097942 
1.919999999999805, -1.0052690467690235 
1.9299999999998039, -1.0056039657347653 
1.9399999999998028, -1.0057170331620022 
1.9499999999998017, -1.0056549954405478 
1.9599999999998006, -1.00545772597612 
1.9699999999997995, -1.005157857533767 
1.9799999999997984, -1.0047849240357496 
1.9899999999997973, -1.004372698593216 
1.9999999999997962, -1.003968382784096 
2.0099999999998173, -1.0036407199099073 
2.0199999999998384, -1.0034813445919495 
2.0299999999998595, -1.0035927196231298 
2.0399999999998806, -1.004061165575004 
2.0499999999999017, -1.0049243667917314 
2.059999999999923, -1.0061501742942311 
2.069999999999944, -1.007638519142538 
2.079999999999965, -1.0092448380747354 
2.089999999999986, -1.0108138785638299 
2.100000000000007, -1.0122119692823577 
2.1100000000000283, -1.0133492924958103 
2.1200000000000494, -1.0141875218189922 
2.1300000000000705, -1.014732909036276 
2.1400000000000916, -1.0150202251805418 
2.1500000000001127, -1.0150955425127957 
2.160000000000134, -1.015003882780058 
2.170000000000155, -1.0147836784528756 
2.180000000000176, -1.01446714271947 
2.190000000000197, -1.0140849392846767 
2.2000000000002182, -1.0136737868232972 
2.2100000000002393, -1.013285215148724 
2.2200000000002604, -1.0129917751820552 
2.2300000000002815, -1.0128846527458655 
2.2400000000003026, -1.0130574521209887 
2.2500000000003237, -1.0135781730697913 
2.260000000000345, -1.0144616238699506 
2.270000000000366, -1.0156574299840155 
2.280000000000387, -1.017059764556085 
2.290000000000408, -1.0185326103247787 
2.3000000000004293, -1.0199393612887422 
2.3100000000004504, -1.0211680113545263 
2.3200000000004715, -1.022146950795229 
2.3300000000004926, -1.02284894721676 
2.3400000000005137, -1.0232839234087112 
2.3500000000005348, -1.0234849736495384 
2.360000000000556, -1.0234939850889266 
2.370000000000577, -1.023351664070629 
2.380000000000598, -1.0230935390223992 
2.390000000000619, -1.022751225828931 
2.4000000000006403, -1.022357546591882 
2.4100000000006614, -1.0219538972146065 
2.4200000000006825, -1.0215972559226263 
2.4300000000007036, -1.0213622718758835 
2.4400000000007247, -1.0213330637725915 
2.450000000000746, -1.0215831602965926 
2.460000000000767, -1.0221505033122487 
2.470000000000788, -1.0230205349973804 
2.480000000000809, -1.024126547918637 
2.49000000000083, -1.0253656938159315 
2.5000000000008513, -1.0266217820859596 
2.5100000000008724, -1.027786705039851 
2.5200000000008935, -1.0287764648227156 
2.5300000000009146, -1.0295402416487565 
2.5400000000009357, -1.0300615930813914 
2.550000000000957, -1.030352210157385 
2.560000000000978, -1.0304411804798415 
2.570000000000999, -1.0303642497073304 
2.58000000000102, -1.0301566567808087 
2.5900000000010412, -1.029850852317055 
2.6000000000010624, -1.0294786167217054 
2.6100000000010835, -1.029076209329483 
2.6200000000011046, -1.0286903788750117 
2.6300000000011257, -1.0283817055244833 
2.6400000000011468, -1.0282207636742575 
2.650000000001168, -1.0282745693479334 
2.660000000001189, -1.0285868978437895 
2.67000000000121, -1.0291621429873534 
2.680000000001231, -1.0299615944367215 
2.6900000000012523, -1.030913061582615 
2.7000000000012734, -1.0319274595325927 
2.7100000000012945, -1.0329151381378803 
2.7200000000013156, -1.0337983974292633 
2.7300000000013367, -1.034519807415339 
2.740000000001358, -1.0350465265243094 
2.750000000001379, -1.035370197539452 
2.7600000000014, -1.0355023895824504 
2.770000000001421, -1.0354672402693086 
2.780000000001442, -1.0352942477198581 
2.7900000000014633, -1.0350137863515398 
2.8000000000014844, -1.0346563984670847 
2.8100000000015055, -1.0342553954484894 
2.8200000000015266, -1.0338511036865359 
2.8300000000015477, -1.0334939015459357 
2.840000000001569, -1.033242367786872 
2.85000000000159, -1.033154035786993 
2.860000000001611, -1.033270589106621 
2.870000000001632, -1.033604374880303 
2.8800000000016532, -1.0341336215513235 
2.8900000000016743, -1.0348082971024377 
2.9000000000016954, -1.0355623005686796 
2.9100000000017165, -1.0363259657812585 
2.9200000000017377, -1.0370354112290079 
2.9300000000017588, -1.0376384658512667 
2.94000000000178, -1.038098246960916 
2.950000000001801, -1.0383949426257373 
2.960000000001822, -1.0385254142138454 
2.970000000001843, -1.0385003036231335 
2.9800000000018643, -1.0383394921809699 
2.9900000000018854, -1.0380677996279042 
3.0000000000019065, -1.0377127013065919 
3.0100000000019276, -1.037304723085015 
3.0200000000019487, -1.0368797350788692 
3.03000000000197, -1.036481015982576 
3.040000000001991, -1.0361581202038403 
3.050000000002012, -1.0359602975465037 
3.060000000002033, -1.0359253289575892 
3.070000000002054, -1.036068604498324 
3.0800000000020753, -1.0363782881200017 
3.0900000000020964, -1.0368188357433368 
3.1000000000021175, -1.0373401788988132 
3.1100000000021386, -1.0378878003864833 
3.1200000000021597, -1.0384103507007931 
3.130000000002181, -1.0388640817304642 
3.140000000002202, -1.0392150861313563 
3.150000000002223, -1.0394405331425212 
3.160000000002244, -1.0395293166131236 
3.1700000000022652, -1.0394817508621554 
3.1800000000022863, -1.0393079599105357 
3.1900000000023074, -1.0390253991729015 
3.2000000000023285, -1.038656691105105 
3.2100000000023496, -1.0382288547917002 
3.2200000000023707, -1.0377740276333476 
3.230000000002392, -1.037330435259718 
3.240000000002413, -1.0369413751298753 
3.250000000002434, -1.0366502549138574 
3.260000000002455, -1.036491910867589 
3.2700000000024763, -1.0364835323859325 
3.2800000000024974, -1.0366197995505901 
3.2900000000025185, -1.0368746576742176 
3.3000000000025396, -1.0372083164008863 
3.3100000000025607, -1.0375757997925013 
3.3200000000025818, -1.037933858103621 
3.330000000002603, -1.0382450261722096 
3.340000000002624, -1.0384793390765554 
3.350000000002645, -1.038614870622185 
3.360000000002666, -1.038637985550342 
3.3700000000026873, -1.038543531896743 
3.3800000000027084, -1.0383346927221717 
3.3900000000027295, -1.0380222418899052 
3.4000000000027506, -1.0376234482133047 
3.4100000000027717, -1.0371612866343907 
3.420000000002793, -1.0366643754228317 
3.430000000002814, -1.0361671466017461 
3.440000000002835, -1.0357087668247738 
3.450000000002856, -1.0353291842338654 
3.460000000002877, -1.0350620738488765 
3.4700000000028983, -1.0349268771519384 
3.4800000000029194, -1.0349236200520602 
3.4900000000029405, -1.0350331125944696 
3.5000000000029616, -1.0352221978651162 
3.5100000000029827, -1.0354512976663444 
3.520000000003004, -1.0356811709187848 
3.530000000003025, -1.035877210005893 
3.540000000003046, -1.036011320795352 
3.550000000003067, -1.0360623520721706 
3.5600000000030882, -1.0360160309371196 
3.5700000000031094, -1.0358649126991653 
3.5800000000031305, -1.0356084163041026 
3.5900000000031516, -1.03525278610917 
3.6000000000031727, -1.034810868504517 
3.6100000000031938, -1.034301831376822 
3.620000000003215, -1.0337510453117127 
3.630000000003236, -1.0331899584862427 
3.640000000003257, -1.032655067118078 
3.650000000003278, -1.0321847029816076 
3.6600000000032993, -1.031813101686341 
3.6700000000033204, -1.031563057267948 
3.6800000000033415, -1.0314401196868588 
3.6900000000033626, -1.0314311513958567 
3.7000000000033837, -1.0315079308011679 
3.710000000003405, -1.031633927039088 
3.720000000003426, -1.0317712203185772 
3.730000000003447, -1.0318853572235562 
3.740000000003468, -1.0319476940840526 
3.750000000003489, -1.0319360561352662 
3.7600000000035103, -1.0318347432234296 
3.7700000000035314, -1.0316344589334996 
3.7800000000035525, -1.0313322906672282 
3.7900000000035736, -1.0309317036009724 
3.8000000000035947, -1.0304425282486558 
3.810000000003616, -1.029880970537081 
3.820000000003637, -1.0292696730948967 
3.830000000003658, -1.028637671360573 
3.840000000003679, -1.028019639763743 
3.8500000000037002, -1.027453410594204 
3.8600000000037213, -1.0269750157953896 
3.8700000000037424, -1.0266118043845887 
3.8800000000037635, -1.0263758902372173 
3.8900000000037847, -1.0262608752226365 
3.9000000000038058, -1.0262435546238116 
3.910000000003827, -1.0262897817155832 
3.920000000003848, -1.0263616778233737 
3.930000000003869, -1.026423356905422 
3.94000000000389, -1.026443989202722 
3.9500000000039113, -1.0263987794187304 
3.9600000000039324, -1.0262690916251365 
3.9700000000039535, -1.0260425535309574 
3.9800000000039746, -1.0257132798906317 
3.9900000000039957, -1.0252820153187008 
4.000000000004016, -1.0247561016686009 
4.010000000003993, -1.0241493907601558 
4.02000000000397, -1.0234822494156166 
4.030000000003946, -1.0227815930721758 
4.040000000003923, -1.022080499802206 
4.0500000000039, -1.0214165442591188 
4.0600000000038765, -1.0208279410039807 
4.070000000003853, -1.020347369786366 
4.08000000000383, -1.0199949052939292 
4.090000000003807, -1.0197728134089599 
4.100000000003783, -1.0196648069854508 
4.11000000000376, -1.0196403116846655 
4.120000000003737, -1.0196616579284543 
4.130000000003713, -1.019690926177521 
4.14000000000369, -1.019694229337293 
4.150000000003667, -1.0196433089809527 
4.1600000000036434, -1.0195157089975913 
4.17000000000362, -1.019294830898457 
4.180000000003597, -1.018970385153781 
4.1900000000035735, -1.0185389885539693 
4.20000000000355, -1.018004467528015 
4.210000000003527, -1.0173777594539009 
4.220000000003504, -1.0166766627318924 
4.23000000000348, -1.0159256731907977 
4.240000000003457, -1.0151557668558373 
4.250000000003434, -1.0144034857980435 
4.26000000000341, -1.0137083641807687 
4.270000000003387, -1.0131080006914992 
4.280000000003364, -1.0126312123790984 
4.2900000000033405, -1.012291308866249 
4.300000000003317, -1.0120824398133708 
4.310000000003294, -1.0119810523288157 
4.320000000003271, -1.0119519173041411 
4.330000000003247, -1.0119557839138575 
4.340000000003224, -1.011955429780922 
4.350000000003201, -1.0119186670086966 
4.360000000003177, -1.0118189660279515 
4.370000000003154, -1.0116352767924934 
4.380000000003131, -1.011352234990711 
4.390000000003107, -1.0109609680592 
4.400000000003084, -1.0104599734317152 
4.410000000003061, -1.009855490861074 
4.4200000000030375, -1.00916128673942 
4.430000000003014, -1.0083982089834658 
4.440000000002991, -1.0075938098842996 
4.450000000002968, -1.0067818441965348 
4.460000000002944, -1.0060008963163245 
4.470000000002921, -1.0052911704993808 
4.480000000002898, -1.0046889656018223 
4.490000000002874, -1.0042196606993188 
4.500000000002851, -1.0038915754746616 
4.510000000002828, -1.0036936009161792 
4.520000000002804, -1.0035980815829864 
4.530000000002781, -1.0035676736344228 
4.540000000002758, -1.0035628976356032 
4.5500000000027345, -1.0035474465562273 
4.560000000002711, -1.0034903909560884 
4.570000000002688, -1.003366337512884 
4.580000000002665, -1.003155174339335 
4.590000000002641, -1.002842432749249 
4.600000000002618, -1.0024202790939758 
4.610000000002595, -1.001888471536036 
4.620000000002571, -1.001254674836892 
4.630000000002548, -1.0005341097773575 
4.640000000002525, -0.9997489676697654 
4.6500000000025015, -0.9989279086170502 
4.660000000002478, -0.998105420667468 
4.670000000002455, -0.9973202667659505 
4.6800000000024315, -0.9966120923101431 
4.690000000002408, -0.9960158355709916 
4.700000000002385, -0.9955549039114941 
4.710000000002362, -0.9952355062308135 
4.720000000002338, -0.9950448671341977 
4.730000000002315, -0.9949545085620943 
4.740000000002292, -0.9949271251222264 
4.750000000002268, -0.9949238384760599 
4.760000000002245, -0.9949091407823729 
4.770000000002222, -0.9948528763433689 
4.7800000000021985, -0.9947303582584366 
4.790000000002175, -0.9945221672881127 
4.800000000002152, -0.9942145460836784 
4.810000000002129, -0.9938003301974826 
4.820000000002105, -0.99327975965474 
4.830000000002082, -0.9926606386644021 
4.840000000002059, -0.9919578938138935 
4.850000000002035, -0.9911929779153136 
4.860000000002012, -0.9903934118718032 
4.870000000001989, -0.9895922311685948 
4.880000000001965, -0.9888265984400768 
4.890000000001942, -0.9881347013392844 
4.900000000001919, -0.9875505656050556 
4.9100000000018955, -0.9870976209079514 
4.920000000001872, -0.9867831944881249 
4.930000000001849, -0.9865964869971824 
