t, s[1].omega / s[0].omega 
0, -0.5499977423348528 
0.009999999999999995, -0.5497784302777011 
0.019999999999999934, -0.5495669982159948 
0.029999999999999874, -0.5493509214550463 
0.04000000000000012, -0.5491151325917061 
0.050000000000000405, -0.5488472537092213 
0.06000000000000069, -0.5485406547699276 
0.07000000000000098, -0.5481948851504048 
0.08000000000000126, -0.5478146568082307 
0.09000000000000155, -0.5474089693913924 
0.10000000000000184, -0.5469915088286686 
0.11000000000000212, -0.5465829109298473 
0.12000000000000241, -0.5462152325379955 
0.130000000000002, -0.5459388848802134 
0.1400000000000009, -0.545831919482688 
0.1499999999999998, -0.5460101764197621 
0.1599999999999987, -0.5466332504649479 
0.1699999999999976, -0.5478944322833174 
0.1799999999999965, -0.5499748425313359 
0.1899999999999954, -0.5529458769357365 
0.1999999999999943, -0.5566465453614857 
0.2099999999999932, -0.5606425999158149 
0.2199999999999921, -0.5643806546409031 
0.229999999999991, -0.5674612234943303 
0.2399999999999899, -0.5697806434315134 
0.2499999999999888, -0.5714481465159923 
0.2599999999999877, -0.5726313226910418 
0.2699999999999866, -0.5734688215994108 
0.2799999999999855, -0.5740546195679852 
0.2899999999999844, -0.5744494424667874 
0.2999999999999833, -0.5746930892458398 
0.3099999999999822, -0.5748116756785709 
0.3199999999999811, -0.5748210288503982 
0.32999999999998, -0.5747281157872977 
0.3399999999999789, -0.5745317335934641 
0.3499999999999778, -0.574223352663068 
0.35999999999997667, -0.5737890988384893 
0.36999999999997557, -0.5732140002723756 
0.37999999999997447, -0.5724890794452693 
0.38999999999997337, -0.5716199064743968 
0.39999999999997227, -0.5706324131716122 
0.40999999999997117, -0.5695710268857621 
0.41999999999997006, -0.5684882309997134 
0.42999999999996896, -0.5674309350262484 
0.43999999999996786, -0.566431115542333 
0.44999999999996676, -0.565504216960871 
0.45999999999996566, -0.5646535306584695 
0.46999999999996456, -0.5638766156514359 
0.47999999999996346, -0.5631707978880278 
0.48999999999996235, -0.5625367336137412 
0.49999999999996125, -0.5619803883653226 
0.5099999999999602, -0.5615142229661885 
0.519999999999959, -0.5611582309679974 
0.529999999999958, -0.5609411616738464 
0.5399999999999568, -0.5609020087244057 
0.5499999999999557, -0.5610916558505161 
0.5599999999999546, -0.5615743329113033 
0.5699999999999535, -0.562428056299898 
0.5799999999999524, -0.5637422736826677 
0.5899999999999513, -0.5656093662751043 
0.5999999999999502, -0.5681049613625864 
0.6099999999999491, -0.5712524476624028 
0.619999999999948, -0.5749747782798745 
0.6299999999999469, -0.579055914006521 
0.6399999999999458, -0.5831541604379419 
0.6499999999999447, -0.5868941924766355 
0.6599999999999436, -0.5899970194315178 
0.6699999999999425, -0.5923571838131801 
0.6799999999999414, -0.5940230524366719 
0.6899999999999403, -0.5951219013655914 
0.6999999999999392, -0.5957921734253889 
0.7099999999999381, -0.5961482491422712 
0.719999999999937, -0.5962709438607934 
0.7299999999999359, -0.5962097311418777 
0.7399999999999348, -0.5959874222391923 
0.7499999999999337, -0.5956032896929533 
0.7599999999999326, -0.5950336040559291 
0.7699999999999315, -0.5942302032695396 
0.7799999999999304, -0.5931195220156549 
0.7899999999999293, -0.591607446123591 
0.7999999999999282, -0.5895984746272299 
0.8099999999999271, -0.5870355593509204 
0.819999999999926, -0.5839514355733659 
0.8299999999999249, -0.5804979229422838 
0.8399999999999238, -0.5769182014165017 
0.8499999999999227, -0.5734697692585663 
0.8599999999999216, -0.5703495875049306 
0.8699999999999205, -0.5676631200856908 
0.8799999999999194, -0.5654360260889308 
0.8899999999999183, -0.5636435325840573 
0.8999999999999172, -0.562237397544687 
0.9099999999999161, -0.561163421838313 
0.919999999999915, -0.5603704480518081 
0.9299999999999139, -0.5598139905098343 
0.9399999999999128, -0.5594571577740072 
0.9499999999999117, -0.5592704874868922 
0.9599999999999106, -0.5592314968760581 
0.9699999999999095, -0.5593242674346635 
0.9799999999999084, -0.5595391226733966 
0.9899999999999073, -0.5598722839092711 
0.9999999999999062, -0.5603251829968264 
1.0099999999999052, -0.5609028209422078 
1.019999999999904, -0.5616102901127212 
1.029999999999903, -0.5624466870829512 
1.039999999999902, -0.5633967194034757 
1.0499999999999008, -0.5644227002989564 
1.0599999999998997, -0.5654623431378095 
1.0699999999998986, -0.5664376312539346 
1.0799999999998975, -0.5672739947078066 
1.0899999999998964, -0.5679202213889423 
1.0999999999998953, -0.5683575132781554 
1.1099999999998942, -0.5685944303894657 
1.119999999999893, -0.5686540358503922 
1.129999999999892, -0.5685613841509666 
1.1399999999998909, -0.5683352540679919 
1.1499999999998898, -0.5679837940805244 
1.1599999999998887, -0.5675020632086354 
1.1699999999998876, -0.5668694708715545 
1.1799999999998865, -0.5660455395126076 
1.1899999999998854, -0.5649627382383043 
1.1999999999998843, -0.5635158427950484 
1.2099999999998832, -0.561550253534367 
1.219999999999882, -0.5588607079356576 
1.229999999999881, -0.5552284126809938 
1.2399999999998799, -0.5505307423978364 
1.2499999999998788, -0.5449032954723328 
1.2599999999998777, -0.5388179785225289 
1.2699999999998766, -0.5329364465807828 
1.2799999999998755, -0.527821967304103 
1.2899999999998744, -0.5237517077016238 
1.2999999999998733, -0.5207282939434483 
1.3099999999998722, -0.51859662774109 
1.319999999999871, -0.5171535620260765 
1.32999999999987, -0.5162102121369633 
1.3399999999998689, -0.5156149777404402 
1.3499999999998678, -0.5152554775218194 
1.3599999999998666, -0.5150523152146842 
1.3699999999998655, -0.5149511946779677 
1.3799999999998644, -0.5149159785476898 
1.3899999999998633, -0.5149234382539544 
1.3999999999998622, -0.5149597174632629 
1.4099999999998611, -0.5150182558059753 
1.41999999999986, -0.515098712533571 
1.429999999999859, -0.5152061282301789 
1.4399999999998578, -0.515349263980416 
1.4499999999998567, -0.5155371398619454 
1.4599999999998556, -0.5157736674118706 
1.4699999999998545, -0.5160518633139051 
1.4799999999998534, -0.5163505853220886 
1.4899999999998523, -0.5166366612262759 
1.4999999999998512, -0.5168727435749454 
1.5099999999998501, -0.5170273393622999 
1.519999999999849, -0.517081652708909 
1.529999999999848, -0.5170302768978735 
1.5399999999998468, -0.5168769955604807 
1.5499999999998457, -0.5166290492045796 
1.5599999999998446, -0.5162923907768788 
1.5699999999998435, -0.5158686368212109 
1.5799999999998424, -0.5153532094764389 
1.5899999999998413, -0.5147337154411956 
1.5999999999998402, -0.5139873888103571 
1.6099999999998391, -0.5130759403980605 
1.619999999999838, -0.5119353539539254 
1.629999999999837, -0.5104584089669559 
1.6399999999998358, -0.5084740755754414 
1.6499999999998347, -0.5057492580627186 
1.6599999999998336, -0.5020680833285889 
1.6699999999998325, -0.49741677652446936 
1.6799999999998314, -0.4921489096240272 
1.6899999999998303, -0.4869040342555852 
1.6999999999998292, -0.4822903028117791 
1.709999999999828, -0.4786303602863614 
1.719999999999827, -0.4759464413077496 
1.729999999999826, -0.47408738571535886 
1.7399999999998248, -0.47285249162210663 
1.7499999999998237, -0.47205927695892447 
1.7599999999998226, -0.47156587530126304 
1.7699999999998215, -0.47127072608609943 
1.7799999999998204, -0.4711045964994535 
1.7899999999998193, -0.4710218693443388 
1.7999999999998182, -0.4709934821798469 
1.809999999999817, -0.4710019664009316 
1.819999999999816, -0.4710383738956791 
1.8299999999998149, -0.4711006655928884 
1.8399999999998138, -0.47119295190281124 
1.8499999999998127, -0.47132468407422634 
1.8599999999998116, -0.4715086474317525 
1.8699999999998105, -0.4717568009995924 
1.8799999999998094, -0.4720740070416256 
1.8899999999998083, -0.47245140012164455 
1.8999999999998072, -0.47286275373385206 
1.909999999999806, -0.47326723705685836 
1.919999999999805, -0.4736190674520372 
1.9299999999998039, -0.473879792561717 
1.9399999999998028, -0.47402656919619124 
1.9499999999998017, -0.47405278254620925 
1.9599999999998006, -0.4739626524897143 
1.9699999999997995, -0.4737639904881289 
1.9799999999997984, -0.473462069967299 
1.9899999999997973, -0.4730552206486001 
1.9999999999997962, -0.4725312222273844 
2.0099999999998173, -0.4718629975483476 
2.0199999999998384, -0.47100193590539047 
2.0299999999998595, -0.46986726725940775 
2.0399999999998806, -0.4683313162319826 
2.0499999999999017, -0.4662064641997543 
2.059999999999923, -0.46325491607345126 
2.069999999999944, -0.4592613600838321 
2.079999999999965, -0.45418984559430386 
2.089999999999986, -0.44833824692102964 
2.100000000000007, -0.44230579547108917 
2.1100000000000283, -0.436732962965682 
2.1200000000000494, -0.4320365906538757 
2.1300000000000705, -0.42833983143988974 
2.1400000000000916, -0.42556176148562236 
2.1500000000001127, -0.423536090725302 
2.160000000000134, -0.42208921468728844 
2.170000000000155, -0.42107420293462533 
2.180000000000176, -0.42037868704176046 
2.190000000000197, -0.41992172147470785 
2.2000000000002182, -0.419647680660574 
2.2100000000002393, -0.41952052657230077 
2.2200000000002604, -0.4195194715782368 
2.2300000000002815, -0.41963612612932993 
2.2400000000003026, -0.4198728691749222 
2.2500000000003237, -0.4202419662638765 
2.260000000000345, -0.4207646517848689 
2.270000000000366, -0.42146890012924726 
2.280000000000387, -0.4223840527688294 
2.290000000000408, -0.4235303547412387 
2.3000000000004293, -0.42490293794718725 
2.3100000000004504, -0.42645434613785865 
2.3200000000004715, -0.4280866082613472 
2.3300000000004926, -0.4296660059670522 
2.3400000000005137, -0.43106113281740016 
2.3500000000005348, -0.43218332432367446 
2.360000000000556, -0.43300357819106966 
2.370000000000577, -0.4335407644553125 
2.380000000000598, -0.4338368246623164 
2.390000000000619, -0.43393548145250654 
2.4000000000006403, -0.4338702155691231 
2.4100000000006614, -0.4336593786008576 
2.4200000000006825, -0.43330454354914777 
2.4300000000007036, -0.4327894578346766 
2.4400000000007247, -0.43207885637618865 
2.450000000000746, -0.43111852447528093 
2.460000000000767, -0.4298406927641888 
2.470000000000788, -0.4281811283181165 
2.480000000000809, -0.42611164574426585 
2.49000000000083, -0.42367821644202924 
2.5000000000008513, -0.4210164528648126 
2.5100000000008724, -0.41831995776473035 
2.5200000000008935, -0.4157752365007889 
2.5300000000009146, -0.4135079182121325 
2.5400000000009357, -0.4115688632856903 
2.550000000000957, -0.409952095878794 
2.560000000000978, -0.4086218546186723 
2.570000000000999, -0.4075340300863942 
2.58000000000102, -0.40664856163485014 
2.5900000000010412, -0.40593494896180343 
2.6000000000010624, -0.4053739958135937 
2.6100000000010835, -0.4049581351989584 
2.6200000000011046, -0.404691750085327 
2.6300000000011257, -0.40459226158923833 
2.6400000000011468, -0.4046924009194258 
2.650000000001168, -0.4050438463045517 
2.660000000001189, -0.40572203025155645 
2.67000000000121, -0.406830973253746 
2.680000000001231, -0.40850475746116216 
2.6900000000012523, -0.410897867992149 
2.7000000000012734, -0.4141506174478016 
2.7100000000012945, -0.41831486561555764 
2.7200000000013156, -0.4232477399458543 
2.7300000000013367, -0.42854177656911546 
2.740000000001358, -0.4336050059086404 
2.750000000001379, -0.4379049857037072 
2.7600000000014, -0.441190009518938 
2.770000000001421, -0.4435046651068587 
2.780000000001442, -0.4450492821262936 
2.7900000000014633, -0.4460425390348893 
2.8000000000014844, -0.4466577400915216 
2.8100000000015055, -0.4470135983568653 
2.8200000000015266, -0.4471853391813866 
2.8300000000015477, -0.44721779817545954 
2.840000000001569, -0.4471351589484967 
2.85000000000159, -0.4469473344638935 
2.860000000001611, -0.44665443409734207 
2.870000000001632, -0.4462509508320124 
2.8800000000016532, -0.4457310601828621 
2.8900000000016743, -0.44509549286038447 
2.9000000000016954, -0.4443584543720977 
2.9100000000017165, -0.44355085564172586 
2.9200000000017377, -0.44271626237026507 
2.9300000000017588, -0.4419000693392211 
2.94000000000178, -0.44113740877423685 
2.950000000001801, -0.4404460483658729 
2.960000000001822, -0.43982658212109105 
2.970000000001843, -0.43926788150173135 
2.9800000000018643, -0.43875414070779784 
2.9900000000018854, -0.4382706322813446 
3.0000000000019065, -0.43780700722853716 
3.0100000000019276, -0.43735849477878486 
3.0200000000019487, -0.4369261162679261 
3.03000000000197, -0.4365170478497463 
3.040000000001991, -0.43614594905176984 
3.050000000002012, -0.4358377775502135 
3.060000000002033, -0.43563240032389744 
3.070000000002054, -0.43559092605630845 
3.0800000000020753, -0.43580247394111105 
3.0900000000020964, -0.43638685119313314 
3.1000000000021175, -0.43748187289095314 
3.1100000000021386, -0.4391952198840122 
3.1200000000021597, -0.44150395041853796 
3.130000000002181, -0.4441352944231734 
3.140000000002202, -0.4465657654043218 
3.150000000002223, -0.4482725028566395 
3.160000000002244, -0.4490759362272317 
3.1700000000022652, -0.44919694866749527 
3.1800000000022863, -0.4489995904474403 
3.1900000000023074, -0.4487506258814159 
3.2000000000023285, -0.44856579482298803 
3.2100000000023496, -0.4484627862641082 
3.2200000000023707, -0.44842001566065726 
3.230000000002392, -0.44840922286979196 
3.240000000002413, -0.44840732848055687 
3.250000000002434, -0.4483983011890909 
3.260000000002455, -0.4483716990079806 
3.2700000000024763, -0.4483208514174417 
3.2800000000024974, -0.4482417728394469 
3.2900000000025185, -0.4481331370994607 
3.3000000000025396, -0.44799725545212504 
3.3100000000025607, -0.44784153957250483 
3.3200000000025818, -0.44767932883309314 
3.330000000002603, -0.4475286430664049 
3.340000000002624, -0.44740804612103985 
3.350000000002645, -0.4473304430633253 
3.360000000002666, -0.44729730022545644 
3.3700000000026873, -0.4472962232187938 
3.3800000000027084, -0.4473035744262198 
3.3900000000027295, -0.44729128976820265 
3.4000000000027506, -0.4472346204715422 
3.4100000000027717, -0.4471170935716982 
3.420000000002793, -0.4469310855079279 
3.430000000002814, -0.4466750977488162 
3.440000000002835, -0.4463499191718534 
3.450000000002856, -0.445955207752046 
3.460000000002877, -0.44548683222037955 
3.4700000000028983, -0.4449344232078287 
3.4800000000029194, -0.4442779906217419 
3.4900000000029405, -0.44348178686148926 
3.5000000000029616, -0.4424826555988628 
3.5100000000029827, -0.4411699170859523 
3.520000000003004, -0.4393589358150254 
3.530000000003025, -0.4367806632342751 
3.540000000003046, -0.433145598114452 
3.550000000003067, -0.42833597499941456 
3.5600000000030882, -0.42263126472164825 
3.5700000000031094, -0.4166979571705383 
3.5800000000031305, -0.41126186121155517 
3.5900000000031516, -0.40677369293868704 
3.6000000000031727, -0.40333754967532914 
3.6100000000031938, -0.4008351648720492 
3.620000000003215, -0.39906960202320263 
3.630000000003236, -0.3978500143808079 
3.640000000003257, -0.39702308972447115 
3.650000000003278, -0.396476575618718 
3.6600000000032993, -0.39613275090965855 
3.6700000000033204, -0.3959402710188439 
3.6800000000033415, -0.3958673781879809 
3.6900000000033626, -0.39589712055717136 
3.7000000000033837, -0.39602439779280607 
3.710000000003405, -0.39625438345315567 
3.720000000003426, -0.39660168826930053 
3.730000000003447, -0.3970893118327691 
3.740000000003468, -0.39774595637026194 
3.750000000003489, -0.3985998556787932 
3.7600000000035103, -0.3996675119185119 
3.7700000000035314, -0.4009377959262287 
3.7800000000035525, -0.4023568416107735 
3.7900000000035736, -0.4038251389014952 
3.8000000000035947, -0.40521720373187053 
3.810000000003616, -0.4064192160527206 
3.820000000003637, -0.40736219275809377 
3.830000000003658, -0.40803048626848587 
3.840000000003679, -0.40844676789534196 
3.8500000000037002, -0.40864942675140525 
3.8600000000037213, -0.4086751393581004 
3.8700000000037424, -0.40854959213603886 
3.8800000000037635, -0.40828372935709367 
3.8900000000037847, -0.4078722529065527 
3.9000000000038058, -0.40729254532356585 
3.910000000003827, -0.40650411552907384 
3.920000000003848, -0.4054509715936219 
3.930000000003869, -0.40407183642437516 
3.94000000000389, -0.40232343567884926 
3.9500000000039113, -0.4002147723356691 
3.9600000000039324, -0.3978339448037457 
3.9700000000039535, -0.3953399719781271 
3.9800000000039746, -0.3929136189934596 
3.9900000000039957, -0.3906986967173478 
4.000000000004016, -0.38877153920055935 
4.010000000003993, -0.387146251245151 
4.02000000000397, -0.38579804797086964 
4.030000000003946, -0.3846864386277678 
4.040000000003923, -0.38377063573374254 
4.0500000000039, -0.3830173776389131 
4.0600000000038765, -0.38240393682578855 
4.070000000003853, -0.381918935010739 
4.08000000000383, -0.38156274279853186 
4.090000000003807, -0.3813485274921711 
4.100000000003783, -0.3813045911044139 
4.11000000000376, -0.3814784196423887 
4.120000000003737, -0.3819426183599689 
4.130000000003713, -0.3828022121786386 
4.14000000000369, -0.3842008221071518 
4.150000000003667, -0.3863186089911041 
4.1600000000036434, -0.38934654474412506 
4.17000000000362, -0.39341359524491853 
4.180000000003597, -0.3984561229599376 
4.1900000000035735, -0.4040875364326122 
4.20000000000355, -0.4096251908701947 
4.210000000003527, -0.41437395043285274 
4.220000000003504, -0.41796607037120415 
4.23000000000348, -0.42043811788034857 
4.240000000003457, -0.4220469950747063 
4.250000000003434, -0.42306917339651645 
4.26000000000341, -0.42371201886830223 
4.270000000003387, -0.42410836999759055 
4.280000000003364, -0.4243377310120067 
4.2900000000033405, -0.4244464213112111 
4.300000000003317, -0.4244607472950318 
4.310000000003294, -0.42439464437554364 
4.320000000003271, -0.4242542144266971 
4.330000000003247, -0.42404103995187203 
4.340000000003224, -0.42375553377702335 
4.350000000003201, -0.42340089602282927 
4.360000000003177, -0.4229872062231731 
4.370000000003154, -0.4225339147572479 
4.380000000003131, -0.42206852967374486 
4.390000000003107, -0.42162077742110676 
4.400000000003084, -0.42121438765848424 
4.410000000003061, -0.42086044174054865 
4.4200000000030375, -0.4205553261161972 
4.430000000003014, -0.4202837543030464 
4.440000000002991, -0.4200249616474715 
4.450000000002968, -0.4197590936968349 
4.460000000002944, -0.41947131880771593 
4.470000000002921, -0.4191528770940957 
4.480000000002898, -0.4187999133873762 
4.490000000002874, -0.4184115316950755 
4.500000000002851, -0.41798811978734945 
4.510000000002828, -0.4175302880610423 
4.520000000002804, -0.41703815731470845 
4.530000000002781, -0.41651011524290427 
4.540000000002758, -0.4159390918233988 
4.5500000000027345, -0.41530237066704895 
4.560000000002711, -0.41453838786272373 
4.570000000002688, -0.41350569648384095 
4.580000000002665, -0.41194014980931354 
4.590000000002641, -0.4094803817830986 
4.600000000002618, -0.4058613822340809 
4.610000000002595, -0.40121579336512553 
4.620000000002571, -0.39614809616881996 
4.630000000002548, -0.3914036572778684 
4.640000000002525, -0.38747392473145736 
4.6500000000025015, -0.384490577023582 
4.660000000002478, -0.3823508283218312 
4.670000000002455, -0.3808695703797817 
4.6800000000024315, -0.3798676948579566 
4.690000000002408, -0.3792034631055238 
4.700000000002385, -0.37877512791279266 
4.710000000002362, -0.37851382274418016 
4.720000000002338, -0.37837526886342043 
4.730000000002315, -0.3783331329264128 
4.740000000002292, -0.3783745275195289 
4.750000000002268, -0.3784973749334262 
4.760000000002245, -0.3787091130493227 
4.770000000002222, -0.3790260285696539 
4.7800000000021985, -0.379472173186976 
4.790000000002175, -0.38007638158450935 
4.800000000002152, -0.38086563787028777 
4.810000000002129, -0.3818535601385621 
4.820000000002105, -0.3830251654818958 
4.830000000002082, -0.3843240360049186 
4.840000000002059, -0.3856528669738829 
4.850000000002035, -0.386895235018484 
4.860000000002012, -0.3879510345613915 
4.870000000001989, -0.38876389205934997 
4.880000000001965, -0.38932490964488714 
