t, s[1].omega / s[0].omega 
0, -0.22999781283060722 
0.009999999999999995, -0.22984404854163806 
0.019999999999999934, -0.22980723964221964 
0.029999999999999874, -0.22985521988916244 
0.04000000000000012, -0.22994293175918754 
0.050000000000000405, -0.23002326769794776 
0.06000000000000069, -0.2300570472483769 
0.07000000000000098, -0.23001785152531506 
0.08000000000000126, -0.22989057074721425 
0.09000000000000155, -0.22966580277162194 
0.10000000000000184, -0.22933289601029191 
0.11000000000000212, -0.22887301793813322 
0.12000000000000241, -0.22825213215136192 
0.130000000000002, -0.2274134716256791 
0.1400000000000009, -0.22627083260872535 
0.1499999999999998, -0.22470895664698118 
0.1599999999999987, -0.22260515985305065 
0.1699999999999976, -0.21988810779263507 
0.1799999999999965, -0.2166227317332255 
0.1899999999999954, -0.2130537367124817 
0.1999999999999943, -0.20953390446865677 
0.2099999999999932, -0.2063729195392366 
0.2199999999999921, -0.20373292178097285 
0.229999999999991, -0.20162994745324186 
0.2399999999999899, -0.19999408715456418 
0.2499999999999888, -0.19872714546988507 
0.2599999999999877, -0.19773572513268245 
0.2699999999999866, -0.19694414015007475 
0.2799999999999855, -0.19629661982166544 
0.2899999999999844, -0.19575525881186784 
0.2999999999999833, -0.19529698875720874 
0.3099999999999822, -0.1949110240974987 
0.3199999999999811, -0.19459728034738227 
0.32999999999998, -0.19436555460764424 
0.3399999999999789, -0.19423414067799166 
0.3499999999999778, -0.19422384878488283 
0.35999999999997667, -0.1943368561569762 
0.36999999999997557, -0.19449716469033942 
0.37999999999997447, -0.19441940161509302 
0.38999999999997337, -0.19342276354784765 
0.39999999999997227, -0.19043461433176528 
0.40999999999997117, -0.18465416274020602 
0.41999999999997006, -0.17660973237239894 
0.42999999999996896, -0.16807848217882762 
0.43999999999996786, -0.16068691881526337 
0.44999999999996676, -0.15505313032537182 
0.45999999999996566, -0.15103855202909497 
0.46999999999996456, -0.14825292027409617 
0.47999999999996346, -0.14632793200342625 
0.48999999999996235, -0.14499205344568014 
0.49999999999996125, -0.14406511199899127 
0.5099999999999602, -0.14343548333950146 
0.519999999999959, -0.1430405190788406 
0.529999999999958, -0.14285429979343728 
0.5399999999999568, -0.14288240730101498 
0.5499999999999557, -0.14316312869140255 
0.5599999999999546, -0.14377527069092147 
0.5699999999999535, -0.1448533263643649 
0.5799999999999524, -0.14660942930213744 
0.5899999999999513, -0.14935368196709203 
0.5999999999999502, -0.15347892811240935 
0.6099999999999491, -0.15932096705204427 
0.619999999999948, -0.16677009191780529 
0.6299999999999469, -0.17474902537079826 
0.6399999999999458, -0.18133899882384488 
0.6499999999999447, -0.1851265909121037 
0.6599999999999436, -0.18628827220641628 
0.6699999999999425, -0.18596319740530226 
0.6799999999999414, -0.1851446084846476 
0.6899999999999403, -0.18433038858838022 
0.6999999999999392, -0.18367899558413353 
0.7099999999999381, -0.18320312334979166 
0.719999999999937, -0.18287365942138753 
0.7299999999999359, -0.18265967716924858 
0.7399999999999348, -0.18254014423332016 
0.7499999999999337, -0.18250610625996397 
0.7599999999999326, -0.18256086281365597 
0.7699999999999315, -0.18272073931462854 
0.7799999999999304, -0.1830172061949769 
0.7899999999999293, -0.1835003119486539 
0.7999999999999282, -0.18424268107431463 
0.8099999999999271, -0.18534192211149036 
0.819999999999926, -0.18691623653351863 
0.8299999999999249, -0.18908284379488494 
0.8399999999999238, -0.191905490918612 
0.8499999999999227, -0.1953110695238973 
0.8599999999999216, -0.19902392379790235 
0.8699999999999205, -0.2026124013734869 
0.8799999999999194, -0.20567148079560577 
0.8899999999999183, -0.20799871294235092 
0.8999999999999172, -0.20961448197350036 
0.9099999999999161, -0.2106600745913365 
0.919999999999915, -0.2112946594066198 
0.9299999999999139, -0.2116458366136436 
0.9399999999999128, -0.2118010972026508 
0.9499999999999117, -0.211815537346687 
0.9599999999999106, -0.21172222454578948 
0.9699999999999095, -0.2115411003169163 
0.9799999999999084, -0.21128634029058055 
0.9899999999999073, -0.21097286689914538 
0.9999999999999062, -0.2106219539663981 
1.0099999999999052, -0.21026460267363864 
1.019999999999904, -0.20994080460546966 
1.029999999999903, -0.20969398361520503 
1.039999999999902, -0.20956220682724896 
1.0499999999999008, -0.20956900671170692 
1.0599999999998997, -0.20971608316073825 
1.0699999999998986, -0.2099796441646738 
1.0799999999998975, -0.2103127989003087 
1.0899999999998964, -0.21065572484816802 
1.0999999999998953, -0.21095088518330693 
1.1099999999998942, -0.211155868704101 
1.119999999999893, -0.2112475834276041 
1.129999999999892, -0.21121779184496953 
1.1399999999998909, -0.21106453249071203 
1.1499999999998898, -0.2107836532403927 
1.1599999999998887, -0.21036208811814192 
1.1699999999998876, -0.20977282298166564 
1.1799999999998865, -0.20897179836584265 
1.1899999999998854, -0.20789921210501383 
1.1999999999998843, -0.20649100475322152 
1.2099999999998832, -0.20470708674459806 
1.219999999999882, -0.20257301629654229 
1.229999999999881, -0.20020907240045674 
1.2399999999998799, -0.19781020702513125 
1.2499999999998788, -0.19557605093971583 
1.2599999999998777, -0.19364141642841456 
1.2699999999998766, -0.19205327679931855 
1.2799999999998755, -0.19079081389079863 
1.2899999999998744, -0.18979850928595055 
1.2999999999998733, -0.18901184761046058 
1.3099999999998722, -0.18837153742697949 
1.319999999999871, -0.18782932481776968 
1.32999999999987, -0.1873489166871871 
1.3399999999998689, -0.18690432889569436 
1.3499999999998678, -0.18647701520164267 
1.3599999999998666, -0.1860523828701351 
1.3699999999998655, -0.18561543359436788 
1.3799999999998644, -0.18514400400719624 
1.3899999999998633, -0.18459597684699341 
1.3999999999998622, -0.18388348775916397 
1.4099999999998611, -0.18282438119288152 
1.41999999999986, -0.1810708522044239 
1.429999999999859, -0.17807077862324686 
1.4399999999998578, -0.17323294950785822 
1.4499999999998567, -0.16643640682311958 
1.4599999999998556, -0.15848388410543598 
1.4699999999998545, -0.15074176531438205 
1.4799999999998534, -0.14424346568205054 
1.4899999999998523, -0.13929616266284156 
1.4999999999998512, -0.13571805105440687 
1.5099999999998501, -0.13317689455493517 
1.519999999999849, -0.1313692384542253 
1.529999999999848, -0.13006953586022413 
1.5399999999998468, -0.12912528255524175 
1.5499999999998457, -0.12843979006372158 
1.5599999999998446, -0.12795712209631638 
1.5699999999998435, -0.1276524430552955 
1.5799999999998424, -0.1275277983950171 
1.5899999999998413, -0.12761297656267873 
1.5999999999998402, -0.12797134678675198 
1.6099999999998391, -0.12871003731350927 
1.619999999999838, -0.12998990923520531 
1.629999999999837, -0.13201683103953304 
1.6399999999998358, -0.13495983450365082 
1.6499999999998347, -0.13869086947225479 
1.6599999999998336, -0.14231805529461125 
1.6699999999998325, -0.14403317587322564 
1.6799999999998314, -0.14229683791674547 
1.6899999999998303, -0.13756535737572737 
1.6999999999998292, -0.13185254256543166 
1.709999999999828, -0.12680551413898453 
1.719999999999827, -0.12298322044646663 
1.729999999999826, -0.12028614209822638 
1.7399999999998248, -0.11843300011439 
1.7499999999998237, -0.11716905122815753 
1.7599999999998226, -0.11631284679971762 
1.7699999999998215, -0.11574877136836108 
1.7799999999998204, -0.1154106107280585 
1.7899999999998193, -0.11526912789616525 
1.7999999999998182, -0.1153258857782166 
1.809999999999817, -0.11561322040889462 
1.819999999999816, -0.11620046606304572 
1.8299999999998149, -0.11720710653431313 
1.8399999999998138, -0.1188229409473168 
1.8499999999998127, -0.12133013194774467 
1.8599999999998116, -0.1251035277423879 
1.8699999999998105, -0.13052177971382523 
1.8799999999998094, -0.13767577136406348 
1.8899999999998083, -0.145888367105313 
1.8999999999998072, -0.15358029498275344 
1.909999999999806, -0.15917275230562888 
1.919999999999805, -0.16225256233075142 
1.9299999999998039, -0.16349522742644274 
1.9399999999998028, -0.16377920213919156 
1.9499999999998017, -0.16368498476833426 
1.9599999999998006, -0.16348985521923415 
1.9699999999997995, -0.16330006752259296 
1.9799999999997984, -0.16314826607381644 
1.9899999999997973, -0.16304170414129604 
1.9999999999997962, -0.1629824243946823 
2.0099999999998173, -0.16297533512203768 
2.0199999999998384, -0.16303204465972373 
2.0299999999998595, -0.1631737836011349 
2.0399999999998806, -0.16343464911990596 
2.0499999999999017, -0.1638653457842404 
2.059999999999923, -0.16453670613246277 
2.069999999999944, -0.16554082590146163 
2.079999999999965, -0.16698476526256198 
2.089999999999986, -0.168967369878239 
2.100000000000007, -0.1715285857535869 
2.1100000000000283, -0.17457707097769906 
2.1200000000000494, -0.17784608910763533 
2.1300000000000705, -0.18095454056222895 
2.1400000000000916, -0.183570188297082 
2.1500000000001127, -0.1855431086294829 
2.160000000000134, -0.1869047994033765 
2.170000000000155, -0.1877787704129602 
2.180000000000176, -0.1882987025386161 
2.190000000000197, -0.18857081673698084 
2.2000000000002182, -0.18866796351662107 
2.2100000000002393, -0.18863619140004753 
2.2200000000002604, -0.18850351627493128 
2.2300000000002815, -0.18828783213815753 
2.2400000000003026, -0.18800388088000672 
2.2500000000003237, -0.18766954877729616 
2.260000000000345, -0.18731083845977176 
2.270000000000366, -0.18696381279312133 
2.280000000000387, -0.18667193721577538 
2.290000000000408, -0.18647906623569105 
2.3000000000004293, -0.18642033387266113 
2.3100000000004504, -0.18651345596796046 
2.3200000000004715, -0.18675204147231844 
2.3300000000004926, -0.1871028235929066 
2.3400000000005137, -0.18750997528827792 
2.3500000000005348, -0.1879079728016097 
2.360000000000556, -0.18823845943718576 
2.370000000000577, -0.18846224855667576 
2.380000000000598, -0.1885609872968078 
2.390000000000619, -0.1885304223126533 
2.4000000000006403, -0.18837086522969237 
2.4100000000006614, -0.18807891275255434 
2.4200000000006825, -0.1876416075534453 
2.4300000000007036, -0.18703298226064674 
2.4400000000007247, -0.18621376366489356 
2.450000000000746, -0.1851372116925229 
2.460000000000767, -0.18376569282852426 
2.470000000000788, -0.18209907338778458 
2.480000000000809, -0.18020303927884346 
2.49000000000083, -0.17821167612805164 
2.5000000000008513, -0.17628901642810202 
2.5100000000008724, -0.17457128264246846 
2.5200000000008935, -0.17313032533890066 
2.5300000000009146, -0.17197398178363876 
2.5400000000009357, -0.17106798574466758 
2.550000000000957, -0.1703593604601419 
2.560000000000978, -0.16979251277325982 
2.570000000000999, -0.16931793969204342 
2.58000000000102, -0.16889571484201577 
2.5900000000010412, -0.1684954783814731 
2.6000000000010624, -0.1680941191158462 
2.6100000000010835, -0.167671975469822 
2.6200000000011046, -0.16720777737725417 
2.6300000000011257, -0.16667154309731397 
2.6400000000011468, -0.166013261608002 
2.650000000001168, -0.16514370769278497 
2.660000000001189, -0.16390403897535316 
2.67000000000121, -0.16203017445631934 
2.680000000001231, -0.15915139290930957 
2.6900000000012523, -0.1549161039071077 
2.7000000000012734, -0.14929965090907155 
2.7100000000012945, -0.14286323437148304 
2.7200000000013156, -0.13654938130161293 
2.7300000000013367, -0.13112719938139558 
2.740000000001358, -0.12688502464634527 
2.750000000001379, -0.12373643694294803 
2.7600000000014, -0.1214479362544939 
2.770000000001421, -0.11978390693214211 
2.780000000001442, -0.11855822279251346 
2.7900000000014633, -0.11763890782061723 
2.8000000000014844, -0.11693819141661488 
2.8100000000015055, -0.11640143368572131 
2.8200000000015266, -0.11599885752430406 
2.8300000000015477, -0.11572062538552681 
2.840000000001569, -0.11557482781023751 
2.85000000000159, -0.11558740075154095 
2.860000000001611, -0.11580139919523673 
2.870000000001632, -0.11626801732142802 
2.8800000000016532, -0.11700867903122607 
2.8900000000016743, -0.11790364535421527 
2.9000000000016954, -0.11845892616027312 
2.9100000000017165, -0.11756745098039187 
2.9200000000017377, -0.11384171172880926 
2.9300000000017588, -0.10695754406730547 
2.94000000000178, -0.09849309762552591 
2.950000000001801, -0.09060548574435853 
2.960000000001822, -0.08443030164739043 
2.970000000001843, -0.08002075010257331 
2.9800000000018643, -0.07698614173296436 
2.9900000000018854, -0.0749099142022297 
3.0000000000019065, -0.07347859566224182 
3.0100000000019276, -0.07248479200911925 
3.0200000000019487, -0.07180072569177778 
3.03000000000197, -0.07135428538251709 
3.040000000001991, -0.07111385088614003 
3.050000000002012, -0.07108145380750283 
3.060000000002033, -0.07129326660189753 
3.070000000002054, -0.07182717657617381 
3.0800000000020753, -0.07281721622465823 
3.0900000000020964, -0.07447067409803113 
3.1000000000021175, -0.07706692369343601 
3.1100000000021386, -0.0808692199829048 
3.1200000000021597, -0.08580464794971943 
3.130000000002181, -0.09085766434644853 
3.140000000002202, -0.09387372286001572 
3.150000000002223, -0.09308780554493608 
3.160000000002244, -0.08910800056097229 
3.1700000000022652, -0.08411615592950508 
3.1800000000022863, -0.07972680044885319 
3.1900000000023074, -0.07642846851704041 
3.2000000000023285, -0.07411022794174912 
3.2100000000023496, -0.0725181925353856 
3.2200000000023707, -0.07143248082328 
3.230000000002392, -0.07070103818166121 
3.240000000002413, -0.07023052151314499 
3.250000000002434, -0.06997203171996372 
3.260000000002455, -0.0699116939352302 
3.2700000000024763, -0.07006776692936158 
3.2800000000024974, -0.07049458452665781 
3.2900000000025185, -0.07129417297645499 
3.3000000000025396, -0.07263668811100549 
3.3100000000025607, -0.07478781800466687 
3.3200000000025818, -0.07812650275042066 
3.330000000002603, -0.08309139077005508 
3.340000000002624, -0.08991470149089133 
3.350000000002645, -0.09803996229426144 
3.360000000002666, -0.10570483478189183 
3.3700000000026873, -0.11084676364487282 
3.3800000000027084, -0.11286459186832762 
3.3900000000027295, -0.11276505622530761 
3.4000000000027506, -0.1118193669122219 
3.4100000000027717, -0.11077312054333824 
3.420000000002793, -0.10989840701316492 
3.430000000002814, -0.10924062916822123 
3.440000000002835, -0.10877272265155957 
3.450000000002856, -0.10845835748315555 
3.460000000002877, -0.10827173459674214 
3.4700000000028983, -0.10820217756678188 
3.4800000000029194, -0.1082552228452179 
3.4900000000029405, -0.10845446770104072 
3.5000000000029616, -0.10884578599496963 
3.5100000000029827, -0.1095046691568966 
3.520000000003004, -0.11054674772647462 
3.530000000003025, -0.11213929702006153 
3.540000000003046, -0.11450455900108729 
3.550000000003067, -0.11788961689379389 
3.5600000000030882, -0.12245686011017731 
3.5700000000031094, -0.12807030124619065 
3.5800000000031305, -0.13410741559156408 
3.5900000000031516, -0.13961351082869625 
3.6000000000031727, -0.14384560217535863 
3.6100000000031938, -0.14665211762458533 
3.620000000003215, -0.1483258205897642 
3.630000000003236, -0.1492602631424056 
3.640000000003257, -0.14976013819247622 
3.650000000003278, -0.1500148804290059 
3.6600000000032993, -0.1501316544273029 
3.6700000000033204, -0.15016995315745607 
3.6800000000033415, -0.15016457288891827 
3.6900000000033626, -0.15013916491487306 
3.7000000000033837, -0.15011446247818244 
3.710000000003405, -0.15011392124539327 
3.720000000003426, -0.15016801487202378 
3.730000000003447, -0.15031731414126265 
3.740000000003468, -0.15061373628669947 
3.750000000003489, -0.15111876927935924 
3.7600000000035103, -0.15189655936164648 
3.7700000000035314, -0.1529984685598991 
3.7800000000035525, -0.15443655042779364 
3.7900000000035736, -0.1561519443264258 
3.8000000000035947, -0.15800095580742501 
3.810000000003616, -0.15978656324762666 
3.820000000003637, -0.16132995616866427 
3.830000000003658, -0.16253174912875507 
3.840000000003679, -0.1633809257457241 
3.8500000000037002, -0.16392199988426356 
3.8600000000037213, -0.16421643764857977 
3.8700000000037424, -0.16431898489458108 
3.8800000000037635, -0.16426922632030544 
3.8900000000037847, -0.16409180792586683 
3.9000000000038058, -0.16380039182423223 
3.910000000003827, -0.16340337294249097 
3.920000000003848, -0.162910878624618 
3.930000000003869, -0.16234218946613732 
3.94000000000389, -0.16173105759860595 
3.9500000000039113, -0.16112536167575728 
3.9600000000039324, -0.16057951579461158 
3.9700000000039535, -0.16014253451298346 
3.9800000000039746, -0.15984722937390056 
3.9900000000039957, -0.15970399094164384 
4.000000000004016, -0.1596992169471662 
4.010000000003993, -0.15979777323415806 
4.02000000000397, -0.15994995745691665 
4.030000000003946, -0.16010248872296767 
4.040000000003923, -0.16020977653797522 
4.0500000000039, -0.160240349906446 
4.0600000000038765, -0.16017627371272533 
4.070000000003853, -0.160007509384738 
4.08000000000383, -0.1597246142323694 
4.090000000003807, -0.15931197592198507 
4.100000000003783, -0.15874230538487993 
4.11000000000376, -0.15797303340225557 
4.120000000003737, -0.15694705445584944 
4.130000000003713, -0.15560332663829207 
4.14000000000369, -0.15390367406952254 
4.150000000003667, -0.15187287575213032 
4.1600000000036434, -0.1496271077292355 
4.17000000000362, -0.14735499814352296 
4.180000000003597, -0.14524969660106177 
4.1900000000035735, -0.14344099073763644 
4.20000000000355, -0.14197288326047044 
4.210000000003527, -0.14082332852902557 
4.220000000003504, -0.13993640484803305 
4.23000000000348, -0.13924699039584082 
4.240000000003457, -0.13869435606333194 
4.250000000003434, -0.13822790332801915 
4.26000000000341, -0.13780827542405408 
4.270000000003387, -0.13740569136465594 
4.280000000003364, -0.13699652287779715 
4.2900000000033405, -0.13655858387951877 
4.300000000003317, -0.13606483296271446 
4.310000000003294, -0.13547406098486764 
4.320000000003271, -0.13471580902681685 
4.330000000003247, -0.13366631597523956 
4.340000000003224, -0.13211718508948125 
4.350000000003201, -0.12975980275799126 
4.360000000003177, -0.12625307137532696 
4.370000000003154, -0.12145095863431232 
4.380000000003131, -0.11568664204239773 
4.390000000003107, -0.10974890271280394 
4.400000000003084, -0.10443782365407914 
4.410000000003061, -0.10016660273830233 
4.4200000000030375, -0.09694906896587692 
4.430000000003014, -0.09459772342340109 
4.440000000002991, -0.09288809629709041 
4.450000000002968, -0.09163075998409197 
4.460000000002944, -0.09068627332023402 
4.470000000002921, -0.08995878993908545 
4.480000000002898, -0.08938550814841202 
4.490000000002874, -0.08892760919386189 
4.500000000002851, -0.08856370082830776 
4.510000000002828, -0.08828521654496879 
4.520000000002804, -0.08809231610903101 
4.530000000002781, -0.08798708111445053 
4.540000000002758, -0.08795641702052166 
4.5500000000027345, -0.08792781961284227 
4.560000000002711, -0.08766988052347569 
4.570000000002688, -0.0866301379157271 
4.580000000002665, -0.08386018803378974 
4.590000000002641, -0.07846436384663931 
4.600000000002618, -0.07065482718510613 
4.610000000002595, -0.06206819659914732 
4.620000000002571, -0.05448501572817962 
4.630000000002548, -0.04868675533808447 
4.640000000002525, -0.04457670545056719 
4.6500000000025015, -0.041742465210581524 
4.660000000002478, -0.03978632737698349 
4.670000000002455, -0.03841645390236541 
4.6800000000024315, -0.037440348652600805 
4.690000000002408, -0.03673802095969763 
4.700000000002385, -0.036239182525462835 
4.710000000002362, -0.03590847834915362 
4.720000000002338, -0.03573756544822736 
4.730000000002315, -0.035742181259476556 
4.740000000002292, -0.03596196129079522 
4.750000000002268, -0.03645807964171364 
4.760000000002245, -0.037294425785941485 
4.770000000002222, -0.038464461250440764 
4.7800000000021985, -0.03969216742494825 
4.790000000002175, -0.04008896192649648 
4.800000000002152, -0.03807385989548749 
4.810000000002129, -0.03248296296324524 
