t, s[1].omega / s[0].omega 
0, -0.49999775699579185 
0.009999999999999995, -0.4997904890113848 
0.019999999999999934, -0.4996102107152825 
0.029999999999999874, -0.4994394480725193 
0.04000000000000012, -0.499256450499603 
0.050000000000000405, -0.4990420853004567 
0.06000000000000069, -0.49878408925180195 
0.07000000000000098, -0.49847774509251447 
0.08000000000000126, -0.49812423065316447 
0.09000000000000155, -0.4977286052103456 
0.10000000000000184, -0.4972988576666183 
0.11000000000000212, -0.49684666613293615 
0.12000000000000241, -0.4963900948788219 
0.130000000000002, -0.49595828008298615 
0.1400000000000009, -0.4955976734662908 
0.1499999999999998, -0.49537761924768275 
0.1599999999999987, -0.4953883752658337 
0.1699999999999976, -0.4957162858747239 
0.1799999999999965, -0.4963750993257491 
0.1899999999999954, -0.49719677727911565 
0.1999999999999943, -0.49777548353411694 
0.2099999999999932, -0.4976373599286408 
0.2199999999999921, -0.49661322047802636 
0.229999999999991, -0.49501147497736164 
0.2399999999999899, -0.49335210840569327 
0.2499999999999888, -0.4920055085132418 
0.2599999999999877, -0.49108420936870223 
0.2699999999999866, -0.49053359452045003 
0.2799999999999855, -0.49024445455435056 
0.2899999999999844, -0.4901149879375451 
0.2999999999999833, -0.49006993767520246 
0.3099999999999822, -0.4900595526355819 
0.3199999999999811, -0.49005270801178735 
0.32999999999998, -0.4900301726255032 
0.3399999999999789, -0.4899797787728749 
0.3499999999999778, -0.48989371982995733 
0.35999999999997667, -0.48976781069777653 
0.36999999999997557, -0.48960236536616764 
0.37999999999997447, -0.4894038989980191 
0.38999999999997337, -0.4891861525243849 
0.39999999999997227, -0.4889686122478099 
0.40999999999997117, -0.48877164343596735 
0.41999999999997006, -0.4886095151714045 
0.42999999999996896, -0.48848445576879457 
0.43999999999996786, -0.48838488231646676 
0.44999999999996676, -0.4882889609364532 
0.45999999999996566, -0.4881718079260985 
0.46999999999996456, -0.48801268281786986 
0.47999999999996346, -0.48779895168706444 
0.48999999999996235, -0.4875260642444735 
0.49999999999996125, -0.48719510006726646 
0.5099999999999602, -0.4868100149945188 
0.519999999999959, -0.4863759528811301 
0.529999999999958, -0.4858990548262108 
0.5399999999999568, -0.48538766825174084 
0.5499999999999557, -0.4848545362148866 
0.5599999999999546, -0.48431879627212215 
0.5699999999999535, -0.4838044624338852 
0.5799999999999524, -0.4833274761727936 
0.5899999999999513, -0.482857855999936 
0.5999999999999502, -0.48224932317795516 
0.6099999999999491, -0.4811767207747704 
0.619999999999948, -0.479212552776776 
0.6299999999999469, -0.4761419038404977 
0.6399999999999458, -0.4722734713633104 
0.6499999999999447, -0.46831520678032384 
0.6599999999999436, -0.4649084465860138 
0.6699999999999425, -0.4623365787880755 
0.6799999999999414, -0.46056992066937924 
0.6899999999999403, -0.45943631958130215 
0.6999999999999392, -0.4587462680440121 
0.7099999999999381, -0.45834535018798117 
0.719999999999937, -0.4581234093187426 
0.7299999999999359, -0.4580072274476351 
0.7399999999999348, -0.4579501072618625 
0.7499999999999337, -0.4579231166230137 
0.7599999999999326, -0.4579090146824913 
0.7699999999999315, -0.45789865941910585 
0.7799999999999304, -0.4578894062393665 
0.7899999999999293, -0.4578848546297508 
0.7999999999999282, -0.4578949747105363 
0.8099999999999271, -0.4579352470319712 
0.819999999999926, -0.4580234639258297 
0.8299999999999249, -0.4581737749025834 
0.8399999999999238, -0.45838931141012873 
0.8499999999999227, -0.4586564493264474 
0.8599999999999216, -0.4589443007139605 
0.8699999999999205, -0.4592112677247374 
0.8799999999999194, -0.4594164244145196 
0.8899999999999183, -0.45952987887046054 
0.8999999999999172, -0.45953692399461676 
0.9099999999999161, -0.4594353620130711 
0.919999999999915, -0.4592292393699634 
0.9299999999999139, -0.45892247701305544 
0.9399999999999128, -0.45851388210337357 
0.9499999999999117, -0.45799312733229663 
0.9599999999999106, -0.4573362606681915 
0.9699999999999095, -0.4564987289917567 
0.9799999999999084, -0.45540330262146167 
0.9899999999999073, -0.45392022163389995 
0.9999999999999062, -0.45184070253604675 
1.0099999999999052, -0.44886118063690883 
1.019999999999904, -0.4446311455411168 
1.029999999999903, -0.43893626633786925 
1.039999999999902, -0.4319766700270972 
1.0499999999999008, -0.42446633168936054 
1.0599999999998997, -0.41733059576988907 
1.0699999999998986, -0.41125195314473995 
1.0799999999998975, -0.4064774324451614 
1.0899999999998964, -0.4029241474108064 
1.0999999999998953, -0.4003661230189395 
1.1099999999998942, -0.3985619046430645 
1.119999999999893, -0.39730894754336543 
1.129999999999892, -0.3964550526962003 
1.1399999999998909, -0.3958926260527075 
1.1499999999998898, -0.39554892855989465 
1.1599999999998887, -0.3953773444941937 
1.1699999999998876, -0.3953509871499514 
1.1799999999998865, -0.3954586120442279 
1.1899999999998854, -0.3957024127994789 
1.1999999999998843, -0.39609712415231024 
1.2099999999998832, -0.3966696024579186 
1.219999999999882, -0.3974575176775303 
1.229999999999881, -0.3985049482375115 
1.2399999999998799, -0.3998518528671336 
1.2499999999998788, -0.40151481660230237 
1.2599999999998777, -0.4034607346297233 
1.2699999999998766, -0.40558527215271506 
1.2799999999998755, -0.407717988868625 
1.2899999999998744, -0.40966757346094146 
1.2999999999998733, -0.4112867245046067 
1.3099999999998722, -0.41251223307440155 
1.319999999999871, -0.4133582270839519 
1.32999999999987, -0.41388109724115163 
1.3399999999998689, -0.4141454577181526 
1.3499999999998678, -0.4142044037293585 
1.3599999999998666, -0.4140921171536106 
1.3699999999998655, -0.4138225812201898 
1.3799999999998644, -0.4133899424160089 
1.3899999999998633, -0.4127689087146222 
1.3999999999998622, -0.4119161533986408 
1.4099999999998611, -0.4107762481698426 
1.41999999999986, -0.4092974566398332 
1.429999999999859, -0.4074601055548387 
1.4399999999998578, -0.4053086332105818 
1.4499999999998567, -0.4029634643838672 
1.4599999999998556, -0.4005928702920512 
1.4699999999998545, -0.39835716411566197 
1.4799999999998534, -0.396363054420345 
1.4899999999998523, -0.3946520968396272 
1.4999999999998512, -0.39321639574371015 
1.5099999999998501, -0.39202229342898853 
1.519999999999849, -0.3910293757008094 
1.529999999999848, -0.3902016613786475 
1.5399999999998468, -0.38951270439966124 
1.5499999999998457, -0.38894734291326116 
1.5599999999998446, -0.3885023113431812 
1.5699999999998435, -0.3881871841339163 
1.5799999999998424, -0.3880265894956546 
1.5899999999998413, -0.388064374168808 
1.5999999999998402, -0.3883702827816972 
1.6099999999998391, -0.38904941400807974 
1.619999999999838, -0.39025351751453613 
1.629999999999837, -0.3921895849889017 
1.6399999999998358, -0.3951126288368967 
1.6499999999998347, -0.39927480151392175 
1.6599999999998336, -0.40479350849795753 
1.6699999999998325, -0.4114422455590782 
1.6799999999998314, -0.4185114012583563 
1.6899999999998303, -0.4250015933421093 
1.6999999999998292, -0.43014122511884156 
1.709999999999828, -0.4337426452973158 
1.719999999999827, -0.4360775490051722 
1.729999999999826, -0.4375445550307145 
1.7399999999998248, -0.43846568621132687 
1.7499999999998237, -0.43904742455119206 
1.7599999999998226, -0.4394097883636438 
1.7699999999998215, -0.4396205210852656 
1.7799999999998204, -0.4397176868085082 
1.7899999999998193, -0.43972212380289283 
1.7999999999998182, -0.43964402297285127 
1.809999999999817, -0.4394868086513023 
1.819999999999816, -0.4392503256221804 
1.8299999999998149, -0.43893453585594855 
1.8399999999998138, -0.4385440517846929 
1.8499999999998127, -0.4380924957792781 
1.8599999999998116, -0.43760430083044427 
1.8699999999998105, -0.43711161251290065 
1.8799999999998094, -0.4366464162430363 
1.8899999999998083, -0.43623132352436045 
1.8999999999998072, -0.4358735389283341 
1.909999999999806, -0.4355645553018693 
1.919999999999805, -0.4352850497137483 
1.9299999999998039, -0.4350122362247081 
1.9399999999998028, -0.434726347104964 
1.9499999999998017, -0.43441404949929047 
1.9599999999998006, -0.43406865888743573 
1.9699999999997995, -0.4336885286704405 
1.9799999999997984, -0.43327522292227433 
1.9899999999997973, -0.4328324611954784 
1.9999999999997962, -0.43236611602588393 
2.0099999999998173, -0.43188500910471 
2.0199999999998384, -0.431401574107773 
2.0299999999998595, -0.43092986507052206 
2.0399999999998806, -0.4304748051906172 
2.0499999999999017, -0.4300008688924109 
2.059999999999923, -0.42936732882517614 
2.069999999999944, -0.4282466070558306 
2.079999999999965, -0.426133667531955 
2.089999999999986, -0.42261739727486114 
2.100000000000007, -0.4178269536142952 
2.1100000000000283, -0.4125262719264084 
2.1200000000000494, -0.40762784004527475 
2.1300000000000705, -0.4036809220677341 
2.1400000000000916, -0.4007875005956342 
2.1500000000001127, -0.3987921758131834 
2.160000000000134, -0.3974689266322745 
2.170000000000155, -0.3966151712706246 
2.180000000000176, -0.39607834608897285 
2.190000000000197, -0.3957529757485345 
2.2000000000002182, -0.39556976056221826 
2.2100000000002393, -0.39548511553450544 
2.2200000000002604, -0.39547342052875273 
2.2300000000002815, -0.39552203203172237 
2.2400000000003026, -0.3956285100032355 
2.2500000000003237, -0.3957993646158061 
2.260000000000345, -0.3960494458963732 
2.270000000000366, -0.39640076984813133 
2.280000000000387, -0.3968792582877194 
2.290000000000408, -0.3975079474014588 
2.3000000000004293, -0.39829621475525995 
2.3100000000004504, -0.39922706790793183 
2.3200000000004715, -0.40024846030716105 
2.3300000000004926, -0.40127712860252907 
2.3400000000005137, -0.4022188121116872 
2.3500000000005348, -0.4029962282303055 
2.360000000000556, -0.40356791632695954 
2.370000000000577, -0.4039283971973677 
2.380000000000598, -0.4040947351518966 
2.390000000000619, -0.40409058082462385 
2.4000000000006403, -0.40393442606433316 
2.4100000000006614, -0.4036326690958945 
2.4200000000006825, -0.4031752157619045 
2.4300000000007036, -0.40253131515507967 
2.4400000000007247, -0.40164466551582007 
2.450000000000746, -0.4004293712105681 
2.460000000000767, -0.3987729806601169 
2.470000000000788, -0.3965589272880729 
2.480000000000809, -0.3937202047487566 
2.49000000000083, -0.3903126555822758 
2.5000000000008513, -0.38655311917322027 
2.5100000000008724, -0.38276469100905325 
2.5200000000008935, -0.37925254466857367 
2.5300000000009146, -0.3762058151829483 
2.5400000000009357, -0.37368179656410405 
2.550000000000957, -0.3716474003115545 
2.560000000000978, -0.37002950476448304 
2.570000000000999, -0.368749425337575 
2.58000000000102, -0.36773979748126373 
2.5900000000010412, -0.36695025709996737 
2.6000000000010624, -0.3663479145117314 
2.6100000000010835, -0.36591631655254575 
2.6200000000011046, -0.3656548057667073 
2.6300000000011257, -0.3655792154797324 
2.6400000000011468, -0.3657244264420145 
2.650000000001168, -0.3661491424083928 
2.660000000001189, -0.36694296859115727 
2.67000000000121, -0.3682349232695711 
2.680000000001231, -0.3701997583264255 
2.6900000000012523, -0.3730520810142245 
2.7000000000012734, -0.3770072855166326 
2.7100000000012945, -0.3821802537619141 
2.7200000000013156, -0.3884188517408021 
2.7300000000013367, -0.39517086815493957 
2.740000000001358, -0.40158768345798396 
2.750000000001379, -0.40691530920848534 
2.7600000000014, -0.4108457703508822 
2.770000000001421, -0.41350927465116116 
2.780000000001442, -0.41522724694595947 
2.7900000000014633, -0.41630823154545116 
2.8000000000014844, -0.41697529986240445 
2.8100000000015055, -0.4173704697218536 
2.8200000000015266, -0.41757899245955665 
2.8300000000015477, -0.4176501949999082 
2.840000000001569, -0.4176109997637873 
2.85000000000159, -0.4174740727268114 
2.860000000001611, -0.41724317471454525 
2.870000000001632, -0.41691777526237345 
2.8800000000016532, -0.41649826152802855 
2.8900000000016743, -0.41599188358372186 
2.9000000000016954, -0.4154177537919882 
2.9100000000017165, -0.41480775726726016 
2.9200000000017377, -0.4142011490512913 
2.9300000000017588, -0.4136343614379336 
2.94000000000178, -0.41313102457167333 
2.950000000001801, -0.41269697806564565 
2.960000000001822, -0.41232174843387615 
2.970000000001843, -0.41198472976143014 
2.9800000000018643, -0.41166280705194913 
2.9900000000018854, -0.4113363690321622 
3.0000000000019065, -0.41099213682653823 
3.0100000000019276, -0.4106231034729585 
3.0200000000019487, -0.41022700098524645 
3.03000000000197, -0.4098047007065513 
3.040000000001991, -0.4093593198589157 
3.050000000002012, -0.40889614263302115 
3.060000000002033, -0.40842285856595206 
3.070000000002054, -0.4079486310644567 
3.0800000000020753, -0.4074782506808642 
3.0900000000020964, -0.4069931470825419 
3.1000000000021175, -0.4064058748334184 
3.1100000000021386, -0.40548185870270503 
3.1200000000021597, -0.40377638300391866 
3.130000000002181, -0.40074344964881525 
3.140000000002202, -0.39614265612548544 
3.150000000002223, -0.39043832598503336 
3.160000000002244, -0.3846168397980945 
3.1700000000022652, -0.37955092721071443 
3.1800000000022863, -0.3756202937756782 
3.1900000000023074, -0.37278999690934006 
3.2000000000023285, -0.3708425715488615 
3.2100000000023496, -0.36953912252693843 
3.2200000000023707, -0.36868405429881135 
3.230000000002392, -0.36813602080592417 
3.240000000002413, -0.3677994523472558 
3.250000000002434, -0.3676127255672447 
3.260000000002455, -0.3675383614339526 
3.2700000000024763, -0.36755626977972844 
3.2800000000024974, -0.36765968659021936 
3.2900000000025185, -0.36785313744313136 
3.3000000000025396, -0.3681516481975082 
3.3100000000025607, -0.36858017505232304 
3.3200000000025818, -0.3691717707514724 
3.330000000002603, -0.3699624917689363 
3.340000000002624, -0.370980942481706 
3.350000000002645, -0.37223169801153594 
3.360000000002666, -0.3736762850379929 
3.3700000000026873, -0.375222815085469 
3.3800000000027084, -0.3767387690101265 
3.3900000000027295, -0.3780893232056087 
3.4000000000027506, -0.37918022708213894 
3.4100000000027717, -0.3799772108475127 
3.420000000002793, -0.3804951495458678 
3.430000000002814, -0.38077296498746704 
3.440000000002835, -0.38085168822644694 
3.450000000002856, -0.38076188029475955 
3.460000000002877, -0.38051831245510015 
3.4700000000028983, -0.3801180032707008 
3.4800000000029194, -0.3795391851838234 
3.4900000000029405, -0.37874108597665096 
3.5000000000029616, -0.3776670990685109 
3.5100000000029827, -0.3762566425164697 
3.520000000003004, -0.3744709396892799 
3.530000000003025, -0.3723291635851341 
3.540000000003046, -0.3699335234093443 
3.550000000003067, -0.367454702081147 
3.5600000000030882, -0.3650761125330789 
3.5700000000031094, -0.3629343622596598 
3.5800000000031305, -0.3610934902933316 
3.5900000000031516, -0.35955559418680016 
3.6000000000031727, -0.35828690158456256 
3.6100000000031938, -0.3572412599350919 
3.620000000003215, -0.3563748308449813 
3.630000000003236, -0.35565309497005565 
3.640000000003257, -0.3550532536271531 
3.650000000003278, -0.3545647207627777 
3.6600000000032993, -0.35418953796746255 
3.6700000000033204, -0.353943881730184 
3.6800000000033415, -0.35386148837898906 
3.6900000000033626, -0.3539997048216938 
3.7000000000033837, -0.3544487025472221 
3.710000000003405, -0.35534350272580106 
3.720000000003426, -0.356875295716952 
3.730000000003447, -0.3592900403291507 
3.740000000003468, -0.36284535171234883 
3.750000000003489, -0.36767943620609644 
3.7600000000035103, -0.3735780712289506 
3.7700000000035314, -0.3797914745725538 
3.7800000000035525, -0.3852391394686797 
3.7900000000035736, -0.3891444609144754 
3.8000000000035947, -0.39146286044588474 
3.810000000003616, -0.3926564177680551 
3.820000000003637, -0.3932332682941663 
3.830000000003658, -0.39352455257542057 
3.840000000003679, -0.39369244739483233 
3.8500000000037002, -0.3938019876712939 
3.8600000000037213, -0.39387495164787706 
3.8700000000037424, -0.3939170369507082 
3.8800000000037635, -0.3939289250257684 
3.8900000000037847, -0.39391013584036744 
3.9000000000038058, -0.39386036548347153 
3.910000000003827, -0.39378041508155365 
3.920000000003848, -0.393673561368338 
3.930000000003869, -0.3935474686383563 
3.94000000000389, -0.3934160034020594 
3.9500000000039113, -0.3932996134505322 
3.9600000000039324, -0.3932228232188314 
3.9700000000039535, -0.39320840915561767 
3.9800000000039746, -0.39326962953889716 
3.9900000000039957, -0.3934034098296388 
4.000000000004016, -0.39358780810381166 
4.010000000003993, -0.3937859939393365 
4.02000000000397, -0.3939560142819086 
4.030000000003946, -0.3940619162251771 
4.040000000003923, -0.3940806537238222 
4.0500000000039, -0.3940022695995683 
4.0600000000038765, -0.3938251036074508 
4.070000000003853, -0.39354939634576136 
4.08000000000383, -0.39317141117697163 
4.090000000003807, -0.3926781962146026 
4.100000000003783, -0.392041731137043 
4.11000000000376, -0.39121050663060153 
4.120000000003737, -0.39009645551105626 
4.130000000003713, -0.38855672387129586 
4.14000000000369, -0.3863769625722763 
4.150000000003667, -0.3832816338243989 
4.1600000000036434, -0.37902083429049244 
4.17000000000362, -0.37355932891140375 
4.180000000003597, -0.36725533525309484 
4.1900000000035735, -0.3608001284550892 
4.20000000000355, -0.35489345243963993 
4.210000000003527, -0.3499512036757999 
4.220000000003504, -0.34606202062468944 
4.23000000000348, -0.3431114830750889 
4.240000000003457, -0.3409149850285183 
4.250000000003434, -0.3392944332097816 
4.26000000000341, -0.33810674758493736 
4.270000000003387, -0.3372475479611856 
4.280000000003364, -0.3366459930226188 
4.2900000000033405, -0.33625830554980074 
4.300000000003317, -0.33606276464247675 
4.310000000003294, -0.33605692205386106 
4.320000000003271, -0.33625711971889805 
4.330000000003247, -0.33670019810072693 
4.340000000003224, -0.33744708858398675 
4.350000000003201, -0.3385873139587606 
4.360000000003177, -0.3402415857485105 
4.370000000003154, -0.34255571034390464 
4.380000000003131, -0.345672687838475 
4.390000000003107, -0.3496661311485879 
4.400000000003084, -0.3544346185127337 
4.410000000003061, -0.3596149760957847 
4.4200000000030375, -0.36463356429181454 
4.430000000003014, -0.36893894014179784 
4.440000000002991, -0.3722440470010052 
4.450000000002968, -0.37456859894555994 
4.460000000002944, -0.3761056646310949 
4.470000000002921, -0.37707697431445636 
4.480000000002898, -0.3776612442189923 
4.490000000002874, -0.37798118157178856 
4.500000000002851, -0.37811382599245574 
4.510000000002828, -0.37810410709508613 
4.520000000002804, -0.37797538838107897 
4.530000000002781, -0.3777368469469486 
4.540000000002758, -0.37738928598894406 
4.5500000000027345, -0.376931096559988 
4.560000000002711, -0.3763653030876276 
4.570000000002688, -0.37570679523299094 
4.580000000002665, -0.3749865021829471 
4.590000000002641, -0.3742486729207599 
4.600000000002618, -0.37354073559131395 
4.610000000002595, -0.37290043375115417 
4.620000000002571, -0.37234682221779347 
4.630000000002548, -0.37187857860732343 
4.640000000002525, -0.371478697300098 
4.6500000000025015, -0.37112234546920936 
4.660000000002478, -0.37078449986007345 
4.670000000002455, -0.3704449898162425 
4.6800000000024315, -0.3700902123003645 
4.690000000002408, -0.36971231223118073 
4.700000000002385, -0.3693072454143659 
4.710000000002362, -0.36887281244288406 
4.720000000002338, -0.3684070041678167 
4.730000000002315, -0.3679062035767035 
4.740000000002292, -0.36736179081932735 
4.750000000002268, -0.36675189367363326 
4.760000000002245, -0.3660217857911945 
4.770000000002222, -0.36504308158259435 
4.7800000000021985, -0.3635484193785942 
4.790000000002175, -0.3610826419915304 
4.800000000002152, -0.35710674583787 
4.810000000002129, -0.351386630525148 
4.820000000002105, -0.344417246675932 
4.830000000002082, -0.3372870458899856 
4.840000000002059, -0.33100582985508725 
4.850000000002035, -0.3260433226590941 
4.860000000002012, -0.3223843444847615 
