t, s[1].omega / s[0].omega 
0, -0.5699977365064249 
0.009999999999999995, -0.5697775271164585 
0.019999999999999934, -0.5695640979931842 
0.029999999999999874, -0.5693437733505747 
0.04000000000000012, -0.5691003018885193 
0.050000000000000405, -0.5688207102995854 
0.06000000000000069, -0.5684986793437325 
0.07000000000000098, -0.5681350107766718 
0.08000000000000126, -0.5677366122767082 
0.09000000000000155, -0.5673158559445692 
0.10000000000000184, -0.5668916180775608 
0.11000000000000212, -0.566492711709579 
0.12000000000000241, -0.5661641845196884 
0.130000000000002, -0.565976898729283 
0.1400000000000009, -0.5660404258334517 
0.1499999999999998, -0.5665177129263015 
0.1599999999999987, -0.5676357551275845 
0.1699999999999976, -0.569677872654131 
0.1799999999999965, -0.5729311152617363 
0.1899999999999954, -0.5775601388833306 
0.1999999999999943, -0.5834225228574459 
0.2099999999999932, -0.5899522396607101 
0.2199999999999921, -0.5963024834447608 
0.229999999999991, -0.6017351996367074 
0.2399999999999899, -0.6059260093015288 
0.2499999999999888, -0.6089415731455243 
0.2599999999999877, -0.6110273037659322 
0.2699999999999866, -0.6124371997227761 
0.2799999999999855, -0.6133690910978424 
0.2899999999999844, -0.6139608125262607 
0.2999999999999833, -0.614303731015114 
0.3099999999999822, -0.6144557785065938 
0.3199999999999811, -0.6144502728057095 
0.32999999999998, -0.6143010436120482 
0.3399999999999789, -0.6140050741697485 
0.3499999999999778, -0.6135440380005207 
0.35999999999997667, -0.6128866592014768 
0.36999999999997557, -0.6119946781239185 
0.37999999999997447, -0.6108352182543213 
0.38999999999997337, -0.6093992820593177 
0.39999999999997227, -0.6077191213591602 
0.40999999999997117, -0.6058717944595883 
0.41999999999997006, -0.6039619486178386 
0.42999999999996896, -0.6020925379626199 
0.43999999999996786, -0.6003411533835896 
0.44999999999996676, -0.5987523499277392 
0.45999999999996566, -0.597343441837976 
0.46999999999996456, -0.5961154778474509 
0.47999999999996346, -0.5950630471696317 
0.48999999999996235, -0.5941805764493753 
0.49999999999996125, -0.5934653857530986 
0.5099999999999602, -0.5929186342655235 
0.519999999999959, -0.5925452071818137 
0.529999999999958, -0.5923532603319213 
0.5399999999999568, -0.5923538441539773 
0.5499999999999557, -0.5925608072285605 
0.5599999999999546, -0.5929909655334716 
0.5699999999999535, -0.593664236689119 
0.5799999999999524, -0.5946030116196447 
0.5899999999999513, -0.595829455208577 
0.5999999999999502, -0.5973588749848429 
0.6099999999999491, -0.599187448311034 
0.619999999999948, -0.6012748611799431 
0.6299999999999469, -0.6035281433390265 
0.6399999999999458, -0.6058001804215072 
0.6499999999999447, -0.6079159005930521 
0.6599999999999436, -0.6097215854713994 
0.6699999999999425, -0.6111292034614593 
0.6799999999999414, -0.6121277035433497 
0.6899999999999403, -0.6127609770087614 
0.6999999999999392, -0.6130945653486644 
0.7099999999999381, -0.6131902372303772 
0.719999999999937, -0.6130932110775922 
0.7299999999999359, -0.6128279073941906 
0.7399999999999348, -0.6123967827181376 
0.7499999999999337, -0.6117784349532911 
0.7599999999999326, -0.6109227034261872 
0.7699999999999315, -0.6097414080675321 
0.7799999999999304, -0.6080947533821529 
0.7899999999999293, -0.6057779043327083 
0.7999999999999282, -0.6025240382717659 
0.8099999999999271, -0.5980591500473802 
0.819999999999926, -0.5922452070621291 
0.8299999999999249, -0.5852749912648946 
0.8399999999999238, -0.5777485742903132 
0.8499999999999227, -0.5704789963954997 
0.8599999999999216, -0.564146650385091 
0.8699999999999205, -0.5590858573231722 
0.8799999999999194, -0.5553046527149769 
0.8899999999999183, -0.5526225492951392 
0.8999999999999172, -0.550798414402225 
0.9099999999999161, -0.5496040833035517 
0.919999999999915, -0.5488529863283305 
0.9299999999999139, -0.5484041254908257 
0.9399999999999128, -0.5481559495327673 
0.9499999999999117, -0.5480376553232263 
0.9599999999999106, -0.5480010877402658 
0.9699999999999095, -0.5480143065471487 
0.9799999999999084, -0.548057023996869 
0.9899999999999073, -0.5481177754265742 
0.9999999999999062, -0.5481924427059305 
1.0099999999999052, -0.5482833919655552 
1.019999999999904, -0.5483980680649184 
1.029999999999903, -0.5485458220378469 
1.039999999999902, -0.5487325693162834 
1.0499999999999008, -0.5489545962571877 
1.0599999999998997, -0.5491945050342971 
1.0699999999998986, -0.5494224056725403 
1.0799999999998975, -0.5496030553955418 
1.0899999999998964, -0.5497057322735021 
1.0999999999998953, -0.549711510684109 
1.1099999999998942, -0.5496146513429392 
1.119999999999893, -0.5494190316127014 
1.129999999999892, -0.5491329312543038 
1.1399999999998909, -0.5487649224271001 
1.1499999999998898, -0.5483219138275862 
1.1599999999998887, -0.5478092742462101 
1.1699999999998876, -0.5472326792621917 
1.1799999999998865, -0.5466013330291676 
1.1899999999998854, -0.5459317458551269 
1.1999999999998843, -0.545249319920772 
1.2099999999998832, -0.5445806151349978 
1.219999999999882, -0.5439237992872613 
1.229999999999881, -0.5431900343441747 
1.2399999999998799, -0.5421507377085177 
1.2499999999998788, -0.5404993756502627 
1.2599999999998777, -0.538098137090868 
1.2699999999998766, -0.535204870720322 
1.2799999999998755, -0.5323582969896378 
1.2899999999998744, -0.530019851103746 
1.2999999999998733, -0.5283646338053698 
1.3099999999998722, -0.5273296478858924 
1.319999999999871, -0.5267525789076095 
1.32999999999987, -0.5264699642246071 
1.3399999999998689, -0.5263555751378849 
1.3499999999998678, -0.5263238953991787 
1.3599999999998666, -0.5263210221329848 
1.3699999999998655, -0.5263140300059056 
1.3799999999998644, -0.5262825476312245 
1.3899999999998633, -0.5262131996862677 
1.3999999999998622, -0.5260966813532618 
1.4099999999998611, -0.5259271376433731 
1.41999999999986, -0.5257034165013638 
1.429999999999859, -0.5254312352433314 
1.4399999999998578, -0.5251244624217819 
1.4499999999998567, -0.5248034536059869 
1.4599999999998556, -0.5244897134191298 
1.4699999999998545, -0.5241987201987527 
1.4799999999998534, -0.5239344901724208 
1.4899999999998523, -0.5236887587032704 
1.4999999999998512, -0.5234450462576794 
1.5099999999998501, -0.5231852307141909 
1.519999999999849, -0.5228952771143539 
1.529999999999848, -0.5225680004753928 
1.5399999999998468, -0.522202993879895 
1.5499999999998457, -0.5218053543373978 
1.5599999999998446, -0.5213849399619732 
1.5699999999998435, -0.5209572738191663 
1.5799999999998424, -0.5205467036753229 
1.5899999999998413, -0.5201922800928217 
1.5999999999998402, -0.5199567500093194 
1.6099999999998391, -0.5199384135827647 
1.619999999999838, -0.5202831081610905 
1.629999999999837, -0.5211872013855865 
1.6399999999998358, -0.5228707688726025 
1.6499999999998347, -0.52549003383461 
1.6599999999998336, -0.5289810155052812 
1.6699999999998325, -0.5329269837191445 
1.6799999999998314, -0.536652777868722 
1.6899999999998303, -0.5395971938866281 
1.6999999999998292, -0.5416203037989398 
1.709999999999828, -0.5429299624132812 
1.719999999999827, -0.543807474430423 
1.729999999999826, -0.544444027402516 
1.7399999999998248, -0.5449309843726977 
1.7499999999998237, -0.5453035681039391 
1.7599999999998226, -0.5455752352265673 
1.7699999999998215, -0.545753142119327 
1.7799999999998204, -0.5458423623919134 
1.7899999999998193, -0.5458457404055832 
1.7999999999998182, -0.545762783582933 
1.809999999999817, -0.5455889745383762 
1.819999999999816, -0.545316232564607 
1.8299999999998149, -0.5449351974049395 
1.8399999999998138, -0.5444397744182062 
1.8499999999998127, -0.5438332697263811 
1.8599999999998116, -0.5431334505848857 
1.8699999999998105, -0.5423726310305956 
1.8799999999998094, -0.5415908291324874 
1.8899999999998083, -0.5408247934972295 
1.8999999999998072, -0.5400988751354664 
1.909999999999806, -0.5394220963724539 
1.919999999999805, -0.5387913964583477 
1.9299999999998039, -0.5381979483210622 
1.9399999999998028, -0.5376331827124929 
1.9499999999998017, -0.5370927469294274 
1.9599999999998006, -0.5365784583427679 
1.9699999999997995, -0.536099341592961 
1.9799999999997984, -0.5356729396854492 
1.9899999999997973, -0.5353277326105974 
1.9999999999997962, -0.535107135230726 
2.0099999999998173, -0.5350753106766439 
2.0199999999998384, -0.535324774012584 
2.0299999999998595, -0.5359851047784331 
2.0399999999998806, -0.5372303778587295 
2.0499999999999017, -0.539279120361212 
2.059999999999923, -0.5423738238647549 
2.069999999999944, -0.5467194973428228 
2.079999999999965, -0.5523651060836928 
2.089999999999986, -0.5590551479619171 
2.100000000000007, -0.56616659302653 
2.1100000000000283, -0.5728740708664298 
2.1200000000000494, -0.5785004485805572 
2.1300000000000705, -0.5827702538283402 
2.1400000000000916, -0.5857784760344931 
2.1500000000001127, -0.5877943140160424 
2.160000000000134, -0.5890967456645101 
2.170000000000155, -0.5899048280291523 
2.180000000000176, -0.5903696601863028 
2.190000000000197, -0.5905877394094318 
2.2000000000002182, -0.5906158126764579 
2.2100000000002393, -0.5904814610575625 
2.2200000000002604, -0.5901892051234727 
2.2300000000002815, -0.5897235307852977 
2.2400000000003026, -0.5890509819669816 
2.2500000000003237, -0.5881245387705836 
2.260000000000345, -0.5868945443057301 
2.270000000000366, -0.5853291250693312 
2.280000000000387, -0.583440093530893 
2.290000000000408, -0.5812996034219006 
2.3000000000004293, -0.5790308993387698 
2.3100000000004504, -0.5767734998652962 
2.3200000000004715, -0.5746443442793885 
2.3300000000004926, -0.572716922697343 
2.3400000000005137, -0.5710224941548161 
2.3500000000005348, -0.5695634394767594 
2.360000000000556, -0.5683278761038444 
2.370000000000577, -0.5673001866809378 
2.380000000000598, -0.5664668137480493 
2.390000000000619, -0.5658186564101992 
2.4000000000006403, -0.5653516102324202 
2.4100000000006614, -0.5650663647242518 
2.4200000000006825, -0.5649681111999711 
2.4300000000007036, -0.5650664802473863 
2.4400000000007247, -0.5653757865456844 
2.450000000000746, -0.5659154159117463 
2.460000000000767, -0.5667098436939284 
2.470000000000788, -0.5677872394642697 
2.480000000000809, -0.5691749077933175 
2.49000000000083, -0.5708893043879637 
2.5000000000008513, -0.5729191718904337 
2.5100000000008724, -0.5752044040723973 
2.5200000000008935, -0.5776214047841056 
2.5300000000009146, -0.5799924560309857 
2.5400000000009357, -0.5821284666836608 
2.550000000000957, -0.5838872676697782 
2.560000000000978, -0.5852099842741505 
2.570000000000999, -0.5861151383436324 
2.58000000000102, -0.5866650119291806 
2.5900000000010412, -0.58693119073821 
2.6000000000010624, -0.5869733966613019 
2.6100000000010835, -0.586830885946618 
2.6200000000011046, -0.5865202768101669 
2.6300000000011257, -0.5860345281868131 
2.6400000000011468, -0.5853398959768593 
2.650000000001168, -0.5843691949190267 
2.660000000001189, -0.5830111423778355 
2.67000000000121, -0.5810990088176184 
2.680000000001231, -0.5784104253849831 
2.6900000000012523, -0.574704447717055 
2.7000000000012734, -0.5698261384857608 
2.7100000000012945, -0.563862770645823 
2.7200000000013156, -0.5572356237926697 
2.7300000000013367, -0.5505928326975287 
2.740000000001358, -0.5445479172159495 
2.750000000001379, -0.5394732691135979 
2.7600000000014, -0.5354693585613479 
2.770000000001421, -0.5324523770104215 
2.780000000001442, -0.5302574029723617 
2.7900000000014633, -0.5287072512009419 
2.8000000000014844, -0.527645119367644 
2.8100000000015055, -0.5269446253784528 
2.8200000000015266, -0.5265091602725318 
2.8300000000015477, -0.526267436222063 
2.840000000001569, -0.5261684256978956 
2.85000000000159, -0.5261769360688524 
2.860000000001611, -0.5262701947359022 
2.870000000001632, -0.5264354535218744 
2.8800000000016532, -0.5266683920644091 
2.8900000000016743, -0.5269718075311198 
2.9000000000016954, -0.5273536931603322 
2.9100000000017165, -0.527823554014361 
2.9200000000017377, -0.5283861607813879 
2.9300000000017588, -0.5290333614887187 
2.94000000000178, -0.5297369445875568 
2.950000000001801, -0.530447502182139 
2.960000000001822, -0.5311030645569546 
2.970000000001843, -0.5316454208057528 
2.9800000000018643, -0.5320354537510187 
2.9900000000018854, -0.5322588939718175 
3.0000000000019065, -0.5323213105954313 
3.0100000000019276, -0.5322378601648683 
3.0200000000019487, -0.532023722463166 
3.03000000000197, -0.5316876618476156 
3.040000000001991, -0.5312281324448482 
3.050000000002012, -0.5306301694461145 
3.060000000002033, -0.5298611505483826 
3.070000000002054, -0.5288633965665469 
3.0800000000020753, -0.5275412687433915 
3.0900000000020964, -0.525741102238538 
3.1000000000021175, -0.5232285116735584 
3.1100000000021386, -0.5196883845331323 
3.1200000000021597, -0.5148079707691566 
3.130000000002181, -0.5084955198161584 
3.140000000002202, -0.5011296799688254 
3.150000000002223, -0.49354361636906885 
3.160000000002244, -0.4866403402537636 
3.1700000000022652, -0.48098546726818 
3.1800000000022863, -0.47670845345629054 
3.1900000000023074, -0.47365128884644647 
3.2000000000023285, -0.47155082644456126 
3.2100000000023496, -0.47015014043947706 
3.2200000000023707, -0.4692413046957136 
3.230000000002392, -0.46867086323268603 
3.240000000002413, -0.4683312732196285 
3.250000000002434, -0.4681496849965008 
3.260000000002455, -0.4680782415157654 
3.2700000000024763, -0.4680868902294272 
3.2800000000024974, -0.46815856848514914 
3.2900000000025185, -0.46828630224139917 
3.3000000000025396, -0.4684716188602106 
3.3100000000025607, -0.46872344134879906 
3.3200000000025818, -0.46905628801163085 
3.330000000002603, -0.46948641475803604 
3.340000000002624, -0.4700249874414813 
3.350000000002645, -0.4706688803015284 
3.360000000002666, -0.47139221319977515 
3.3700000000026873, -0.4721440663085666 
3.3800000000027084, -0.4728570510551096 
3.3900000000027295, -0.47346524159862413 
3.4000000000027506, -0.47392209430541926 
3.4100000000027717, -0.474208151611233 
3.420000000002793, -0.4743263994483652 
3.430000000002814, -0.47429115024481294 
3.440000000002835, -0.4741172061914936 
3.450000000002856, -0.4738121815126636 
3.460000000002877, -0.4733713279209348 
3.4700000000028983, -0.4727727584634055 
3.4800000000029194, -0.4719707947920952 
3.4900000000029405, -0.47088546276311727 
3.5000000000029616, -0.4693874515622779 
3.5100000000029827, -0.4672828506225633 
3.520000000003004, -0.46431552276718147 
3.530000000003025, -0.46022599753961807 
3.540000000003046, -0.45490233326258556 
3.550000000003067, -0.44856751304313186 
3.5600000000030882, -0.4418141875078397 
3.5700000000031094, -0.4353706672084347 
3.5800000000031305, -0.42978161754799266 
3.5900000000031516, -0.42526851915262204 
3.6000000000031727, -0.4217957456108542 
3.6100000000031938, -0.4192028464906456 
3.620000000003215, -0.4173031862488542 
3.630000000003236, -0.41593162052045846 
3.640000000003257, -0.4149587398209495 
3.650000000003278, -0.41428983491769483 
3.6600000000032993, -0.41385906010093143 
3.6700000000033204, -0.4136233895522999 
3.6800000000033415, -0.41355793228329973 
3.6900000000033626, -0.4136529048942389 
3.7000000000033837, -0.4139121006906426 
3.710000000003405, -0.41435247795907604 
3.720000000003426, -0.4150041955002036 
3.730000000003447, -0.41590982973994334 
3.740000000003468, -0.41712049498342185 
3.750000000003489, -0.418685364144513 
3.7600000000035103, -0.42063084597363076 
3.7700000000035314, -0.42292949911213623 
3.7800000000035525, -0.42547027889658534 
3.7900000000035736, -0.42805648476599095 
3.8000000000035947, -0.4304538294861767 
3.810000000003616, -0.43247142580392045 
3.820000000003637, -0.4340198681384024 
3.830000000003658, -0.4351100109772917 
3.840000000003679, -0.43581063233470274 
3.8500000000037002, -0.43620415057174455 
3.8600000000037213, -0.43636045367417226 
3.8700000000037424, -0.43632742967986893 
3.8800000000037635, -0.4361299988819085 
3.8900000000037847, -0.4357714999410434 
3.9000000000038058, -0.4352348336167087 
3.910000000003827, -0.43448358428879646 
3.920000000003848, -0.43346580867904727 
3.930000000003869, -0.4321254161457263 
3.94000000000389, -0.43042572226713094 
3.9500000000039113, -0.4283819344575618 
3.9600000000039324, -0.4260840684716466 
3.9700000000039535, -0.4236856673462162 
3.9800000000039746, -0.42135607674416564 
3.9900000000039957, -0.4192271619789665 
4.000000000004016, -0.41736750779360837 
4.010000000003993, -0.41578880298390086 
4.02000000000397, -0.41446773678675725 
4.030000000003946, -0.4133672895902244 
4.040000000003923, -0.4124508753322294 
4.0500000000039, -0.41168958975943887 
4.0600000000038765, -0.4110650929481029 
4.070000000003853, -0.410570561075944 
4.08000000000383, -0.4102114066018804 
4.090000000003807, -0.41000681927979743 
4.100000000003783, -0.4099928014747687 
4.11000000000376, -0.41022719056178153 
4.120000000003737, -0.4107969564098767 
4.130000000003713, -0.41182738519915485 
4.14000000000369, -0.4134906965849371 
4.150000000003667, -0.41600653779291674 
4.1600000000036434, -0.4196169473056803 
4.17000000000362, -0.42450697196591197 
4.180000000003597, -0.4306507920348136 
4.1900000000035735, -0.437637466436468 
4.20000000000355, -0.4446606955350358 
4.210000000003527, -0.450830447343599 
4.220000000003504, -0.45561113592730484 
4.23000000000348, -0.4589736501646461 
4.240000000003457, -0.4612004152180519 
4.250000000003434, -0.46263119658328344 
4.26000000000341, -0.463535413716602 
4.270000000003387, -0.46409289776103557 
4.280000000003364, -0.46441476131939047 
4.2900000000033405, -0.464567007681869 
4.300000000003317, -0.4645870194722522 
4.310000000003294, -0.4644934873308696 
4.320000000003271, -0.464292355028152 
4.330000000003247, -0.4639811360742162 
4.340000000003224, -0.46355350874972673 
4.350000000003201, -0.46300545709685154 
4.360000000003177, -0.46234275811889497 
4.370000000003154, -0.4615871741037175 
4.380000000003131, -0.46077698620623775 
4.390000000003107, -0.4599593879721203 
4.400000000003084, -0.45917768063444264 
4.410000000003061, -0.4584601616281013 
4.4200000000030375, -0.45781597641198823 
4.430000000003014, -0.4572382524986394 
4.440000000002991, -0.4567112571908717 
4.450000000002968, -0.45621775497867667 
4.460000000002944, -0.45574413051335416 
4.470000000002921, -0.4552827706776208 
4.480000000002898, -0.45483263245931466 
4.490000000002874, -0.45439941381040316 
4.500000000002851, -0.4539965353575769 
4.510000000002828, -0.45364776805775114 
4.520000000002804, -0.45339212520236905 
4.530000000002781, -0.4532915088935372 
4.540000000002758, -0.4534410967731275 
4.5500000000027345, -0.4539805121394741 
4.560000000002711, -0.45509838733432983 
4.570000000002688, -0.45701152627517694 
4.580000000002665, -0.45988553063421744 
4.590000000002641, -0.46367320402840406 
4.600000000002618, -0.4679402070160788 
4.610000000002595, -0.4719077009688375 
4.620000000002571, -0.47486707734646794 
4.630000000002548, -0.47662645684188815 
4.640000000002525, -0.47748830763004174 
4.6500000000025015, -0.47787967201749604 
4.660000000002478, -0.47809249516924546 
4.670000000002455, -0.4782558831822361 
4.6800000000024315, -0.4784035658265891 
4.690000000002408, -0.4785325192430571 
4.700000000002385, -0.47863183625647787 
4.710000000002362, -0.4786922443523938 
4.720000000002338, -0.47870733205041816 
4.730000000002315, -0.4786723739525158 
4.740000000002292, -0.4785831836065443 
4.750000000002268, -0.47843592604786755 
4.760000000002245, -0.478228280058575 
4.770000000002222, -0.47796192540447385 
4.7800000000021985, -0.47764555558016814 
4.790000000002175, -0.4772965922637141 
4.800000000002152, -0.47693946046933655 
4.810000000002129, -0.4765997415176946 
4.820000000002105, -0.4762962540516991 
4.830000000002082, -0.4760348819615213 
4.840000000002059, -0.4758072121967549 
4.850000000002035, -0.47559446064650074 
4.860000000002012, -0.47537449348534233 
4.870000000001989, -0.4751284690227906 
4.880000000001965, -0.47484446360783716 
4.890000000001942, -0.4745176890546574 
4.900000000001919, -0.4741487524010208 
