t, s[1].omega / s[0].omega 
0, -0.6799976991193849 
0.009999999999999995, -0.6797560465631364 
0.019999999999999934, -0.6794885817278374 
0.029999999999999874, -0.6791883572741806 
0.04000000000000012, -0.6788485248720597 
0.050000000000000405, -0.6784663383757756 
0.06000000000000069, -0.6780453138146434 
0.07000000000000098, -0.6775956752021478 
0.08000000000000126, -0.6771344007208955 
0.09000000000000155, -0.6766861347559988 
0.10000000000000184, -0.6762855108163177 
0.11000000000000212, -0.6759806942502374 
0.12000000000000241, -0.6758374065414983 
0.130000000000002, -0.6759422670144868 
0.1400000000000009, -0.6764039065896454 
0.1499999999999998, -0.6773499107758283 
0.1599999999999987, -0.6789170914791989 
0.1699999999999976, -0.6812317664662919 
0.1799999999999965, -0.6843763267649943 
0.1899999999999954, -0.688341238754742 
0.1999999999999943, -0.6929729401905041 
0.2099999999999932, -0.6979490319712964 
0.2199999999999921, -0.7028245905201206 
0.229999999999991, -0.7071603719212437 
0.2399999999999899, -0.7106672989745721 
0.2499999999999888, -0.7132694860711313 
0.2599999999999877, -0.7150590281462421 
0.2699999999999866, -0.7162028334057748 
0.2799999999999855, -0.7168680711313183 
0.2899999999999844, -0.7171869859149187 
0.2999999999999833, -0.7172495940787476 
0.3099999999999822, -0.7171078999159761 
0.3199999999999811, -0.7167815166954248 
0.32999999999998, -0.716260324334117 
0.3399999999999789, -0.715502641124698 
0.3499999999999778, -0.7144285213227368 
0.35999999999997667, -0.7129090117723782 
0.36999999999997557, -0.7107557705940368 
0.37999999999997447, -0.7077242492798959 
0.38999999999997337, -0.703557581924313 
0.39999999999997227, -0.6981018024114677 
0.40999999999997117, -0.6914765207838844 
0.41999999999997006, -0.6841810513007187 
0.42999999999996896, -0.6769838923636129 
0.43999999999996786, -0.6706216379788735 
0.44999999999996676, -0.6655356500926474 
0.45999999999996566, -0.6618133810866201 
0.46999999999996456, -0.6592930871379581 
0.47999999999996346, -0.6577057094700063 
0.48999999999996235, -0.6567770413535794 
0.49999999999996125, -0.6562776661520544 
0.5099999999999602, -0.6560362625534808 
0.519999999999959, -0.6559341349949535 
0.529999999999958, -0.6558929881596484 
0.5399999999999568, -0.655862272753847 
0.5499999999999557, -0.6558087778455277 
0.5599999999999546, -0.6557092806109558 
0.5699999999999535, -0.655546340361257 
0.5799999999999524, -0.6553070982533765 
0.5899999999999513, -0.654984609366432 
0.5999999999999502, -0.6545803936317475 
0.6099999999999491, -0.6541058712482806 
0.619999999999948, -0.6535804062683332 
0.6299999999999469, -0.6530257690511359 
0.6399999999999458, -0.6524596964805207 
0.6499999999999447, -0.6518921473477179 
0.6599999999999436, -0.6513258964930873 
0.6699999999999425, -0.6507602702968704 
0.6799999999999414, -0.650195502331046 
0.6899999999999403, -0.6496359021334205 
0.6999999999999392, -0.6490915740530898 
0.7099999999999381, -0.6485794276636838 
0.719999999999937, -0.6481242800753383 
0.7299999999999359, -0.6477603765696105 
0.7399999999999348, -0.6475331543555753 
0.7499999999999337, -0.6475007650003219 
0.7599999999999326, -0.6477347432349783 
0.7699999999999315, -0.6483191414265203 
0.7799999999999304, -0.649347234029588 
0.7899999999999293, -0.6509142804513977 
0.7999999999999282, -0.6531037485280813 
0.8099999999999271, -0.6559635681149247 
0.819999999999926, -0.659470858317264 
0.8299999999999249, -0.6634923423238936 
0.8399999999999238, -0.6677643990390754 
0.8499999999999227, -0.6719275075842432 
0.8599999999999216, -0.6756255771261505 
0.8699999999999205, -0.6786209626228545 
0.8799999999999194, -0.6808477259643982 
0.8899999999999183, -0.6823784545727144 
0.8999999999999172, -0.6833498896249605 
0.9099999999999161, -0.6839011259795361 
0.919999999999915, -0.6841430215474263 
0.9299999999999139, -0.6841507079766537 
0.9399999999999128, -0.6839660240976881 
0.9499999999999117, -0.6836012722321709 
0.9599999999999106, -0.6830403273719153 
0.9699999999999095, -0.6822355387806558 
0.9799999999999084, -0.681099983613451 
0.9899999999999073, -0.6794962197408219 
0.9999999999999062, -0.6772272240445413 
1.0099999999999052, -0.6740455084353434 
1.019999999999904, -0.6697100444172475 
1.029999999999903, -0.6641155711531126 
1.039999999999902, -0.6574554513208113 
1.0499999999999008, -0.6502799139464233 
1.0599999999998997, -0.6433328750604482 
1.0699999999998986, -0.637258163130973 
1.0799999999998975, -0.6323996549201999 
1.0899999999998964, -0.6287947391503573 
1.0999999999998953, -0.6262846193263385 
1.1099999999998942, -0.6246333274075812 
1.119999999999893, -0.6236057984298939 
1.129999999999892, -0.6230040992348689 
1.1399999999998909, -0.6226767944487828 
1.1499999999998898, -0.6225150353093349 
1.1599999999998887, -0.6224437894314989 
1.1699999999998876, -0.6224125486937664 
1.1799999999998865, -0.6223874501807187 
1.1899999999998854, -0.6223455344997 
1.1999999999998843, -0.6222713173494417 
1.2099999999998832, -0.6221555229799437 
1.219999999999882, -0.6219953652063962 
1.229999999999881, -0.6217950710084125 
1.2399999999998799, -0.6215648976359082 
1.2499999999998788, -0.6213175585408032 
1.2599999999998777, -0.6210629063665527 
1.2699999999998766, -0.6208035475798592 
1.2799999999998755, -0.6205339931113334 
1.2899999999998744, -0.6202438080326143 
1.2999999999998733, -0.6199227507110997 
1.3099999999998722, -0.6195650857040775 
1.319999999999871, -0.6191715483983014 
1.32999999999987, -0.6187494322829794 
1.3399999999998689, -0.6183123496061803 
1.3499999999998678, -0.6178810792976754 
1.3599999999998666, -0.6174862739220424 
1.3699999999998655, -0.6171732663047044 
1.3799999999998644, -0.6170088727275665 
1.3899999999998633, -0.6170896715248163 
1.3999999999998622, -0.6175503676009525 
1.4099999999998611, -0.6185690668289453 
1.41999999999986, -0.6203630314220882 
1.429999999999859, -0.6231637099375298 
1.4399999999998578, -0.6271562187855824 
1.4499999999998567, -0.6323758578812572 
1.4599999999998556, -0.6385895854623282 
1.4699999999998545, -0.6452512033201773 
1.4799999999998534, -0.6516323366122043 
1.4899999999998523, -0.6571012085730603 
1.4999999999998512, -0.6613476435691786 
1.5099999999998501, -0.6643945637219532 
1.519999999999849, -0.6664538864858077 
1.529999999999848, -0.6677782533556044 
1.5399999999998468, -0.6685818920052238 
1.5499999999998457, -0.6690196799248497 
1.5599999999998446, -0.669192718105623 
1.5699999999998435, -0.6691598525097009 
1.5799999999998424, -0.6689468486056013 
1.5899999999998413, -0.6685511257649067 
1.5999999999998402, -0.6679422288529714 
1.6099999999998391, -0.6670593246636138 
1.619999999999838, -0.6658088740229743 
1.629999999999837, -0.6640693592903489 
1.6399999999998358, -0.6617143144681646 
1.6499999999998347, -0.6586627704965082 
1.6599999999998336, -0.6549462830796229 
1.6699999999998325, -0.6507493753470005 
1.6799999999998314, -0.6463771776676269 
1.6899999999998303, -0.6421588107742863 
1.6999999999998292, -0.6383515735484614 
1.709999999999828, -0.6350989790317968 
1.719999999999827, -0.632441959468472 
1.729999999999826, -0.630353037061907 
1.7399999999998248, -0.628768987993082 
1.7499999999998237, -0.6276131844593037 
1.7599999999998226, -0.6268083412127492 
1.7699999999998215, -0.6262830137425806 
1.7799999999998204, -0.6259746242332854 
1.7899999999998193, -0.6258306211547692 
1.7999999999998182, -0.6258085622519067 
1.809999999999817, -0.6258755448700796 
1.819999999999816, -0.6260073040965867 
1.8299999999998149, -0.6261872404947826 
1.8399999999998138, -0.6264054628574005 
1.8499999999998127, -0.6266575800193904 
1.8599999999998116, -0.6269425924422817 
1.8699999999998105, -0.6272592307318632 
1.8799999999998094, -0.6276009260143393 
1.8899999999998083, -0.6279511845068144 
1.8999999999998072, -0.6282823550895397 
1.909999999999806, -0.6285599628782025 
1.919999999999805, -0.6287514669182044 
1.9299999999998039, -0.6288348315852944 
1.9399999999998028, -0.6288022638808048 
1.9499999999998017, -0.6286581831085654 
1.9599999999998006, -0.6284141905978156 
1.9699999999997995, -0.6280845306802016 
1.9799999999997984, -0.6276840652588713 
1.9899999999997973, -0.6272293240612897 
1.9999999999997962, -0.6267427321952133 
2.0099999999998173, -0.6262603706605098 
2.0199999999998384, -0.6258438807434639 
2.0299999999998595, -0.625596492768528 
2.0399999999998806, -0.6256802829108052 
2.0499999999999017, -0.626324728134031 
2.059999999999923, -0.6278048906539176 
2.069999999999944, -0.630359126484675 
2.079999999999965, -0.6340384454587522 
2.089999999999986, -0.6385630661228865 
2.100000000000007, -0.6433479219638893 
2.1100000000000283, -0.647761918181173 
2.1200000000000494, -0.6514150153916536 
2.1300000000000705, -0.6542253045470805 
2.1400000000000916, -0.6562955576124815 
2.1500000000001127, -0.6577788314832058 
2.160000000000134, -0.6588135683469103 
2.170000000000155, -0.6595081488127267 
2.180000000000176, -0.6599427191162616 
2.190000000000197, -0.6601737507361117 
2.2000000000002182, -0.6602377173205622 
2.2100000000002393, -0.660153452189018 
2.2200000000002604, -0.6599232728418227 
2.2300000000002815, -0.6595332018629054 
2.2400000000003026, -0.6589532376236261 
2.2500000000003237, -0.6581397801030195 
2.260000000000345, -0.6570435764847152 
2.270000000000366, -0.6556261681270152 
2.280000000000387, -0.6538829713166279 
2.290000000000408, -0.6518620899954262 
2.3000000000004293, -0.6496635922212536 
2.3100000000004504, -0.6474147213893551 
2.3200000000004715, -0.6452353217326643 
2.3300000000004926, -0.6432136449797042 
2.3400000000005137, -0.6414007945711676 
2.3500000000005348, -0.6398183457649971 
2.360000000000556, -0.6384697862854796 
2.370000000000577, -0.6373498174969509 
2.380000000000598, -0.636449846775149 
2.390000000000619, -0.6357603659631896 
2.4000000000006403, -0.6352715424014743 
2.4100000000006614, -0.6349731564064613 
2.4200000000006825, -0.6348546031902818 
2.4300000000007036, -0.6349052780882065 
2.4400000000007247, -0.635115346495321 
2.450000000000746, -0.6354766690375547 
2.460000000000767, -0.6359834771516749 
2.470000000000788, -0.6366322174503731 
2.480000000000809, -0.6374197921494231 
2.49000000000083, -0.6383393927756454 
2.5000000000008513, -0.6393737261980216 
2.5100000000008724, -0.6404872156499891 
2.5200000000008935, -0.6416214841600849 
2.5300000000009146, -0.6426998549678227 
2.5400000000009357, -0.6436431194012656 
2.550000000000957, -0.6443903580282642 
2.560000000000978, -0.644912808727049 
2.570000000000999, -0.6452133979775185 
2.58000000000102, -0.6453152080775112 
2.5900000000010412, -0.6452476322323442 
2.6000000000010624, -0.6450363869600129 
2.6100000000010835, -0.644698627030727 
2.6200000000011046, -0.644241742832689 
2.6300000000011257, -0.6436642263623772 
2.6400000000011468, -0.6429578040615219 
2.650000000001168, -0.6421107807800465 
2.660000000001189, -0.6411126134782885 
2.67000000000121, -0.6399584661152279 
2.680000000001231, -0.6386493428803954 
2.6900000000012523, -0.6371804913998498 
2.7000000000012734, -0.6355181464533642 
2.7100000000012945, -0.6335951299767607 
2.7200000000013156, -0.6313806199729441 
2.7300000000013367, -0.6290046563839298 
2.740000000001358, -0.6267779803549169 
2.750000000001379, -0.6250219797559156 
2.7600000000014, -0.6238815904316761 
2.770000000001421, -0.6232995185208545 
2.780000000001442, -0.6231128969325694 
2.7900000000014633, -0.6231515860884328 
2.8000000000014844, -0.6232856431660945 
2.8100000000015055, -0.6234319895762195 
2.8200000000015266, -0.6235434877483398 
2.8300000000015477, -0.6235950857835114 
2.840000000001569, -0.6235726292982449 
2.85000000000159, -0.6234652978064958 
2.860000000001611, -0.6232611963405109 
2.870000000001632, -0.6229457289600473 
2.8800000000016532, -0.6225029162187862 
2.8900000000016743, -0.6219199723636073 
2.9000000000016954, -0.6211944300826086 
2.9100000000017165, -0.6203407921752748 
2.9200000000017377, -0.6193919802560497 
2.9300000000017588, -0.6183927995993607 
2.94000000000178, -0.6173881395856249 
2.950000000001801, -0.6164125687624368 
2.960000000001822, -0.6154863179166317 
2.970000000001843, -0.6146177197417197 
2.9800000000018643, -0.6138088496281068 
2.9900000000018854, -0.6130610608476876 
3.0000000000019065, -0.6123788236773183 
3.0100000000019276, -0.6117718679177304 
3.0200000000019487, -0.61125629556094 
3.03000000000197, -0.6108552584915999 
3.040000000001991, -0.6105994748476952 
3.050000000002012, -0.6105276098413512 
3.060000000002033, -0.6106864372128541 
3.070000000002054, -0.6111306272423612 
3.0800000000020753, -0.6119218040029981 
3.0900000000020964, -0.6131259888282713 
3.1000000000021175, -0.6148075863597335 
3.1100000000021386, -0.6170168999081815 
3.1200000000021597, -0.6197679315056407 
3.130000000002181, -0.6230066886760418 
3.140000000002202, -0.6265807153014722 
3.150000000002223, -0.6302353488545779 
3.160000000002244, -0.6336629701865629 
3.1700000000022652, -0.6365968488133394 
3.1800000000022863, -0.6388930707021154 
3.1900000000023074, -0.6405462689956576 
3.2000000000023285, -0.6416437113388712 
3.2100000000023496, -0.6423040991679277 
3.2200000000023707, -0.6426357331352452 
3.230000000002392, -0.6427190752196599 
3.240000000002413, -0.6426039961152565 
3.250000000002434, -0.6423119324604161 
3.260000000002455, -0.6418373323737939 
3.2700000000024763, -0.6411458536419413 
3.2800000000024974, -0.640168358911241 
3.2900000000025185, -0.6387911980395284 
3.3000000000025396, -0.636846787600743 
3.3100000000025607, -0.6341167905861954 
3.3200000000025818, -0.6303725469402045 
3.330000000002603, -0.6254779891282408 
3.340000000002624, -0.6195346521868486 
3.350000000002645, -0.6129607483888005 
3.360000000002666, -0.606387566114794 
3.3700000000026873, -0.6004164131762992 
3.3800000000027084, -0.5954221000300155 
3.3900000000027295, -0.5915149951883267 
3.4000000000027506, -0.5886173033650922 
3.4100000000027717, -0.586561436031144 
3.420000000002793, -0.5851605169065628 
3.430000000002814, -0.5842449750298313 
3.440000000002835, -0.5836759478129192 
3.450000000002856, -0.5833464902296217 
3.460000000002877, -0.5831775923637965 
3.4700000000028983, -0.5831126641049342 
3.4800000000029194, -0.5831122071957651 
3.4900000000029405, -0.5831494349264673 
3.5000000000029616, -0.5832071362584264 
3.5100000000029827, -0.5832757752714487 
3.520000000003004, -0.5833524502995165 
3.530000000003025, -0.583439863619083 
3.540000000003046, -0.5835441403392133 
3.550000000003067, -0.5836707238633771 
3.5600000000030882, -0.5838189473113095 
3.5700000000031094, -0.5839776011098812 
3.5800000000031305, -0.5841244443443492 
3.5900000000031516, -0.5842309949064779 
3.6000000000031727, -0.5842706246554733 
3.6100000000031938, -0.584225587982647 
3.620000000003215, -0.5840895561250777 
3.630000000003236, -0.5838656406025576 
3.640000000003257, -0.5835624790490577 
3.650000000003278, -0.5831910681334811 
3.6600000000032993, -0.5827637715812672 
3.6700000000033204, -0.5822959201277493 
3.6800000000033415, -0.5818101768789822 
3.6900000000033626, -0.5813440178220944 
3.7000000000033837, -0.580960604277436 
3.710000000003405, -0.5807620189946618 
3.720000000003426, -0.5808997083468029 
3.730000000003447, -0.5815683440071097 
3.740000000003468, -0.5829586451355906 
3.750000000003489, -0.5851495036340753 
3.7600000000035103, -0.5879756559285454 
3.7700000000035314, -0.5910054138586823 
3.7800000000035525, -0.593742803812894 
3.7900000000035736, -0.5959097233004013 
3.8000000000035947, -0.5975176865209124 
3.810000000003616, -0.5987148951417712 
3.820000000003637, -0.5996339624435849 
3.830000000003658, -0.6003491880123413 
3.840000000003679, -0.6008958876621574 
3.8500000000037002, -0.6012939770659577 
3.8600000000037213, -0.6015589427636022 
3.8700000000037424, -0.6017038551407441 
3.8800000000037635, -0.6017380116089088 
3.8900000000037847, -0.6016650835367062 
3.9000000000038058, -0.6014817553639447 
3.910000000003827, -0.601177312930868 
3.920000000003848, -0.6007348989683561 
3.930000000003869, -0.6001355650298573 
3.94000000000389, -0.599365929663384 
3.9500000000039113, -0.5984282099591127 
3.9600000000039324, -0.5973479624172299 
3.9700000000039535, -0.5961733629874982 
3.9800000000039746, -0.5949640707650781 
3.9900000000039957, -0.5937753908962142 
4.000000000004016, -0.5926466916089059 
4.010000000003993, -0.5915987311966893 
4.02000000000397, -0.5906381598081498 
4.030000000003946, -0.5897646475142253 
4.040000000003923, -0.588977106401994 
4.0500000000039, -0.5882777209417142 
4.0600000000038765, -0.58767408090066 
4.070000000003853, -0.5871802215152954 
4.08000000000383, -0.5868172251217953 
4.090000000003807, -0.5866137205951552 
4.100000000003783, -0.5866063844301422 
4.11000000000376, -0.5868404152996181 
4.120000000003737, -0.5873698070830788 
4.130000000003713, -0.5882569118575189 
4.14000000000369, -0.5895700795189379 
4.150000000003667, -0.5913769911876264 
4.1600000000036434, -0.593730004599289 
4.17000000000362, -0.5966399267482447 
4.180000000003597, -0.600039613081256 
4.1900000000035735, -0.6037521993684244 
4.20000000000355, -0.6074949514883773 
4.210000000003527, -0.6109442886809158 
4.220000000003504, -0.6138410162693793 
4.23000000000348, -0.616066877663453 
4.240000000003457, -0.6176437064222436 
4.250000000003434, -0.6186756522410402 
4.26000000000341, -0.6192868586328583 
4.270000000003387, -0.619584080515775 
4.280000000003364, -0.6196435235677212 
4.2900000000033405, -0.6195103265014565 
4.300000000003317, -0.6192013329987176 
4.310000000003294, -0.6187063366884228 
4.320000000003271, -0.6179858807949663 
4.330000000003247, -0.6169653193232326 
4.340000000003224, -0.6155269266034976 
4.350000000003201, -0.6135066011880863 
4.360000000003177, -0.6107104051505565 
4.370000000003154, -0.6069729704539352 
4.380000000003131, -0.60226354115429 
4.390000000003107, -0.5967878583182079 
4.400000000003084, -0.5909846264973042 
4.410000000003061, -0.5853782794203647 
4.4200000000030375, -0.5803902309577 
4.430000000003014, -0.5762404737654784 
4.440000000002991, -0.5729639607786704 
4.450000000002968, -0.5704807635618073 
4.460000000002944, -0.5686624925134419 
4.470000000002921, -0.567374298290979 
4.480000000002898, -0.5664950857268986 
4.490000000002874, -0.5659244288023605 
4.500000000002851, -0.5655829452431735 
4.510000000002828, -0.565410027377362 
4.520000000002804, -0.5653608355992439 
4.530000000002781, -0.5654034091040667 
4.540000000002758, -0.5655162631400216 
4.5500000000027345, -0.5656865893417556 
4.560000000002711, -0.5659089304249407 
4.570000000002688, -0.5661838509366987 
4.580000000002665, -0.566515744804039 
4.590000000002641, -0.5669088505389535 
4.600000000002618, -0.5673612753298418 
4.610000000002595, -0.5678585184953333 
4.620000000002571, -0.5683698719941225 
4.630000000002548, -0.5688513509405515 
4.640000000002525, -0.5692557818529405 
4.6500000000025015, -0.5695454959861675 
4.660000000002478, -0.5697005372908749 
4.670000000002455, -0.5697186332148385 
4.6800000000024315, -0.5696090033634935 
4.690000000002408, -0.5693847434684987 
4.700000000002385, -0.5690571117684672 
4.710000000002362, -0.568632529567924 
4.720000000002338, -0.5681116819145978 
4.730000000002315, -0.5674898530554515 
4.740000000002292, -0.5667577648656675 
4.750000000002268, -0.5659019424472971 
4.760000000002245, -0.5649023572316724 
4.770000000002222, -0.5637225517260813 
4.7800000000021985, -0.5622860766065568 
4.790000000002175, -0.560443305803356 
4.800000000002152, -0.557970475001064 
4.810000000002129, -0.5546830178032327 
4.820000000002105, -0.5506633649628034 
4.830000000002082, -0.5463751157377947 
4.840000000002059, -0.5424480007888663 
4.850000000002035, -0.5393261906627225 
4.860000000002012, -0.5371230975993517 
4.870000000001989, -0.5357136872770163 
4.880000000001965, -0.534886322149149 
4.890000000001942, -0.5344407760537099 
4.900000000001919, -0.5342240735622437 
4.9100000000018955, -0.5341317028241661 
4.920000000001872, -0.5340966817764798 
