t, s[1].omega / s[0].omega 
0, -0.5599977394321012 
0.009999999999999995, -0.5597778388873065 
0.019999999999999934, -0.5595650431315773 
0.029999999999999874, -0.5593463886366759 
0.04000000000000012, -0.5591063780769978 
0.050000000000000405, -0.5588324633326703 
0.06000000000000069, -0.5585182277527981 
0.07000000000000098, -0.5581638294392859 
0.08000000000000126, -0.557774991426689 
0.09000000000000155, -0.5573622405799823 
0.10000000000000184, -0.5569416009776117 
0.11000000000000212, -0.5565373865446774 
0.12000000000000241, -0.556187496570362 
0.130000000000002, -0.5559515468244925 
0.1400000000000009, -0.5559217983925177 
0.1499999999999998, -0.5562353788850996 
0.1599999999999987, -0.5570824313326074 
0.1699999999999976, -0.5586971822671976 
0.1799999999999965, -0.5613090793206409 
0.1899999999999954, -0.5650322752151068 
0.1999999999999943, -0.5697148022113346 
0.2099999999999932, -0.5748635038458338 
0.2199999999999921, -0.5797932029023708 
0.229999999999991, -0.5839519729903424 
0.2399999999999899, -0.5871356716930856 
0.2499999999999888, -0.5894320977546945 
0.2599999999999877, -0.5910415302330492 
0.2699999999999866, -0.5921531042836105 
0.2799999999999855, -0.5929071715214056 
0.2899999999999844, -0.5933995097013242 
0.2999999999999833, -0.5936937868028072 
0.3099999999999822, -0.5938311497850284 
0.3199999999999811, -0.5938359515402933 
0.32999999999998, -0.5937188422469976 
0.3399999999999789, -0.5934784121042551 
0.3499999999999778, -0.5931024819809287 
0.35999999999997667, -0.5925704324509893 
0.36999999999997557, -0.59185836419604 
0.37999999999997447, -0.5909484747024307 
0.38999999999997337, -0.5898415268395889 
0.39999999999997227, -0.5885668731627122 
0.40999999999997117, -0.5871822418606478 
0.41999999999997006, -0.5857604653540645 
0.42999999999996896, -0.5843700190524765 
0.43999999999996786, -0.5830605083763796 
0.44999999999996676, -0.5818589197149981 
0.45999999999996566, -0.5807745199550145 
0.46999999999996456, -0.5798069364631082 
0.47999999999996346, -0.5789532663967207 
0.48999999999996235, -0.5782127029956909 
0.49999999999996125, -0.5775889400247802 
0.5099999999999602, -0.5770911976164727 
0.519999999999959, -0.5767346035650223 
0.529999999999958, -0.5765403721549642 
0.5399999999999568, -0.576535990937542 
0.5499999999999557, -0.5767554720613601 
0.5599999999999546, -0.5772395533666004 
0.5699999999999535, -0.578035410503288 
0.5799999999999524, -0.5791948310587587 
0.5899999999999513, -0.5807688575905843 
0.5999999999999502, -0.5827959335210338 
0.6099999999999491, -0.5852808145568088 
0.619999999999948, -0.5881656041566288 
0.6299999999999469, -0.5913047260339093 
0.6399999999999458, -0.594467869044432 
0.6499999999999447, -0.597390624832895 
0.6599999999999436, -0.599857343305821 
0.6699999999999425, -0.6017636962299993 
0.6799999999999414, -0.6031196397088139 
0.6899999999999403, -0.6040056774964754 
0.6999999999999392, -0.6045224872788599 
0.7099999999999381, -0.6047587816691112 
0.719999999999937, -0.6047786412437419 
0.7299999999999359, -0.6046197286289121 
0.7399999999999348, -0.6042947072603664 
0.7499999999999337, -0.6037916140551076 
0.7599999999999326, -0.6030713768127269 
0.7699999999999315, -0.602062219402169 
0.7799999999999304, -0.6006528092900385 
0.7899999999999293, -0.5986906134139413 
0.7999999999999282, -0.5959998210882007 
0.8099999999999271, -0.5924381494420305 
0.819999999999926, -0.5879943156231584 
0.8299999999999249, -0.5828748550348806 
0.8399999999999238, -0.5774904260140112 
0.8499999999999227, -0.572316512534515 
0.8599999999999216, -0.5677261885686486 
0.8699999999999205, -0.5639086022145271 
0.8799999999999194, -0.5608884166229767 
0.8899999999999183, -0.5585900278161805 
0.8999999999999172, -0.556896637437691 
0.9099999999999161, -0.5556870696449401 
0.919999999999915, -0.5548532175955881 
0.9299999999999139, -0.5543058010664849 
0.9399999999999128, -0.553974455398304 
0.9499999999999117, -0.5538056025861362 
0.9599999999999106, -0.5537597762440665 
0.9699999999999095, -0.5538091266538411 
0.9799999999999084, -0.5539353890719048 
0.9899999999999073, -0.5541283597460825 
0.9999999999999062, -0.5543846874704113 
1.0099999999999052, -0.5547064611675412 
1.019999999999904, -0.5550987413668229 
1.029999999999903, -0.55556518106821 
1.039999999999902, -0.556101678929247 
1.0499999999999008, -0.556689765622118 
1.0599999999998997, -0.557293371587744 
1.0699999999998986, -0.5578628013463172 
1.0799999999998975, -0.5583462778136429 
1.0899999999998964, -0.5587037393623113 
1.0999999999998953, -0.5589151417521973 
1.1099999999998942, -0.5589796062432183 
1.119999999999893, -0.5589081303493406 
1.129999999999892, -0.5587150942430116 
1.1399999999998909, -0.5584119324852398 
1.1499999999998898, -0.5580035304364684 
1.1599999999998887, -0.5574863855860008 
1.1699999999998876, -0.5568472798276134 
1.1799999999998865, -0.5560612768616173 
1.1899999999998854, -0.5550876414979794 
1.1999999999998843, -0.5538615863659563 
1.2099999999998832, -0.5522794967559806 
1.219999999999882, -0.5501796314170034 
1.229999999999881, -0.5473382892915291 
1.2399999999998799, -0.5435332691449749 
1.2499999999998788, -0.5387183968308609 
1.2599999999998777, -0.5332149872657921 
1.2699999999998766, -0.5276786693373637 
1.2799999999998755, -0.5227838644071034 
1.2899999999998744, -0.5189179522093527 
1.2999999999998733, -0.5161274043099271 
1.3099999999998722, -0.5142478077458932 
1.319999999999871, -0.5130490752725254 
1.32999999999987, -0.5123197228774911 
1.3399999999998689, -0.5118960256631832 
1.3499999999998678, -0.5116622590816314 
1.3599999999998666, -0.5115408509394512 
1.3699999999998655, -0.5114814203629956 
1.3799999999998644, -0.5114518481021294 
1.3899999999998633, -0.5114319928449576 
1.3999999999998622, -0.5114098308135495 
1.4099999999998611, -0.5113795902420544 
1.41999999999986, -0.511341305932972 
1.429999999999859, -0.5113008852276254 
1.4399999999998578, -0.5112693727374316 
1.4499999999998567, -0.5112601430569693 
1.4599999999998556, -0.5112837602060935 
1.4699999999998545, -0.5113420046044543 
1.4799999999998534, -0.5114239542943546 
1.4899999999998523, -0.5115067748407399 
1.4999999999998512, -0.5115616278097589 
1.5099999999998501, -0.5115619634768901 
1.519999999999849, -0.5114898887370285 
1.529999999999848, -0.5113378987968271 
1.5399999999998468, -0.5111065081249943 
1.5499999999998457, -0.5108002621436091 
1.5599999999998446, -0.5104243180380499 
1.5699999999998435, -0.5099825074290836 
1.5799999999998424, -0.5094768240429197 
1.5899999999998413, -0.5089078702423567 
1.5999999999998402, -0.5082755215228831 
1.6099999999998391, -0.5075782866217391 
1.619999999999838, -0.5068078836234301 
1.629999999999837, -0.5059324691383932 
1.6399999999998358, -0.5048617295356216 
1.6499999999998347, -0.503403490345998 
1.6599999999998336, -0.5012703020191192 
1.6699999999998325, -0.4982302385563244 
1.6799999999998314, -0.49436938230985306 
1.6899999999998303, -0.4901832450352597 
1.6999999999998292, -0.48631168227104193 
1.709999999999828, -0.4831855402279103 
1.719999999999827, -0.4809134127163827 
1.729999999999826, -0.4793863263106181 
1.7399999999998248, -0.47841907124835864 
1.7499999999998237, -0.4778355623824577 
1.7599999999998226, -0.4774991891377282 
1.7699999999998215, -0.4773142331675048 
1.7799999999998204, -0.47721736726530517 
1.7899999999998193, -0.4771681026136093 
1.7999999999998182, -0.47714116496343156 
1.809999999999817, -0.4771213237169377 
1.819999999999816, -0.4771004235349282 
1.8299999999998149, -0.47707617061671587 
1.8399999999998138, -0.4770520437708107 
1.8499999999998127, -0.4770373401537095 
1.8599999999998116, -0.4770460189704484 
1.8699999999998105, -0.47709320405007166 
1.8799999999998094, -0.4771893552319266 
1.8899999999998083, -0.4773338820983068 
1.8999999999998072, -0.4775112878931179 
1.909999999999806, -0.47769265245262116 
1.919999999999805, -0.4778428343253876 
1.9299999999998039, -0.4779301898068849 
1.9399999999998028, -0.47793376026297796 
1.9499999999998017, -0.47784482369484865 
1.9599999999998006, -0.4776635848551852 
1.9699999999997995, -0.47739396752071767 
1.9799999999997984, -0.47703893184959584 
1.9899999999997973, -0.4765970800072606 
1.9999999999997962, -0.4760600493343959 
2.0099999999998173, -0.47540955190088097 
2.0199999999998384, -0.47461242037244816 
2.0299999999998595, -0.47361122562766844 
2.0399999999998806, -0.4723072585715049 
2.0499999999999017, -0.470534722261008 
2.059999999999923, -0.4680381811341804 
2.069999999999944, -0.46449926806880465 
2.079999999999965, -0.4596866394137045 
2.089999999999986, -0.4537161524076316 
2.100000000000007, -0.44718194994083715 
2.1100000000000283, -0.44091751171006377 
2.1200000000000494, -0.4355727886678437 
2.1300000000000705, -0.4314037287065172 
2.1400000000000916, -0.42834872016057995 
2.1500000000001127, -0.42620058917021364 
2.160000000000134, -0.42473150074352234 
2.170000000000155, -0.42374862673125957 
2.180000000000176, -0.4231069293163155 
2.190000000000197, -0.4227040804372745 
2.2000000000002182, -0.42247087138927863 
2.2100000000002393, -0.4223623760886217 
2.2200000000002604, -0.4223513120191379 
2.2300000000002815, -0.42242361391765676 
2.2400000000003026, -0.4225758018039283 
2.2500000000003237, -0.4228135658760476 
2.260000000000345, -0.4231507800171081 
2.270000000000366, -0.42360780696359795 
2.280000000000387, -0.42420761423413167 
2.290000000000408, -0.42496828508019224 
2.3000000000004293, -0.4258916466642182 
2.3100000000004504, -0.42695064621609724 
2.3200000000004715, -0.4280823435770382 
2.3300000000004926, -0.4291951627493115 
2.3400000000005137, -0.43019244258898226 
2.3500000000005348, -0.43100093567054054 
2.360000000000556, -0.4315868771919386 
2.370000000000577, -0.43195251752271757 
2.380000000000598, -0.4321206296982628 
2.390000000000619, -0.4321183900017676 
2.4000000000006403, -0.43196641205499214 
2.4100000000006614, -0.4316727171009235 
2.4200000000006825, -0.4312290819115314 
2.4300000000007036, -0.43060746469386146 
2.4400000000007247, -0.4297555143449746 
2.450000000000746, -0.428592388657479 
2.460000000000767, -0.42701016341388065 
2.470000000000788, -0.4248918672594165 
2.480000000000809, -0.4221584311925401 
2.49000000000083, -0.4188387579337777 
2.5000000000008513, -0.4151171328609281 
2.5100000000008724, -0.4112981730345357 
2.5200000000008935, -0.4076943978456414 
2.5300000000009146, -0.404520535036792 
2.5400000000009357, -0.4018615375277669 
2.550000000000957, -0.39970383448733726 
2.560000000000978, -0.39798414996147485 
2.570000000000999, -0.396626622664206 
2.58000000000102, -0.3955626829410973 
2.5900000000010412, -0.3947387107518293 
2.6000000000010624, -0.39411744203423316 
2.6100000000010835, -0.39367709669485546 
2.6200000000011046, -0.39341033209748566 
2.6300000000011257, -0.3933240021482928 
2.6400000000011468, -0.39344015037468283 
2.650000000001168, -0.3937983905231659 
2.660000000001189, -0.39445953668678013 
2.67000000000121, -0.39550967105085766 
2.680000000001231, -0.3970622172372507 
2.6900000000012523, -0.3992522795949615 
2.7000000000012734, -0.4022124424067715 
2.7100000000012945, -0.4060162030427176 
2.7200000000013156, -0.41058742091775 
2.7300000000013367, -0.41561888061081564 
2.740000000001358, -0.42059670687223616 
2.750000000001379, -0.4249854093595443 
2.7600000000014, -0.4284564850503096 
2.770000000001421, -0.4309681213835728 
2.780000000001442, -0.432670920820989 
2.7900000000014633, -0.4337713285758674 
2.8000000000014844, -0.4344494419558115 
2.8100000000015055, -0.4348352448604091 
2.8200000000015266, -0.4350133385961101 
2.8300000000015477, -0.4350345025274212 
2.840000000001569, -0.43492566458509907 
2.85000000000159, -0.43469686875056024 
2.860000000001611, -0.4343463153066051 
2.870000000001632, -0.43386524700364293 
2.8800000000016532, -0.43324441685698745 
2.8900000000016743, -0.43248282302560614 
2.9000000000016954, -0.43159678632749143 
2.9100000000017165, -0.4306243603353021 
2.9200000000017377, -0.42962015463815695 
2.9300000000017588, -0.42864129120874744 
2.94000000000178, -0.4277320002483929 
2.950000000001801, -0.4269149878725025 
2.960000000001822, -0.4261920410554569 
2.970000000001843, -0.4255507966833668 
2.9800000000018643, -0.42497306614373376 
2.9900000000018854, -0.4244414908476104 
3.0000000000019065, -0.42394339633929945 
3.0100000000019276, -0.42347231693139814 
3.0200000000019487, -0.42302840489855215 
3.03000000000197, -0.4226189457440216 
3.040000000001991, -0.42225988490259264 
3.050000000002012, -0.42197898398741723 
3.060000000002033, -0.421821034714854 
3.070000000002054, -0.421855198188381 
3.0800000000020753, -0.42218329548258043 
3.0900000000020964, -0.4229443193654011 
3.1000000000021175, -0.42430252310798117 
3.1100000000021386, -0.42639471064225465 
3.1200000000021597, -0.4292119989875681 
3.130000000002181, -0.4324471066538309 
3.140000000002202, -0.4354714883037293 
3.150000000002223, -0.43762990188061446 
3.160000000002244, -0.43867803520488247 
3.1700000000022652, -0.4388746170893194 
3.1800000000022863, -0.43866488256399006 
3.1900000000023074, -0.43837752538723995 
3.2000000000023285, -0.4381570160947857 
3.2100000000023496, -0.4380288997683895 
3.2200000000023707, -0.43797110752565294 
3.230000000002392, -0.4379528985273436 
3.240000000002413, -0.4379489287737967 
3.250000000002434, -0.4379415984834124 
3.260000000002455, -0.4379195483649557 
3.2700000000024763, -0.4378757160362535 
3.2800000000024974, -0.4378061681261472 
3.2900000000025185, -0.4377100510188603 
3.3000000000025396, -0.43759057188867867 
3.3100000000025607, -0.4374564322377551 
3.3200000000025818, -0.43732252205500516 
3.330000000002603, -0.4372083896291342 
3.340000000002624, -0.4371336848758909 
3.350000000002645, -0.4371114638732507 
3.360000000002666, -0.4371419495950722 
3.3700000000026873, -0.4372098775206298 
3.3800000000027084, -0.43728738688333646 
3.3900000000027295, -0.4373417369595485 
3.4000000000027506, -0.43734422831204495 
3.4100000000027717, -0.43727595960416776 
3.420000000002793, -0.43712841039813755 
3.430000000002814, -0.43690008651321727 
3.440000000002835, -0.4365918196036394 
3.450000000002856, -0.4362025109573923 
3.460000000002877, -0.43572563922820107 
3.4700000000028983, -0.43514575987163856 
3.4800000000029194, -0.43443352036331306 
3.4900000000029405, -0.43353700282702556 
3.5000000000029616, -0.4323664952256408 
3.5100000000029827, -0.4307708224717265 
3.520000000003004, -0.4285121717615925 
3.530000000003025, -0.4252729465417603 
3.540000000003046, -0.4207635316998357 
3.550000000003067, -0.414962405455731 
3.5600000000030882, -0.4083227019183163 
3.5700000000031094, -0.4016546689448378 
3.5800000000031305, -0.3957150869016521 
3.5900000000031516, -0.3908992876898707 
3.6000000000031727, -0.3872405136200777 
3.6100000000031938, -0.3845720168999796 
3.620000000003215, -0.3826727081878386 
3.630000000003236, -0.3813423227475527 
3.640000000003257, -0.38042491263260486 
3.650000000003278, -0.3798082250916292 
3.6600000000032993, -0.3794155631457449 
3.6700000000033204, -0.37919726473213006 
3.6800000000033415, -0.37912407700380335 
3.6900000000033626, -0.3791827604716613 
3.7000000000033837, -0.3793736277078763 
3.710000000003405, -0.37970951888951265 
3.720000000003426, -0.3802155053804432 
3.730000000003447, -0.38092816173829364 
3.740000000003468, -0.38189245615163775 
3.750000000003489, -0.3831533422181702 
3.7600000000035103, -0.38473888394385314 
3.7700000000035314, -0.3866345492771049 
3.7800000000035525, -0.38875715547421213 
3.7900000000035736, -0.3909492126066873 
3.8000000000035947, -0.3930136815099559 
3.810000000003616, -0.3947797552156252 
3.820000000003637, -0.39615624974760616 
3.830000000003658, -0.3971382045802313 
3.840000000003679, -0.39777561188196026 
3.8500000000037002, -0.3981357552971574 
3.8600000000037213, -0.3982786928372999 
3.8700000000037424, -0.39824711423925774 
3.8800000000037635, -0.39806441459581077 
3.8900000000037847, -0.3977356688985209 
3.9000000000038058, -0.3972490990423422 
3.910000000003827, -0.39657814308491124 
3.920000000003848, -0.3956862580061965 
3.930000000003869, -0.3945378645110065 
3.94000000000389, -0.3931174351086457 
3.9500000000039113, -0.39145191087846687 
3.9600000000039324, -0.38962191288993386 
3.9700000000039535, -0.38774719488743636 
3.9800000000039746, -0.385950030525816 
3.9900000000039957, -0.3843197261175432 
4.000000000004016, -0.38289818607891923 
4.010000000003993, -0.38168687059642387 
4.02000000000397, -0.3806632069996453 
4.030000000003946, -0.37979598120237756 
4.040000000003923, -0.379055562339004 
4.0500000000039, -0.37841917312338247 
4.0600000000038765, -0.37787298923170426 
4.070000000003853, -0.37741290972978403 
4.08000000000383, -0.37704540241421786 
4.090000000003807, -0.3767893901653707 
4.100000000003783, -0.37667987912275147 
4.11000000000376, -0.37677388338999257 
4.120000000003737, -0.37715888280053883 
4.130000000003713, -0.37796285000100105 
4.14000000000369, -0.37936127604519676 
4.150000000003667, -0.3815681138182787 
4.1600000000036434, -0.3847833396412728 
4.17000000000362, -0.38906310471145744 
4.180000000003597, -0.3941274559882272 
4.1900000000035735, -0.3992699929126672 
4.20000000000355, -0.4036173256007897 
4.210000000003527, -0.4066455662496863 
4.220000000003504, -0.4084186859689187 
4.23000000000348, -0.409339549294503 
4.240000000003457, -0.4098027796850089 
4.250000000003434, -0.4100537286023297 
4.26000000000341, -0.41020906380077093 
4.270000000003387, -0.4103141727970697 
4.280000000003364, -0.4103835143946436 
4.2900000000033405, -0.4104204001385866 
4.300000000003317, -0.4104248027037081 
4.310000000003294, -0.4103959361281274 
4.320000000003271, -0.41033313249178177 
4.330000000003247, -0.41023661584514687 
4.340000000003224, -0.41010882608388577 
4.350000000003201, -0.40995631718663966 
4.360000000003177, -0.40979155835472925 
4.370000000003154, -0.40963329507595175 
4.380000000003131, -0.4095040747569169 
4.390000000003107, -0.409424641510905 
4.400000000003084, -0.40940675901154944 
4.410000000003061, -0.4094474078256357 
4.4200000000030375, -0.4095273214257503 
4.430000000003014, -0.40961528693654153 
4.440000000002991, -0.40967681082994395 
4.450000000002968, -0.4096830611557423 
4.460000000002944, -0.40961584480405194 
4.470000000002921, -0.4094672153735721 
4.480000000002898, -0.4092354366797969 
4.490000000002874, -0.40891991698982394 
4.500000000002851, -0.4085166121797659 
4.510000000002828, -0.40801386630835285 
4.520000000002804, -0.4073875880956413 
4.530000000002781, -0.4065939749217133 
4.540000000002758, -0.405557514633941 
4.5500000000027345, -0.40415254477817336 
4.560000000002711, -0.40218174922866057 
4.570000000002688, -0.3993718129688322 
4.580000000002665, -0.39543564116055274 
4.590000000002641, -0.39024902727649596 
4.600000000002618, -0.38406887174478554 
4.610000000002595, -0.3775513340542065 
4.620000000002571, -0.3714546537071358 
4.630000000002548, -0.36629024368381297 
4.640000000002525, -0.3622154981968846 
4.6500000000025015, -0.3591416219647705 
4.660000000002478, -0.3568811693942867 
4.670000000002455, -0.35524196560199484 
4.6800000000024315, -0.35406534439004916 
4.690000000002408, -0.3532333425818054 
4.700000000002385, -0.3526639111960529 
4.710000000002362, -0.352303616005384 
4.720000000002338, -0.35212142369000665 
4.730000000002315, -0.3521045390881206 
4.740000000002292, -0.3522563082816631 
4.750000000002268, -0.35259590514825817 
4.760000000002245, -0.3531593229767017 
4.770000000002222, -0.3540007382855761 
4.7800000000021985, -0.355192253101782 
4.790000000002175, -0.35681804069155754 
4.800000000002152, -0.35895631766858876 
4.810000000002129, -0.361642077095787 
4.820000000002105, -0.36481262331346537 
4.830000000002082, -0.36826384043695104 
4.840000000002059, -0.3716705844917676 
4.850000000002035, -0.3746958561116526 
4.860000000002012, -0.37712261601861324 
4.870000000001989, -0.3789052807163787 
4.880000000001965, -0.38012289561740553 
