t, s[1].omega / s[0].omega 
0, -0.549997742340518 
0.009999999999999995, -0.5497784864877039 
0.019999999999999934, -0.5495672031965836 
0.029999999999999874, -0.5493513224222126 
0.04000000000000012, -0.549115721172059 
0.050000000000000405, -0.5488479741943232 
0.06000000000000069, -0.5485414233955409 
0.07000000000000098, -0.5481956108159416 
0.08000000000000126, -0.5478152579157922 
0.09000000000000155, -0.547409387589469 
0.10000000000000184, -0.5469917249207168 
0.11000000000000212, -0.5465829710022313 
0.12000000000000241, -0.5462152951540439 
0.130000000000002, -0.5459393042606474 
0.1400000000000009, -0.545833384470082 
0.1499999999999998, -0.5460139262504057 
0.1599999999999987, -0.5466413722162065 
0.1699999999999976, -0.5479101807077719 
0.1799999999999965, -0.5500027705492553 
0.1899999999999954, -0.5529913550872159 
0.1999999999999943, -0.5567142784165627 
0.2099999999999932, -0.5607345354728162 
0.2199999999999921, -0.5644948712824244 
0.229999999999991, -0.5675930308843317 
0.2399999999999899, -0.569924875549377 
0.2499999999999888, -0.5716006974357379 
0.2599999999999877, -0.5727894103133053 
0.2699999999999866, -0.5736306471457359 
0.2799999999999855, -0.5742189973654874 
0.2899999999999844, -0.5746155588887859 
0.2999999999999833, -0.5748603632816914 
0.3099999999999822, -0.574979673657116 
0.3199999999999811, -0.574989405071108 
0.32999999999998, -0.5748965654310935 
0.3399999999999789, -0.5746999514093665 
0.3499999999999778, -0.5743909952457084 
0.35999999999997667, -0.5739557534800073 
0.36999999999997557, -0.5733791706656196 
0.37999999999997447, -0.5726522047519776 
0.38999999999997337, -0.5717804261427015 
0.39999999999997227, -0.5707898670887979 
0.40999999999997117, -0.5697251497027197 
0.41999999999997006, -0.5686389925954317 
0.42999999999996896, -0.5675785113646289 
0.43999999999996786, -0.566575816260044 
0.44999999999996676, -0.5656464103942803 
0.45999999999996566, -0.5647935923047832 
0.46999999999996456, -0.5640149050687724 
0.47999999999996346, -0.5633076570023916 
0.48999999999996235, -0.5626724969601776 
0.49999999999996125, -0.5621153979487276 
0.5099999999999602, -0.5616488431933144 
0.519999999999959, -0.5612928608935704 
0.529999999999958, -0.5610762426539544 
0.5399999999999568, -0.5610380261249618 
0.5499999999999557, -0.5612291343731121 
0.5599999999999546, -0.5617138268143778 
0.5699999999999535, -0.562570138469659 
0.5799999999999524, -0.5638875308308055 
0.5899999999999513, -0.5657584099328185 
0.5999999999999502, -0.5682584610545462 
0.6099999999999491, -0.5714111740510205 
0.619999999999948, -0.5751396027449122 
0.6299999999999469, -0.5792276725092194 
0.6399999999999458, -0.5833333405297385 
0.6499999999999447, -0.587080593503633 
0.6599999999999436, -0.5901896736579358 
0.6699999999999425, -0.5925546414311025 
0.6799999999999414, -0.594223808024956 
0.6899999999999403, -0.5953246885597057 
0.6999999999999392, -0.5959960514620313 
0.7099999999999381, -0.5963525552123932 
0.719999999999937, -0.5964751990988042 
0.7299999999999359, -0.5964135452834689 
0.7399999999999348, -0.5961904055829261 
0.7499999999999337, -0.5958049622989396 
0.7599999999999326, -0.5952332837008157 
0.7699999999999315, -0.5944268507123176 
0.7799999999999304, -0.5933115297441807 
0.7899999999999293, -0.5917923940882102 
0.7999999999999282, -0.5897729687129152 
0.8099999999999271, -0.5871953933851995 
0.819999999999926, -0.5840923159539108 
0.8299999999999249, -0.5806166533164185 
0.8399999999999238, -0.5770137130488019 
0.8499999999999227, -0.5735433441044526 
0.8599999999999216, -0.5704042347634857 
0.8699999999999205, -0.567702621346932 
0.8799999999999194, -0.5654641467154249 
0.8899999999999183, -0.563663573759188 
0.8999999999999172, -0.5622520297753096 
0.9099999999999161, -0.5611746810530587 
0.919999999999915, -0.5603798032110996 
0.9299999999999139, -0.5598224324289711 
0.9399999999999128, -0.5594652866781592 
0.9499999999999117, -0.5592785909783498 
0.9599999999999106, -0.5592396159776206 
0.9699999999999095, -0.5593322508109441 
0.9799999999999084, -0.5595466706454122 
0.9899999999999073, -0.5598789855032055 
0.9999999999999062, -0.5603305510000551 
1.0099999999999052, -0.5609063311353044 
1.019999999999904, -0.5616114305521742 
1.029999999999903, -0.5624450203954792 
1.039999999999902, -0.5633919539863327 
1.0499999999999008, -0.5644147540791538 
1.0599999999998997, -0.5654513708263548 
1.0699999999998986, -0.5664239882988046 
1.0799999999998975, -0.5672581413294759 
1.0899999999998964, -0.567902609687025 
1.0999999999998953, -0.5683385081853846 
1.1099999999998942, -0.5685742833663872 
1.119999999999893, -0.5686328958263146 
1.129999999999892, -0.5685393212194495 
1.1399999999998909, -0.5683122808505305 
1.1499999999998898, -0.5679598805839117 
1.1599999999998887, -0.5674771464072881 
1.1699999999998876, -0.5668434605960375 
1.1799999999998865, -0.5660183178951416 
1.1899999999998854, -0.564934137209573 
1.1999999999998843, -0.5634855543870804 
1.2099999999998832, -0.5615175767541879 
1.219999999999882, -0.5588240061541199 
1.229999999999881, -0.5551843176063883 
1.2399999999998799, -0.5504737135898864 
1.2499999999998788, -0.5448267108569068 
1.2599999999998777, -0.5387170164947869 
1.2699999999998766, -0.5328106753820374 
1.2799999999998755, -0.5276752943340185 
1.2899999999998744, -0.5235901236758478 
1.2999999999998733, -0.5205575604762458 
1.3099999999998722, -0.5184211123367138 
1.319999999999871, -0.5169760853400084 
1.32999999999987, -0.5160323628372592 
1.3399999999998689, -0.5154375124852348 
1.3499999999998678, -0.515078647944679 
1.3599999999998666, -0.5148760911443159 
1.3699999999998655, -0.5147754005095411 
1.3799999999998644, -0.5147403692596288 
1.3899999999998633, -0.5147477381840071 
1.3999999999998622, -0.5147836393069463 
1.4099999999998611, -0.5148415126161388 
1.41999999999986, -0.5149210317067617 
1.429999999999859, -0.5150272722245873 
1.4399999999998578, -0.5151690569334268 
1.4499999999998567, -0.5153554935301218 
1.4599999999998556, -0.5155905968153236 
1.4699999999998545, -0.5158674838172792 
1.4799999999998534, -0.5161650877725775 
1.4899999999998523, -0.5164502692410384 
1.4999999999998512, -0.5166856658981716 
1.5099999999998501, -0.5168397345781273 
1.519999999999849, -0.5168936169955941 
1.529999999999848, -0.5168418520129131 
1.5399999999998468, -0.5166881858069245 
1.5499999999998457, -0.5164398376017103 
1.5599999999998446, -0.5161027507672515 
1.5699999999998435, -0.5156785405400924 
1.5799999999998424, -0.5151626352317784 
1.5899999999998413, -0.5145426561786082 
1.5999999999998402, -0.5137958592991109 
1.6099999999998391, -0.5128839692968109 
1.619999999999838, -0.5117429181804661 
1.629999999999837, -0.5102652128110245 
1.6399999999998358, -0.5082790257011438 
1.6499999999998347, -0.5055496033677562 
1.6599999999998336, -0.5018587588844163 
1.6699999999998325, -0.49719121812088085 
1.6799999999998314, -0.4919018538263858 
1.6899999999998303, -0.4866342482389772 
1.6999999999998292, -0.48200068073790325 
1.709999999999828, -0.4783258066183819 
1.719999999999827, -0.475631762619494 
1.729999999999826, -0.4737663051472708 
1.7399999999998248, -0.4725275519834805 
1.7499999999998237, -0.4717321005633831 
1.7599999999998226, -0.47123746361325347 
1.7699999999998215, -0.4709416920732753 
1.7799999999998204, -0.47077532042635284 
1.7899999999998193, -0.47069259703879773 
1.7999999999998182, -0.470664386338838 
1.809999999999817, -0.47067318642730493 
1.819999999999816, -0.4707100446912382 
1.8299999999998149, -0.4707729418245782 
1.8399999999998138, -0.47086603088455536 
1.8499999999998127, -0.47099882668877135 
1.8599999999998116, -0.4711841921729986 
1.8699999999998105, -0.47143416203437283 
1.8799999999998094, -0.47175364510021633 
1.8899999999998083, -0.4721337584851356 
1.8999999999998072, -0.47254816530284194 
1.909999999999806, -0.4729558318605903 
1.919999999999805, -0.473310725983076 
1.9299999999998039, -0.4735741741000911 
1.9399999999998028, -0.473723199360992 
1.9499999999998017, -0.47375115128088563 
1.9599999999998006, -0.4736622802448086 
1.9699999999997995, -0.47346444926865877 
1.9799999999997984, -0.4731629667334934 
1.9899999999997973, -0.4727561535277333 
1.9999999999997962, -0.47223171202506925 
2.0099999999998173, -0.47156238589380556 
2.0199999999998384, -0.47069923077399567 
2.0299999999998595, -0.46956091159710295 
2.0399999999998806, -0.46801887395053965 
2.0499999999999017, -0.4658843059645973 
2.059999999999923, -0.4629182014500544 
2.069999999999944, -0.4589048529389143 
2.079999999999965, -0.4538098227717563 
2.089999999999986, -0.44793448562519755 
2.100000000000007, -0.44188173189580304 
2.1100000000000283, -0.43629372120637555 
2.1200000000000494, -0.43158678896299046 
2.1300000000000705, -0.42788265991577507 
2.1400000000000916, -0.4250991465237986 
2.1500000000001127, -0.4230691885301693 
2.160000000000134, -0.4216188099601538 
2.170000000000155, -0.4206009372880324 
2.180000000000176, -0.4199031687921238 
2.190000000000197, -0.4194445754598689 
2.2000000000002182, -0.41916957535279475 
2.2100000000002393, -0.41904219805621257 
2.2200000000002604, -0.41904175410780137 
2.2300000000002815, -0.41915999432407824 
2.2400000000003026, -0.4193994945829984 
2.2500000000003237, -0.4197727886677355 
2.260000000000345, -0.4203014606535441 
2.270000000000366, -0.42101391009180944 
2.280000000000387, -0.4219399336784905 
2.290000000000408, -0.42310014067651586 
2.3000000000004293, -0.4244897103860493 
2.3100000000004504, -0.42606062747777995 
2.3200000000004715, -0.42771358872181836 
2.3300000000004926, -0.42931299541021356 
2.3400000000005137, -0.4307256637116047 
2.3500000000005348, -0.4318619162873426 
2.360000000000556, -0.43269268626567514 
2.370000000000577, -0.4332374186034393 
2.380000000000598, -0.4335388340218874 
2.390000000000619, -0.43364135764678213 
2.4000000000006403, -0.43357900332372334 
2.4100000000006614, -0.4333705015850168 
2.4200000000006825, -0.4330177034971424 
2.4300000000007036, -0.43250459599789776 
2.4400000000007247, -0.4317961852365021 
2.450000000000746, -0.4308386455002345 
2.460000000000767, -0.42956480854943574 
2.470000000000788, -0.42791129604311184 
2.480000000000809, -0.42585088035183893 
2.49000000000083, -0.42343014120506783 
2.5000000000008513, -0.42078438192928064 
2.5100000000008724, -0.418105820419406 
2.5200000000008935, -0.4155790343908928 
2.5300000000009146, -0.4133279837353201 
2.5400000000009357, -0.4114025746764184 
2.550000000000957, -0.40979656874945036 
2.560000000000978, -0.4084743804513593 
2.570000000000999, -0.40739227188047133 
2.58000000000102, -0.4065106010389464 
2.5900000000010412, -0.4057992681846992 
2.6000000000010624, -0.40523944558112 
2.6100000000010835, -0.40482391705228676 
2.6200000000011046, -0.4045574305932334 
2.6300000000011257, -0.40445783377732614 
2.6400000000011468, -0.40455841099868095 
2.650000000001168, -0.4049116088015963 
2.660000000001189, -0.4055939568646437 
2.67000000000121, -0.40671102711394636 
2.680000000001231, -0.4083989838297983 
2.6900000000012523, -0.41081478729731524 
2.7000000000012734, -0.414100946167531 
2.7100000000012945, -0.4183096922668287 
2.7200000000013156, -0.42329461028114546 
2.7300000000013367, -0.42864011365925964 
2.740000000001358, -0.4337448033517715 
2.750000000001379, -0.43807121786965136 
2.7600000000014, -0.44136929351526355 
2.770000000001421, -0.4436887650396197 
2.780000000001442, -0.4452345929383651 
2.7900000000014633, -0.4462280960731279 
2.8000000000014844, -0.44684365330517134 
2.8100000000015055, -0.44720026631261145 
2.8200000000015266, -0.4473731689711463 
2.8300000000015477, -0.44740715501758876 
2.840000000001569, -0.4473263979605087 
2.85000000000159, -0.4471408554718136 
2.860000000001611, -0.4468507392833154 
2.870000000001632, -0.44645069436361595 
2.8800000000016532, -0.44593507296257495 
2.8900000000016743, -0.4453047557735935 
2.9000000000016954, -0.4445739966431093 
2.9100000000017165, -0.4437735868083297 
2.9200000000017377, -0.44294679541364906 
2.9300000000017588, -0.44213861156790984 
2.94000000000178, -0.44138375639939814 
2.950000000001801, -0.4406996584300683 
2.960000000001822, -0.4400866707251464 
2.970000000001843, -0.4395335154321377 
2.9800000000018643, -0.43902431344787285 
2.9900000000018854, -0.43854432231421636 
3.0000000000019065, -0.4380832136205125 
3.0100000000019276, -0.4376362452721991 
3.0200000000019487, -0.43720444824670335 
3.03000000000197, -0.4367949672922019 
3.040000000001991, -0.4364223738391931 
3.050000000002012, -0.4361114699979766 
3.060000000002033, -0.43590189081898806 
3.070000000002054, -0.43585442360246524 
3.0800000000020753, -0.4360577424687232 
3.0900000000020964, -0.4366309853023017 
3.1000000000021175, -0.4377108133843056 
3.1100000000021386, -0.4394027506250836 
3.1200000000021597, -0.44168011548061614 
3.130000000002181, -0.44426531327576974 
3.140000000002202, -0.4466322938254484 
3.150000000002223, -0.44826281095625103 
3.160000000002244, -0.4489890859202319 
3.1700000000022652, -0.4490437573024836 
3.1800000000022863, -0.44879625741649704 
3.1900000000023074, -0.4485125753643134 
3.2000000000023285, -0.4483049776435212 
3.2100000000023496, -0.4481875537392848 
3.2200000000023707, -0.4481359347078455 
3.230000000002392, -0.44811995193451376 
3.240000000002413, -0.4481152915904705 
3.250000000002434, -0.44810515173526533 
3.260000000002455, -0.4480786275887033 
3.2700000000024763, -0.4480287903024669 
3.2800000000024974, -0.4479515338736772 
3.2900000000025185, -0.4478455044615325 
3.3000000000025396, -0.4477130424265073 
3.3100000000025607, -0.4475616105617263 
3.3200000000025818, -0.4474045860507777 
3.330000000002603, -0.4472599815932556 
3.340000000002624, -0.44714628588214644 
3.350000000002645, -0.44707624536216084 
3.360000000002666, -0.44705107360872925 
3.3700000000026873, -0.44705803208895895 
3.3800000000027084, -0.4470730843757795 
3.3900000000027295, -0.4470677895810356 
3.4000000000027506, -0.44701712832954305 
3.4100000000027717, -0.4469045045788854 
3.420000000002793, -0.4467222961557512 
3.430000000002814, -0.4464690643126536 
3.440000000002835, -0.44614564144151697 
3.450000000002856, -0.4457516467022372 
3.460000000002877, -0.4452827651140196 
3.4700000000028983, -0.444728221332016 
3.4800000000029194, -0.4440672817220176 
3.4900000000029405, -0.44326294376162984 
3.5000000000029616, -0.4422500566375921 
3.5100000000029827, -0.4409150244934234 
3.520000000003004, -0.43906959461426603 
3.530000000003025, -0.43644176664696116 
3.540000000003046, -0.43274280963925127 
3.550000000003067, -0.4278624295255048 
3.5600000000030882, -0.42209240494748 
3.5700000000031094, -0.41610872770478025 
3.5800000000031305, -0.41063854735000094 
3.5900000000031516, -0.40612815502262817 
3.6000000000031727, -0.4026765908802279 
3.6100000000031938, -0.40016237220347584 
3.620000000003215, -0.39838709739752926 
3.630000000003236, -0.3971594178802374 
3.640000000003257, -0.3963259068696256 
3.650000000003278, -0.39577431466509927 
3.6600000000032993, -0.3954269516643216 
3.6700000000033204, -0.3952325239630594 
3.6800000000033415, -0.3951593612155236 
3.6900000000033626, -0.39519066046312046 
3.7000000000033837, -0.39532155713633593 
3.710000000003405, -0.3955575709944198 
3.720000000003426, -0.3959137876176342 
3.730000000003447, -0.39641381339628 
3.740000000003468, -0.39708705481343237 
3.750000000003489, -0.39796243039078294 
3.7600000000035103, -0.39905684687582793 
3.7700000000035314, -0.4003588730207238 
3.7800000000035525, -0.40181318419934364 
3.7900000000035736, -0.4033175713512164 
3.8000000000035947, -0.40474327335881155 
3.810000000003616, -0.4059738220647932 
3.820000000003637, -0.40693911422896945 
3.830000000003658, -0.40762388742530875 
3.840000000003679, -0.4080520265516204 
3.8500000000037002, -0.40826327933504886 
3.8600000000037213, -0.40829546833965447 
3.8700000000037424, -0.40817514288549644 
3.8800000000037635, -0.4079138981295028 
3.8900000000037847, -0.40750699310292793 
3.9000000000038058, -0.4069324103737624 
3.910000000003827, -0.406150459556469 
3.920000000003848, -0.40510631817851184 
3.930000000003869, -0.40374033792195113 
3.94000000000389, -0.40201112630340463 
3.9500000000039113, -0.3999290776842606 
3.9600000000039324, -0.3975820785842895 
3.9700000000039535, -0.39512672975891394 
3.9800000000039746, -0.3927399022702447 
3.9900000000039957, -0.3905616593228264 
4.000000000004016, -0.38866595018177397 
4.010000000003993, -0.3870660399099709 
4.02000000000397, -0.38573736838399897 
4.030000000003946, -0.38464016908933674 
4.040000000003923, -0.38373450092771405 
4.0500000000039, -0.38298789075019257 
4.0600000000038765, -0.3823782861912222 
4.070000000003853, -0.3818948791263765 
4.08000000000383, -0.3815385462334997 
4.090000000003807, -0.3813229601390671 
4.100000000003783, -0.38127701508796313 
4.11000000000376, -0.3814489962246488 
4.120000000003737, -0.3819126743774953 
4.130000000003713, -0.38277479450725976 
4.14000000000369, -0.3841813939917173 
4.150000000003667, -0.38631560821166067 
4.1600000000036434, -0.3893710106805091 
4.17000000000362, -0.3934764066239144 
4.180000000003597, -0.39856168700457956 
4.1900000000035735, -0.40422624662017526 
4.20000000000355, -0.4097724825575044 
4.210000000003527, -0.41450134353158286 
4.220000000003504, -0.41805565796067395 
4.23000000000348, -0.4204872081174032 
4.240000000003457, -0.4220626681330454 
4.250000000003434, -0.42306123166083287 
4.26000000000341, -0.4236890765556775 
4.270000000003387, -0.4240767981850362 
4.280000000003364, -0.42430191403042183 
4.2900000000033405, -0.42440933955810767 
4.300000000003317, -0.42442451004953596 
4.310000000003294, -0.42436089240158276 
4.320000000003271, -0.42422440773149955 
4.330000000003247, -0.42401665745451167 
4.340000000003224, -0.4237381945417247 
4.350000000003201, -0.4233923903987458 
4.360000000003177, -0.4229894183406396 
4.370000000003154, -0.4225486420774366 
4.380000000003131, -0.422097254852887 
4.390000000003107, -0.42166447900167386 
4.400000000003084, -0.4212734470377704 
4.410000000003061, -0.4209346380967326 
4.4200000000030375, -0.42064387823712074 
4.430000000003014, -0.42038539136186104 
4.440000000002991, -0.4201380340919386 
4.450000000002968, -0.4198817234625015 
4.460000000002944, -0.4196015507719483 
4.470000000002921, -0.4192887775028823 
4.480000000002898, -0.4189395791278889 
4.490000000002874, -0.4185530007206486 
4.500000000002851, -0.41812918179737946 
4.510000000002828, -0.4176681805006397 
4.520000000002804, -0.41716910076963476 
4.530000000002781, -0.416628599164944 
4.540000000002758, -0.4160367730097902 
4.5500000000027345, -0.4153664299054992 
4.560000000002711, -0.41454934931189813 
4.570000000002688, -0.4134354315623562 
4.580000000002665, -0.4117525481206137 
4.590000000002641, -0.40913901892467724 
4.600000000002618, -0.4053453367549067 
4.610000000002595, -0.4005330964526255 
4.620000000002571, -0.3953316579683759 
4.630000000002548, -0.39049288073113364 
4.640000000002525, -0.38650017436056544 
4.6500000000025015, -0.38347412123781244 
4.660000000002478, -0.3813039290749926 
4.670000000002455, -0.37980001087263515 
4.6800000000024315, -0.37878097261533406 
4.690000000002408, -0.37810388245484206 
4.700000000002385, -0.3776663158994286 
4.710000000002362, -0.3773990014551468 
4.720000000002338, -0.37725744099461334 
4.730000000002315, -0.3772152451259959 
4.740000000002292, -0.3772596367381184 
4.750000000002268, -0.37738882743297963 
4.760000000002245, -0.37761073806281836 
4.770000000002222, -0.3779423404646601 
4.7800000000021985, -0.3784085594865517 
4.790000000002175, -0.37903921709465693 
4.800000000002152, -0.37986219492350787 
4.810000000002129, -0.38089149762476804 
4.820000000002105, -0.3821113761078178 
4.830000000002082, -0.3834629046339759 
4.840000000002059, -0.3848445964858838 
4.850000000002035, -0.3861353366927085 
4.860000000002012, -0.38723156755989246 
4.870000000001989, -0.3880757664067264 
4.880000000001965, -0.38865991573208575 
