t, s[1].omega / s[0].omega 
0, -0.7099976879086879 
0.009999999999999995, -0.7097507882679888 
0.019999999999999934, -0.7094701299206712 
0.029999999999999874, -0.7091494776785636 
0.04000000000000012, -0.70878327284388 
0.050000000000000405, -0.7083706803117302 
0.06000000000000069, -0.7079177591042237 
0.07000000000000098, -0.7074379887592713 
0.08000000000000126, -0.7069525204452012 
0.09000000000000155, -0.706491315912438 
0.10000000000000184, -0.7060954419338625 
0.11000000000000212, -0.7058199204652531 
0.12000000000000241, -0.7057359721041501 
0.130000000000002, -0.7059312811997425 
0.1400000000000009, -0.7065070663995332 
0.1499999999999998, -0.7075711270684578 
0.1599999999999987, -0.7092262478386027 
0.1699999999999976, -0.711552967553515 
0.1799999999999965, -0.714585144089527 
0.1899999999999954, -0.7182781321890639 
0.1999999999999943, -0.7224764604806618 
0.2099999999999932, -0.7269015810713466 
0.2199999999999921, -0.7311889974641147 
0.229999999999991, -0.7349833102740265 
0.2399999999999899, -0.7380475636885465 
0.2499999999999888, -0.7403157142560746 
0.2599999999999877, -0.7418619713746889 
0.2699999999999866, -0.7428273189963484 
0.2799999999999855, -0.7433561656832415 
0.2899999999999844, -0.7435638844996655 
0.2999999999999833, -0.7435284428745523 
0.3099999999999822, -0.7432928993429827 
0.3199999999999811, -0.7428697941331251 
0.32999999999998, -0.7422433800749729 
0.3399999999999789, -0.7413684322975216 
0.3499999999999778, -0.7401656934163328 
0.35999999999997667, -0.7385151352769319 
0.36999999999997557, -0.7362505336281823 
0.37999999999997447, -0.7331642971606331 
0.38999999999997337, -0.7290420990177193 
0.39999999999997227, -0.7237575644267464 
0.40999999999997117, -0.7174362504249213 
0.41999999999997006, -0.7105975575348187 
0.42999999999996896, -0.704077797156193 
0.43999999999996786, -0.698676938042768 
0.44999999999996676, -0.6948016607897198 
0.45999999999996566, -0.6923962752934275 
0.46999999999996456, -0.691125735139732 
0.47999999999996346, -0.6905947907075245 
0.48999999999996235, -0.690475871487352 
0.49999999999996125, -0.6905443117653232 
0.5099999999999602, -0.6906643874240694 
0.519999999999959, -0.6907612299996274 
0.529999999999958, -0.6907952728715533 
0.5399999999999568, -0.6907438159155486 
0.5499999999999557, -0.6905892009648046 
0.5599999999999546, -0.6903120254638997 
0.5699999999999535, -0.6898885051235999 
0.5799999999999524, -0.6892922002720854 
0.5899999999999513, -0.6885007213377856 
0.5999999999999502, -0.6875064709495914 
0.6099999999999491, -0.6863268224904605 
0.619999999999948, -0.6850065436474837 
0.6299999999999469, -0.6836085868840689 
0.6399999999999458, -0.6821977450273099 
0.6499999999999447, -0.6808267509653073 
0.6599999999999436, -0.6795310638152092 
0.6699999999999425, -0.67833162174625 
0.6799999999999414, -0.6772410583953263 
0.6899999999999403, -0.676269430148706 
0.6999999999999392, -0.6754277183433508 
0.7099999999999381, -0.6747290562868592 
0.719999999999937, -0.6741883063003961 
0.7299999999999359, -0.6738206996777656 
0.7399999999999348, -0.6736401862479074 
0.7499999999999337, -0.673658057755363 
0.7599999999999326, -0.6738822545928504 
0.7699999999999315, -0.6743174752774516 
0.7799999999999304, -0.6749658006327826 
0.7899999999999293, -0.6758270969011266 
0.7999999999999282, -0.6768980704653219 
0.8099999999999271, -0.6781686897928825 
0.819999999999926, -0.6796152012395991 
0.8299999999999249, -0.681190852678031 
0.8399999999999238, -0.6828189505669879 
0.8499999999999227, -0.6843960029481291 
0.8599999999999216, -0.6858103908775898 
0.8699999999999205, -0.6869713232162118 
0.8799999999999194, -0.6878318010194825 
0.8899999999999183, -0.6883918960230668 
0.8999999999999172, -0.6886839156507626 
0.9099999999999161, -0.6887520047469076 
0.919999999999915, -0.6886367065058034 
0.9299999999999139, -0.6883673260923355 
0.9399999999999128, -0.687960134614627 
0.9499999999999117, -0.6874198390029089 
0.9599999999999106, -0.6867430813191812 
0.9699999999999095, -0.6859242752224665 
0.9799999999999084, -0.6849650852469901 
0.9899999999999073, -0.6838884997942423 
0.9999999999999062, -0.6827549942410449 
1.0099999999999052, -0.6816698523430497 
1.019999999999904, -0.6807612266420406 
1.029999999999903, -0.6801183819926606 
1.039999999999902, -0.6797327143992438 
1.0499999999999008, -0.679528974320915 
1.0599999999998997, -0.6794781825956019 
1.0699999999998986, -0.6796341817874598 
1.0799999999998975, -0.6800386035187065 
1.0899999999998964, -0.680642268533448 
1.0999999999998953, -0.6813308232068428 
1.1099999999998942, -0.6819908407484092 
1.119999999999893, -0.682547611731732 
1.129999999999892, -0.6829672945183355 
1.1399999999998909, -0.6832429510659116 
1.1499999999998898, -0.6833794436021237 
1.1599999999998887, -0.6833824383930134 
1.1699999999998876, -0.6832514990149313 
1.1799999999998865, -0.6829759238896911 
1.1899999999998854, -0.6825325576906006 
1.1999999999998843, -0.6818861650624534 
1.2099999999998832, -0.6809944551102789 
1.219999999999882, -0.6798202287257781 
1.229999999999881, -0.6783501501504046 
1.2399999999998799, -0.6766126586640695 
1.2499999999998788, -0.6746822633632139 
1.2599999999998777, -0.6726633468397455 
1.2699999999998766, -0.670661939817752 
1.2799999999998755, -0.6687624406999135 
1.2899999999998744, -0.6670192449316614 
1.2999999999998733, -0.6654610524265367 
1.3099999999998722, -0.6641001486998921 
1.319999999999871, -0.6629406746575227 
1.32999999999987, -0.6619836223641901 
1.3399999999998689, -0.6612287874750771 
1.3499999999998678, -0.6606748196215475 
1.3599999999998666, -0.6603185330555777 
1.3699999999998655, -0.6601543409964636 
1.3799999999998644, -0.6601743004558973 
1.3899999999998633, -0.6603688772341181 
1.3999999999998622, -0.6607282109198147 
1.4099999999998611, -0.6612434093144206 
1.41999999999986, -0.661907213889605 
1.429999999999859, -0.6627132138118994 
1.4399999999998578, -0.6636527255963023 
1.4499999999998567, -0.6647088697064232 
1.4599999999998556, -0.6658488535137436 
1.4699999999998545, -0.6670181147285972 
1.4799999999998534, -0.6681421224103878 
1.4899999999998523, -0.669139650447197 
1.4999999999998512, -0.6699435668353909 
1.5099999999998501, -0.6705175570934456 
1.519999999999849, -0.6708590886040484 
1.529999999999848, -0.6709894322783395 
1.5399999999998468, -0.6709392938441269 
1.5499999999998457, -0.6707376005924498 
1.5599999999998446, -0.6704059018054934 
1.5699999999998435, -0.6699574652227358 
1.5799999999998424, -0.6693996627837745 
1.5899999999998413, -0.6687392441819184 
1.5999999999998402, -0.6679912899993802 
1.6099999999998391, -0.6671931365521689 
1.619999999999838, -0.6664230719028016 
1.629999999999837, -0.6658177431481016 
1.6399999999998358, -0.6655701564140635 
1.6499999999998347, -0.6658787795087008 
1.6599999999998336, -0.666836364542486 
1.6699999999998325, -0.6683256089370724 
1.6799999999998314, -0.6700563520374357 
1.6899999999998303, -0.6717559382027418 
1.6999999999998292, -0.67330544976473 
1.709999999999828, -0.674694335932755 
1.719999999999827, -0.6759213999878501 
1.729999999999826, -0.6769658922235379 
1.7399999999998248, -0.6778075353662032 
1.7499999999998237, -0.678442791533723 
1.7599999999998226, -0.6788842463600355 
1.7699999999998215, -0.6791519474721592 
1.7799999999998204, -0.6792647732345729 
1.7899999999998193, -0.6792344226671438 
1.7999999999998182, -0.6790616505748202 
1.809999999999817, -0.6787338632884449 
1.819999999999816, -0.6782239506211847 
1.8299999999998149, -0.6774916305044576 
1.8399999999998138, -0.6764900676842809 
1.8499999999998127, -0.6751805495572605 
1.8599999999998116, -0.6735539476489226 
1.8699999999998105, -0.6716494165651961 
1.8799999999998094, -0.6695559342370847 
1.8899999999998083, -0.6673910930343203 
1.8999999999998072, -0.6652691284942726 
1.909999999999806, -0.6632771669702369 
1.919999999999805, -0.6614686177854349 
1.9299999999998039, -0.6598694599035599 
1.9399999999998028, -0.6584886901585572 
1.9499999999998017, -0.6573269829392261 
1.9599999999998006, -0.6563816978101719 
1.9699999999997995, -0.6556487910818904 
1.9799999999997984, -0.6551229333728752 
1.9899999999997973, -0.6547970290050196 
1.9999999999997962, -0.654661951592835 
2.0099999999998173, -0.6547068896707317 
2.0199999999998384, -0.6549203178440315 
2.0299999999998595, -0.6552913149809246 
2.0399999999998806, -0.6558107483344863 
2.0499999999999017, -0.6564716841269227 
2.059999999999923, -0.6572682265641681 
2.069999999999944, -0.6581919460253342 
2.079999999999965, -0.6592255626167416 
2.089999999999986, -0.660335187192958 
2.100000000000007, -0.6614651146584027 
2.1100000000000283, -0.6625409355747556 
2.1200000000000494, -0.6634839545211453 
2.1300000000000705, -0.6642317622054154 
2.1400000000000916, -0.6647531848565872 
2.1500000000001127, -0.6650492419222879 
2.160000000000134, -0.6651423396600865 
2.170000000000155, -0.6650623699089847 
2.180000000000176, -0.6648364643447491 
2.190000000000197, -0.664484195321599 
2.2000000000002182, -0.6640171323582023 
2.2100000000002393, -0.6634414626847904 
2.2200000000002604, -0.6627634247393158 
2.2300000000002815, -0.6619983864973361 
2.2400000000003026, -0.6611846521873331 
2.2500000000003237, -0.6604010943465349 
2.260000000000345, -0.6597811129844289 
2.270000000000366, -0.6595032916192602 
2.280000000000387, -0.659731466951873 
2.290000000000408, -0.6605056217926142 
2.3000000000004293, -0.661669081332342 
2.3100000000004504, -0.6629532122132877 
2.3200000000004715, -0.6641702571749832 
2.3300000000004926, -0.6652892837748614 
2.3400000000005137, -0.6663408184138261 
2.3500000000005348, -0.6673221227092239 
2.360000000000556, -0.6681941505432188 
2.370000000000577, -0.6689174775399723 
2.380000000000598, -0.6694730955811881 
2.390000000000619, -0.6698619291216912 
2.4000000000006403, -0.6700954769209582 
2.4100000000006614, -0.6701865056712275 
2.4200000000006825, -0.670142496150352 
2.4300000000007036, -0.669961519344161 
2.4400000000007247, -0.6696297537821324 
2.450000000000746, -0.6691206409946963 
2.460000000000767, -0.6683970108205877 
2.470000000000788, -0.6674186596305458 
2.480000000000809, -0.6661571638585612 
2.49000000000083, -0.6646150757870006 
2.5000000000008513, -0.662839430885949 
2.5100000000008724, -0.6609178091022998 
2.5200000000008935, -0.658955842548355 
2.5300000000009146, -0.6570495384668045 
2.5400000000009357, -0.655267955715001 
2.550000000000957, -0.6536510121433399 
2.560000000000978, -0.6522169677970718 
2.570000000000999, -0.6509720308410232 
2.58000000000102, -0.6499176295061991 
2.5900000000010412, -0.6490542896967162 
2.6000000000010624, -0.6483828359456724 
2.6100000000010835, -0.6479040772684113 
2.6200000000011046, -0.6476179869284173 
2.6300000000011257, -0.647523078751705 
2.6400000000011468, -0.6476163607230959 
2.650000000001168, -0.6478939283993423 
2.660000000001189, -0.6483519572505136 
2.67000000000121, -0.6489875728508628 
2.680000000001231, -0.6497988080090266 
2.6900000000012523, -0.6507826169093569 
2.7000000000012734, -0.6519299250311045 
2.7100000000012945, -0.6532175125225091 
2.7200000000013156, -0.6545988316670266 
2.7300000000013367, -0.6559993177958385 
2.740000000001358, -0.6573233857029017 
2.750000000001379, -0.6584753570726112 
2.7600000000014, -0.65938541111346 
2.770000000001421, -0.6600250441605268 
2.780000000001442, -0.6604039622315556 
2.7900000000014633, -0.6605542348660273 
2.8000000000014844, -0.6605131868474501 
2.8100000000015055, -0.6603120035654695 
2.8200000000015266, -0.6599707086961789 
2.8300000000015477, -0.6594973291457115 
2.840000000001569, -0.6588892426396394 
2.85000000000159, -0.6581359025616483 
2.860000000001611, -0.6572231516910836 
2.870000000001632, -0.6561395416781401 
2.8800000000016532, -0.6548835850995467 
2.8900000000016743, -0.6534666135295422 
2.9000000000016954, -0.651900807085105 
2.9100000000017165, -0.6501685136779807 
2.9200000000017377, -0.6482066700501049 
2.9300000000017588, -0.6459782511470573 
2.94000000000178, -0.6436174294922177 
2.950000000001801, -0.6414566127072627 
2.960000000001822, -0.6398301852935266 
2.970000000001843, -0.6388664289390015 
2.9800000000018643, -0.6384733485623613 
2.9900000000018854, -0.6384576145355124 
3.0000000000019065, -0.6386331436412551 
3.0100000000019276, -0.6388667835286594 
3.0200000000019487, -0.6390792125973789 
3.03000000000197, -0.6392291954771506 
3.040000000001991, -0.6392969509552726 
3.050000000002012, -0.6392717134342516 
3.060000000002033, -0.6391437211284106 
3.070000000002054, -0.6388997085272926 
3.0800000000020753, -0.6385214285477361 
3.0900000000020964, -0.6379875909765654 
3.1000000000021175, -0.6372799351447443 
3.1100000000021386, -0.6363928610200024 
3.1200000000021597, -0.6353428156478846 
3.130000000002181, -0.6341709684191754 
3.140000000002202, -0.6329350981068773 
3.150000000002223, -0.631694182133788 
3.160000000002244, -0.6304946556203693 
3.1700000000022652, -0.6293649479760476 
3.1800000000022863, -0.6283182421891628 
3.1900000000023074, -0.6273591969640084 
3.2000000000023285, -0.6264905119171995 
3.2100000000023496, -0.6257174028691759 
3.2200000000023707, -0.6250499164938382 
3.230000000002392, -0.6245037666955062 
3.240000000002413, -0.6241003412748264 
3.250000000002434, -0.6238662639576324 
3.260000000002455, -0.6238327213343314 
3.2700000000024763, -0.6240347083003772 
3.2800000000024974, -0.6245102858023275 
3.2900000000025185, -0.6252997234638388 
3.3000000000025396, -0.6264438947681394 
3.3100000000025607, -0.6279804785892239 
3.3200000000025818, -0.6299356210816927 
3.330000000002603, -0.63230855895559 
3.340000000002624, -0.6350491754708903 
3.350000000002645, -0.638035801383224 
3.360000000002666, -0.641071129063944 
3.3700000000026873, -0.6439158293388172 
3.3800000000027084, -0.6463567596162 
3.3900000000027295, -0.6482712587398589 
3.4000000000027506, -0.6496451631205302 
3.4100000000027717, -0.6505419253491604 
3.420000000002793, -0.6510550512953089 
3.430000000002814, -0.6512724706717161 
3.440000000002835, -0.6512597417704574 
3.450000000002856, -0.6510557465537213 
3.460000000002877, -0.6506729696665561 
3.4700000000028983, -0.6500972342486951 
3.4800000000029194, -0.6492841626050906 
3.4900000000029405, -0.64815079521758 
3.5000000000029616, -0.6465617265576499 
3.5100000000029827, -0.6443121114740856 
3.520000000003004, -0.6411193680022479 
3.530000000003025, -0.6366555921871317 
3.540000000003046, -0.6306710346302673 
3.550000000003067, -0.6232178307852165 
3.5600000000030882, -0.6148324400951185 
3.5700000000031094, -0.6064358897299293 
3.5800000000031305, -0.5989415914502189 
3.5900000000031516, -0.5928961207432064 
3.6000000000031727, -0.5884064913594178 
3.6100000000031938, -0.5852858508537255 
3.620000000003215, -0.5832328061653312 
3.630000000003236, -0.5819481792819591 
3.640000000003257, -0.5811852097924224 
3.650000000003278, -0.5807594967327485 
3.6600000000032993, -0.5805413014505458 
3.6700000000033204, -0.5804428345953391 
3.6800000000033415, -0.580406083488267 
3.6900000000033626, -0.5803931010267263 
3.7000000000033837, -0.5803791392439139 
3.710000000003405, -0.5803484757653672 
3.720000000003426, -0.5802925649004113 
3.730000000003447, -0.5802098158636635 
3.740000000003468, -0.5801057176049393 
3.750000000003489, -0.5799915724914283 
3.7600000000035103, -0.5798805909785226 
3.7700000000035314, -0.579781899628746 
3.7800000000035525, -0.5796950926133784 
3.7900000000035736, -0.5796085044216 
3.8000000000035947, -0.579502587922841 
3.810000000003616, -0.5793567139722652 
3.820000000003637, -0.5791556782870698 
3.830000000003658, -0.5788929221943472 
3.840000000003679, -0.5785701824044264 
3.8500000000037002, -0.5781954938953517 
3.8600000000037213, -0.5777818192107962 
3.8700000000037424, -0.5773477744583164 
3.8800000000037635, -0.5769211881233276 
3.8900000000037847, -0.5765460286963876 
3.9000000000038058, -0.5762933119107749 
3.910000000003827, -0.5762763163848975 
3.920000000003848, -0.5766687418912513 
3.930000000003869, -0.5777194916801662 
3.94000000000389, -0.5797471472418259 
3.9500000000039113, -0.5830817534708459 
3.9600000000039324, -0.5879178466829603 
3.9700000000039535, -0.5940968695300788 
3.9800000000039746, -0.6009765998271728 
3.9900000000039957, -0.6076159469796594 
4.000000000004016, -0.6132332255248307 
4.010000000003993, -0.6175255707859788 
4.02000000000397, -0.6206020670531192 
4.030000000003946, -0.622735165674666 
4.040000000003923, -0.6241874462556283 
4.0500000000039, -0.6251568468378053 
4.0600000000038765, -0.6257798567190427 
4.070000000003853, -0.62614726730819 
4.08000000000383, -0.6263171648993578 
4.090000000003807, -0.6263231879699718 
4.100000000003783, -0.6261791467725939 
4.11000000000376, -0.6258812772521667 
4.120000000003737, -0.625409464431346 
4.130000000003713, -0.624729403075836 
4.14000000000369, -0.623798699627292 
4.150000000003667, -0.6225800973923834 
4.1600000000036434, -0.6210617705891179 
4.17000000000362, -0.6192768396692718 
4.180000000003597, -0.617307886369309 
4.1900000000035735, -0.6152683630906705 
4.20000000000355, -0.6132704010187593 
4.210000000003527, -0.6113987320770795 
4.220000000003504, -0.6097022644119328 
4.23000000000348, -0.6082004053035275 
4.240000000003457, -0.6068949314926643 
4.250000000003434, -0.6057804743773966 
4.26000000000341, -0.604851133753028 
4.270000000003387, -0.6041035612530349 
4.280000000003364, -0.6035377666772271 
4.2900000000033405, -0.6031568070893762 
4.300000000003317, -0.6029661583709557 
4.310000000003294, -0.6029732472425374 
4.320000000003271, -0.6031873714185383 
4.330000000003247, -0.6036199968586985 
4.340000000003224, -0.60428512773972 
4.350000000003201, -0.6051990419590101 
4.360000000003177, -0.6063781585832925 
4.370000000003154, -0.6078333104001252 
4.380000000003131, -0.6095588316493414 
4.390000000003107, -0.6115168832702752 
4.400000000003084, -0.6136225396575146 
4.410000000003061, -0.6157416744679691 
4.4200000000030375, -0.6177136503593854 
4.430000000003014, -0.6193956043705138 
4.440000000002991, -0.6207036142908535 
4.450000000002968, -0.6216246362418937 
4.460000000002944, -0.622197438648582 
4.470000000002921, -0.6224819964677591 
4.480000000002898, -0.6225353422071088 
4.490000000002874, -0.6223989755203944 
4.500000000002851, -0.6220943559843182 
4.510000000002828, -0.6216214181274059 
4.520000000002804, -0.6209564198332305 
4.530000000002781, -0.6200467787956664 
4.540000000002758, -0.6188011988907529 
4.5500000000027345, -0.6170741599388264 
4.560000000002711, -0.6146473055845114 
4.570000000002688, -0.611221954859585 
4.580000000002665, -0.6064618646447105 
4.590000000002641, -0.6001439441965434 
4.600000000002618, -0.5924096804259833 
4.610000000002595, -0.5839226044745388 
4.620000000002571, -0.5756772611554001 
4.630000000002548, -0.5685447554553089 
4.640000000002525, -0.5629536491329674 
4.6500000000025015, -0.5588990758795682 
4.660000000002478, -0.5561314973609912 
4.670000000002455, -0.5543334029667161 
4.6800000000024315, -0.5532165472411349 
4.690000000002408, -0.5525551389900166 
4.700000000002385, -0.5521860337934049 
4.710000000002362, -0.5519969969273617 
4.720000000002338, -0.5519131871827627 
4.730000000002315, -0.5518856542020438 
4.740000000002292, -0.5518827906031845 
4.750000000002268, -0.5518846510342871 
4.760000000002245, -0.5518797567409199 
4.770000000002222, -0.5518638348251911 
4.7800000000021985, -0.551839579161414 
4.790000000002175, -0.5518160062158598 
4.800000000002152, -0.5518058447162664 
4.810000000002129, -0.5518203362565212 
4.820000000002105, -0.5518627816984433 
4.830000000002082, -0.5519239038946633 
4.840000000002059, -0.5519820639754436 
4.850000000002035, -0.5520090270010318 
4.860000000002012, -0.5519785405230602 
4.870000000001989, -0.5518731603955819 
4.880000000001965, -0.5516863485713708 
4.890000000001942, -0.5514203493335555 
4.900000000001919, -0.5510825344525166 
4.9100000000018955, -0.5506827041951771 
4.920000000001872, -0.5502325818983327 
