t, s[1].omega / s[0].omega 
0, -0.7399976761112191 
0.009999999999999995, -0.7397443270617952 
0.019999999999999934, -0.7394478223661831 
0.029999999999999874, -0.7391046471275644 
0.04000000000000012, -0.7387127592047273 
0.050000000000000405, -0.7382747496205615 
0.06000000000000069, -0.737799534319304 
0.07000000000000098, -0.7373028550694056 
0.08000000000000126, -0.7368076683786677 
0.09000000000000155, -0.736345173867831 
0.10000000000000184, -0.7359563790770836 
0.11000000000000212, -0.7356933552797814 
0.12000000000000241, -0.7356190161442694 
0.130000000000002, -0.7358044507539754 
0.1400000000000009, -0.7363234967674351 
0.1499999999999998, -0.7372449867056435 
0.1599999999999987, -0.7386233637869715 
0.1699999999999976, -0.7404878324595919 
0.1799999999999965, -0.7428294392671397 
0.1899999999999954, -0.7455860935968296 
0.1999999999999943, -0.7486294558634274 
0.2099999999999932, -0.7517644789843778 
0.2199999999999921, -0.7547555507521285 
0.229999999999991, -0.7573814153044612 
0.2399999999999899, -0.7594953712463347 
0.2499999999999888, -0.7610543661564705 
0.2599999999999877, -0.7621025476297201 
0.2699999999999866, -0.7627289118092251 
0.2799999999999855, -0.7630279804606225 
0.2899999999999844, -0.763077357161397 
0.2999999999999833, -0.7629303069187627 
0.3099999999999822, -0.7626163219078634 
0.3199999999999811, -0.7621443238397152 
0.32999999999998, -0.7615062601831327 
0.3399999999999789, -0.7606812771938789 
0.3499999999999778, -0.7596423679243371 
0.35999999999997667, -0.7583684878725673 
0.36999999999997557, -0.7568645944081192 
0.37999999999997447, -0.7551874064648019 
0.38999999999997337, -0.7534643601605697 
0.39999999999997227, -0.7518844419026237 
0.40999999999997117, -0.7506514920185079 
0.41999999999997006, -0.7499247774265664 
0.42999999999996896, -0.7497794771648211 
0.43999999999996786, -0.7501852494801177 
0.44999999999996676, -0.7510030853055853 
0.45999999999996566, -0.752026910313701 
0.46999999999996456, -0.7530579423335184 
0.47999999999996346, -0.7539593904912774 
0.48999999999996235, -0.7546663234001645 
0.49999999999996125, -0.7551660308647852 
0.5099999999999602, -0.755472300983573 
0.519999999999959, -0.7556057230790698 
0.529999999999958, -0.7555817222312539 
0.5399999999999568, -0.7554038172087087 
0.5499999999999557, -0.7550593022437512 
0.5599999999999546, -0.7545157606835213 
0.5699999999999535, -0.7537186601906732 
0.5799999999999524, -0.7525927812156308 
0.5899999999999513, -0.7510529071877668 
0.5999999999999502, -0.7490292127589193 
0.6099999999999491, -0.7465050503790891 
0.619999999999948, -0.743549424899181 
0.6299999999999469, -0.7403185248849196 
0.6399999999999458, -0.7370180613460362 
0.6499999999999447, -0.7338485500733543 
0.6599999999999436, -0.7309647829825089 
0.6699999999999425, -0.7284623078269226 
0.6799999999999414, -0.7263834872947562 
0.6899999999999403, -0.7247304368239627 
0.6999999999999392, -0.7234771479440445 
0.7099999999999381, -0.7225789054728953 
0.719999999999937, -0.7219798195939491 
0.7299999999999359, -0.7216194203019823 
0.7399999999999348, -0.7214384165294061 
0.7499999999999337, -0.7213831028072205 
0.7599999999999326, -0.7214079375379568 
0.7699999999999315, -0.7214763295471289 
0.7799999999999304, -0.721560207793069 
0.7899999999999293, -0.7216391567315655 
0.7999999999999282, -0.7216996447500537 
0.8099999999999271, -0.7217342563832837 
0.819999999999926, -0.7217402535460696 
0.8299999999999249, -0.721716870052494 
0.8399999999999238, -0.7216618055670004 
0.8499999999999227, -0.7215686953024829 
0.8599999999999216, -0.7214274241497522 
0.8699999999999205, -0.7212274540666201 
0.8799999999999194, -0.7209622033714035 
0.8899999999999183, -0.7206320215298415 
0.8999999999999172, -0.7202448530389405 
0.9099999999999161, -0.7198156150069835 
0.919999999999915, -0.7193659986735302 
0.9299999999999139, -0.718925816476111 
0.9399999999999128, -0.7185360222563022 
0.9499999999999117, -0.7182526936612735 
0.9599999999999106, -0.7181506441812588 
0.9699999999999095, -0.7183249010406562 
0.9799999999999084, -0.7188881472761133 
0.9899999999999073, -0.7199624489054213 
0.9999999999999062, -0.721663959842985 
1.0099999999999052, -0.7240795283317806 
1.019999999999904, -0.7272347909941085 
1.029999999999903, -0.7310569188813767 
1.039999999999902, -0.7353449279582678 
1.0499999999999008, -0.7397737035173416 
1.0599999999998997, -0.7439570467782594 
1.0699999999998986, -0.747559146408484 
1.0799999999998975, -0.750392910231179 
1.0899999999998964, -0.7524426443616831 
1.0999999999998953, -0.7538116796157122 
1.1099999999998942, -0.7546473535164017 
1.119999999999893, -0.7550873147514603 
1.129999999999892, -0.7552362977063909 
1.1399999999998909, -0.7551625531427031 
1.1499999999998898, -0.7549017481529428 
1.1599999999998887, -0.7544612322651256 
1.1699999999998876, -0.7538218033362118 
1.1799999999998865, -0.7529363086304783 
1.1899999999998854, -0.7517255760367285 
1.1999999999998843, -0.7500735226660465 
1.2099999999998832, -0.7478261047855759 
1.219999999999882, -0.7448044321189461 
1.229999999999881, -0.7408506142786343 
1.2399999999998799, -0.7359260450999834 
1.2499999999998788, -0.7302465347502085 
1.2599999999998777, -0.7243512608805193 
1.2699999999998766, -0.7189658807326619 
1.2799999999998755, -0.7146896368517084 
1.2899999999998744, -0.7117543313272792 
1.2999999999998733, -0.7100297658526054 
1.3099999999998722, -0.709196223433972 
1.319999999999871, -0.7089158421334188 
1.32999999999987, -0.7089225459037439 
1.3399999999998689, -0.7090403386581855 
1.3499999999998678, -0.7091663804370997 
1.3599999999998666, -0.7092456873995355 
1.3699999999998655, -0.7092494677172271 
1.3799999999998644, -0.7091598976150493 
1.3899999999998633, -0.708960487729325 
1.3999999999998622, -0.7086306819805143 
1.4099999999998611, -0.7081441776114389 
1.41999999999986, -0.7074715573698843 
1.429999999999859, -0.7065880765352061 
1.4399999999998578, -0.7054855476270327 
1.4499999999998567, -0.7041832388531778 
1.4599999999998556, -0.70273016378645 
1.4699999999998545, -0.7011950546241724 
1.4799999999998534, -0.6996491476038086 
1.4899999999998523, -0.6981517293283745 
1.4999999999998512, -0.6967445419792796 
1.5099999999998501, -0.6954540696613443 
1.519999999999849, -0.6942971534854968 
1.529999999999848, -0.6932860808189023 
1.5399999999998468, -0.692431498358981 
1.5499999999998457, -0.6917431533138123 
1.5599999999998446, -0.6912291858000843 
1.5699999999998435, -0.690894841775068 
1.5799999999998424, -0.6907413748029511 
1.5899999999998413, -0.6907656677202639 
1.5999999999998402, -0.6909607617151707 
1.6099999999998391, -0.6913170983394503 
1.619999999999838, -0.6918239570882491 
1.629999999999837, -0.6924703622889792 
1.6399999999998358, -0.6932446401382037 
1.6499999999998347, -0.6941318981911299 
1.6599999999998336, -0.6951092636077865 
1.6699999999998325, -0.6961401528921762 
1.6799999999998314, -0.6971709821735849 
1.6899999999998303, -0.6981348574045219 
1.6999999999998292, -0.6989641426803804 
1.709999999999828, -0.6996072363417751 
1.719999999999827, -0.7000400807834336 
1.729999999999826, -0.7002661173961267 
1.7399999999998248, -0.7003068573380458 
1.7499999999998237, -0.7001902099218257 
1.7599999999998226, -0.6999421328154244 
1.7699999999998215, -0.699583229037615 
1.7799999999998204, -0.6991296497179673 
1.7899999999998193, -0.6985975985228607 
1.7999999999998182, -0.6980117080874823 
1.809999999999817, -0.6974184635867469 
1.819999999999816, -0.6969056834549751 
1.8299999999998149, -0.6966262619382366 
1.8399999999998138, -0.6968165968158138 
1.8499999999998127, -0.697786437035022 
1.8599999999998116, -0.6998453540031135 
1.8699999999998105, -0.7031492784597949 
1.8799999999998094, -0.7075303401765899 
1.8899999999998083, -0.7124670851191977 
1.8999999999998072, -0.7172911845940585 
1.909999999999806, -0.7214842227644007 
1.919999999999805, -0.7248204959030626 
1.9299999999998039, -0.7273120483490042 
1.9399999999998028, -0.72908660004471 
1.9499999999998017, -0.7302979342244795 
1.9599999999998006, -0.7310833002027916 
1.9699999999997995, -0.7315496836113884 
1.9799999999997984, -0.7317728397333366 
1.9899999999997973, -0.7318004041152413 
1.9999999999997962, -0.7316550336382912 
2.0099999999998173, -0.7313358270950603 
2.0199999999998384, -0.7308174962461504 
2.0299999999998595, -0.7300478638786839 
2.0399999999998806, -0.7289461292164385 
2.0499999999999017, -0.7274075221910327 
2.059999999999923, -0.725323165352057 
2.069999999999944, -0.722621533289646 
2.079999999999965, -0.7193221955756532 
2.089999999999986, -0.7155691615272656 
2.100000000000007, -0.7116097977880596 
2.1100000000000283, -0.7077239505512322 
2.1200000000000494, -0.7041482882465162 
2.1300000000000705, -0.7010357591331895 
2.1400000000000916, -0.6984544332777426 
2.1500000000001127, -0.6964071990383024 
2.160000000000134, -0.6948547234417922 
2.170000000000155, -0.693733892249535 
2.180000000000176, -0.6929708958485411 
2.190000000000197, -0.692490367763335 
2.2000000000002182, -0.692221732898635 
2.2100000000002393, -0.6921032250828371 
2.2200000000002604, -0.6920837625798211 
2.2300000000002815, -0.6921230434332528 
2.2400000000003026, -0.6921905183580905 
2.2500000000003237, -0.6922640233755494 
2.260000000000345, -0.6923286627161219 
2.270000000000366, -0.692376017328708 
2.280000000000387, -0.692403102376068 
2.290000000000408, -0.6924101999057141 
2.3000000000004293, -0.6923973190140091 
2.3100000000004504, -0.6923604740778602 
2.3200000000004715, -0.6922900044859153 
2.3300000000004926, -0.6921724368793453 
2.3400000000005137, -0.6919950939317178 
2.3500000000005348, -0.6917507587893541 
2.360000000000556, -0.6914400386735181 
2.370000000000577, -0.6910711981179956 
2.380000000000598, -0.6906590529846983 
2.390000000000619, -0.6902247870539773 
2.4000000000006403, -0.6897977624797769 
2.4100000000006614, -0.6894194974977168 
2.4200000000006825, -0.6891493309386817 
2.4300000000007036, -0.6890707153426805 
2.4400000000007247, -0.689296360153574 
2.450000000000746, -0.6899695354446235 
2.460000000000767, -0.6912578060640221 
2.470000000000788, -0.6933343936821881 
2.480000000000809, -0.6963418256987473 
2.49000000000083, -0.7003349825255574 
2.5000000000008513, -0.7052117381414252 
2.5100000000008724, -0.7106634100279008 
2.5200000000008935, -0.7161999437911735 
2.5300000000009146, -0.7212822111134786 
2.5400000000009357, -0.7255055012531716 
2.550000000000957, -0.728711072085891 
2.560000000000978, -0.7309618981327964 
2.570000000000999, -0.7324371500235634 
2.58000000000102, -0.7333340581618771 
2.5900000000010412, -0.7338160311619617 
2.6000000000010624, -0.7339986890743179 
2.6100000000010835, -0.7339535413851336 
2.6200000000011046, -0.7337154479645698 
2.6300000000011257, -0.7332876467593781 
2.6400000000011468, -0.7326422475527334 
2.650000000001168, -0.7317156477476263 
2.660000000001189, -0.7303992423040724 
2.67000000000121, -0.7285281385723603 
2.680000000001231, -0.7258770201602504 
2.6900000000012523, -0.7221846374461698 
2.7000000000012734, -0.7172389986052077 
2.7100000000012945, -0.7110334248076298 
2.7200000000013156, -0.7039174209369028 
2.7300000000013367, -0.6965838541726416 
2.740000000001358, -0.6898257182179831 
2.750000000001379, -0.684227237980615 
2.7600000000014, -0.680013614672747 
2.770000000001421, -0.6771021060125579 
2.780000000001442, -0.6752435388230718 
2.7900000000014633, -0.6741481429085667 
2.8000000000014844, -0.6735582396785038 
2.8100000000015055, -0.6732751040904745 
2.8200000000015266, -0.6731589367537013 
2.8300000000015477, -0.6731173147787497 
2.840000000001569, -0.6730911553532589 
2.85000000000159, -0.6730424031409252 
2.860000000001611, -0.6729448945832716 
2.870000000001632, -0.6727786526707468 
2.8800000000016532, -0.6725275392553531 
2.8900000000016743, -0.6721800323935954 
2.9000000000016954, -0.6717322633187127 
2.9100000000017165, -0.6711912101909604 
2.9200000000017377, -0.6705751115199498 
2.9300000000017588, -0.6699093696592067 
2.94000000000178, -0.6692194341974662 
2.950000000001801, -0.668524616844625 
2.960000000001822, -0.6678360122939617 
2.970000000001843, -0.6671586642073313 
2.9800000000018643, -0.6664957712814212 
2.9900000000018854, -0.6658525866282361 
3.0000000000019065, -0.6652389684540634 
3.0100000000019276, -0.6646707831321024 
3.0200000000019487, -0.6641707640102759 
3.03000000000197, -0.663769168543796 
3.040000000001991, -0.6635041685880865 
3.050000000002012, -0.663421686811698 
3.060000000002033, -0.6635744121772214 
3.070000000002054, -0.6640198629518723 
3.0800000000020753, -0.664817392514381 
3.0900000000020964, -0.6660237173416034 
3.1000000000021175, -0.667685804147385 
3.1100000000021386, -0.6698291208080714 
3.1200000000021597, -0.6724394759539619 
3.130000000002181, -0.675440077746611 
3.140000000002202, -0.6786737252302089 
3.150000000002223, -0.6819093933042929 
3.160000000002244, -0.6848889188631408 
3.1700000000022652, -0.6874015052185419 
3.1800000000022863, -0.689342142861168 
3.1900000000023074, -0.6907174562617894 
3.2000000000023285, -0.6916063435561784 
3.2100000000023496, -0.6921108356203617 
3.2200000000023707, -0.6923226578312027 
3.230000000002392, -0.6923090151740685 
3.240000000002413, -0.6921100777314193 
3.250000000002434, -0.6917404629155959 
3.260000000002455, -0.691190161214773 
3.2700000000024763, -0.6904227940465357 
3.2800000000024974, -0.6893703204101971 
3.2900000000025185, -0.6879241773761644 
3.3000000000025396, -0.6859248741267611 
3.3100000000025607, -0.6831579080554636 
3.3200000000025818, -0.67937651828252 
3.330000000002603, -0.6743858989359458 
3.340000000002624, -0.6682055363301277 
3.350000000002645, -0.6612297414051473 
3.360000000002666, -0.6542015854962099 
3.3700000000026873, -0.6479249697666931 
3.3800000000027084, -0.642927179754326 
3.3900000000027295, -0.639334591093576 
3.4000000000027506, -0.6369749800313954 
3.4100000000027717, -0.6355499663398843 
3.420000000002793, -0.6347613515209336 
3.430000000002814, -0.6343686764516654 
3.440000000002835, -0.6342001267866966 
3.450000000002856, -0.6341420767504318 
3.460000000002877, -0.634122905384334 
3.4700000000028983, -0.6340981553545719 
3.4800000000029194, -0.634039274477202 
3.4900000000029405, -0.6339261343965709 
3.5000000000029616, -0.6337429842090743 
3.5100000000029827, -0.6334775237963166 
3.520000000003004, -0.6331226546330221 
3.530000000003025, -0.632679703994173 
3.540000000003046, -0.6321607399294515 
3.550000000003067, -0.6315873089756273 
3.5600000000030882, -0.6309848637223616 
3.5700000000031094, -0.6303753971004945 
3.5800000000031305, -0.6297723559714812 
3.5900000000031516, -0.6291802164215483 
3.6000000000031727, -0.6285979643748495 
3.6100000000031938, -0.6280238757500669 
3.620000000003215, -0.6274593559172621 
3.630000000003236, -0.6269111574513744 
3.640000000003257, -0.6263925702259069 
3.650000000003278, -0.6259245075641566 
3.6600000000032993, -0.6255370636259691 
3.6700000000033204, -0.6252716156450537 
3.6800000000033415, -0.6251831734050658 
3.6900000000033626, -0.6253424514481056 
3.7000000000033837, -0.6258369376142201 
3.710000000003405, -0.6267698578730406 
3.720000000003426, -0.6282551264203928 
3.730000000003447, -0.6304049439039867 
3.740000000003468, -0.6333051711435924 
3.750000000003489, -0.6369744078418776 
3.7600000000035103, -0.6413112202577521 
3.7700000000035314, -0.64605452098627 
3.7800000000035525, -0.6508028549778105 
3.7900000000035736, -0.6551209538569355 
3.8000000000035947, -0.6586878961829025 
3.810000000003616, -0.6613851353711575 
3.820000000003637, -0.6632733599697225 
3.830000000003658, -0.6645048912045752 
3.840000000003679, -0.6652439906180594 
3.8500000000037002, -0.6656253669740825 
3.8600000000037213, -0.6657431804646834 
3.8700000000037424, -0.6656538861335104 
3.8800000000037635, -0.6653817075706069 
3.8900000000037847, -0.6649216932725606 
3.9000000000038058, -0.6642386144198209 
3.910000000003827, -0.663261440655555 
3.920000000003848, -0.6618747237277305 
3.930000000003869, -0.65991218995448 
3.94000000000389, -0.6571661559157513 
3.9500000000039113, -0.6534359663435609 
3.9600000000039324, -0.6486315564839256 
3.9700000000039535, -0.6428979477746621 
3.9800000000039746, -0.6366575518457199 
3.9900000000039957, -0.6304906808776076 
4.000000000004016, -0.6249216789124733 
4.010000000003993, -0.6202667262660022 
4.02000000000397, -0.6166149382580028 
4.030000000003946, -0.6138958719057797 
4.040000000003923, -0.6119609975234266 
4.0500000000039, -0.6106423830926593 
4.0600000000038765, -0.6097845017256232 
4.070000000003853, -0.6092572212982044 
4.08000000000383, -0.60895830092207 
4.090000000003807, -0.6088108911778105 
4.100000000003783, -0.6087591236737855 
4.11000000000376, -0.6087634355640776 
4.120000000003737, -0.6087965121993181 
4.130000000003713, -0.6088403054471814 
4.14000000000369, -0.6088842445380658 
4.150000000003667, -0.6089243241649511 
4.1600000000036434, -0.6089622159746064 
4.17000000000362, -0.6090032241949379 
4.180000000003597, -0.6090523721925394 
4.1900000000035735, -0.6091093679903388 
4.20000000000355, -0.6091648144189159 
4.210000000003527, -0.6092002862542494 
4.220000000003504, -0.6091929905248497 
4.23000000000348, -0.6091227366470776 
4.240000000003457, -0.6089774005047144 
4.250000000003434, -0.6087544941289575 
4.26000000000341, -0.6084594086699177 
4.270000000003387, -0.608102699851085 
4.280000000003364, -0.6076986010566265 
4.2900000000033405, -0.6072659280840023 
4.300000000003317, -0.606831856263461 
4.310000000003294, -0.6064389357474499 
4.320000000003271, -0.606155755620789 
4.330000000003247, -0.6060911975405241 
4.340000000003224, -0.6064102409159627 
4.350000000003201, -0.6073443011614945 
4.360000000003177, -0.6091797879947245 
4.370000000003154, -0.6121977571835397 
4.380000000003131, -0.6165416724367555 
4.390000000003107, -0.622043347039775 
4.400000000003084, -0.628141464888157 
4.410000000003061, -0.6340501000610167 
4.4200000000030375, -0.6391151735196956 
4.430000000003014, -0.6430558095293823 
4.440000000002991, -0.6459247680591069 
4.450000000002968, -0.647928440317284 
4.460000000002944, -0.6492874064745581 
4.470000000002921, -0.6501802659896996 
4.480000000002898, -0.65073607311307 
4.490000000002874, -0.6510425072657022 
4.500000000002851, -0.6511554136345004 
4.510000000002828, -0.6511058021842604 
4.520000000002804, -0.650903949254224 
4.530000000002781, -0.6505411901007988 
4.540000000002758, -0.6499905124178785 
4.5500000000027345, -0.6492080091774682 
4.560000000002711, -0.6481387014937005 
4.570000000002688, -0.6467309748420844 
4.580000000002665, -0.6449607748581295 
4.590000000002641, -0.6428574696081651 
4.600000000002618, -0.6405138359914135 
4.610000000002595, -0.6380673638755595 
4.620000000002571, -0.6356613702619027 
4.630000000002548, -0.6334100336895164 
4.640000000002525, -0.6313839926119351 
4.6500000000025015, -0.6296150183933468 
4.660000000002478, -0.6281089460556165 
4.670000000002455, -0.6268579603672109 
4.6800000000024315, -0.6258487236024906 
4.690000000002408, -0.6250664861565456 
4.700000000002385, -0.6244966069753237 
4.710000000002362, -0.6241248787254643 
4.720000000002338, -0.623937597725045 
4.730000000002315, -0.623921851170492 
4.740000000002292, -0.6240661334571231 
4.750000000002268, -0.6243611564335837 
4.760000000002245, -0.6248005461326198 
4.770000000002222, -0.625380952382885 
4.7800000000021985, -0.626100887665323 
4.790000000002175, -0.626957446022218 
4.800000000002152, -0.6279403006346768 
4.810000000002129, -0.6290236437224328 
4.820000000002105, -0.6301592696714393 
4.830000000002082, -0.6312764904740685 
4.840000000002059, -0.6322935334895528 
4.850000000002035, -0.6331380247889621 
4.860000000002012, -0.6337657055663828 
4.870000000001989, -0.6341664383794411 
4.880000000001965, -0.6343562882475977 
4.890000000001942, -0.6343633963893404 
4.900000000001919, -0.634215732571456 
4.9100000000018955, -0.6339339350088091 
4.920000000001872, -0.6335284967743148 
