t, s[1].omega / s[0].omega 
0, -0.5399977454723743 
0.009999999999999995, -0.5397818608543664 
0.019999999999999934, -0.5395793275627426 
0.029999999999999874, -0.5393757926500411 
0.04000000000000012, -0.5391538335084733 
0.050000000000000405, -0.5388988649137442 
0.06000000000000069, -0.5386026312162674 
0.07000000000000098, -0.538263703374345 
0.08000000000000126, -0.537886261144506 
0.09000000000000155, -0.5374789442024123 
0.10000000000000184, -0.5370550520027276 
0.11000000000000212, -0.5366347645317183 
0.12000000000000241, -0.53624979306134 
0.130000000000002, -0.5359508225739585 
0.1400000000000009, -0.5358177845416259 
0.1499999999999998, -0.5359715234593765 
0.1599999999999987, -0.5365813157912388 
0.1699999999999976, -0.5378543757753464 
0.1799999999999965, -0.5399831023140669 
0.1899999999999954, -0.5430299300697451 
0.1999999999999943, -0.5467844461610941 
0.2099999999999932, -0.5507316677478048 
0.2199999999999921, -0.5542664673352198 
0.229999999999991, -0.5570229996045435 
0.2399999999999899, -0.5589917758858792 
0.2499999999999888, -0.5603633357158814 
0.2599999999999877, -0.5613369419883023 
0.2699999999999866, -0.5620449373285485 
0.2799999999999855, -0.5625607486547965 
0.2899999999999844, -0.5629249014715131 
0.2999999999999833, -0.5631622265891686 
0.3099999999999822, -0.5632892157665073 
0.3199999999999811, -0.5633161502668599 
0.32999999999998, -0.5632472895257556 
0.3399999999999789, -0.563080720206985 
0.3499999999999778, -0.5628087454238061 
0.35999999999997667, -0.5624196522173373 
0.36999999999997557, -0.5619017386319053 
0.37999999999997447, -0.5612498453842011 
0.38999999999997337, -0.5604727370127026 
0.39999999999997227, -0.5595972955160192 
0.40999999999997117, -0.5586653981431512 
0.41999999999997006, -0.5577235136572052 
0.42999999999996896, -0.5568104802237333 
0.43999999999996786, -0.555950036224387 
0.44999999999996676, -0.5551506474637146 
0.45999999999996566, -0.5544105348826267 
0.46999999999996456, -0.5537241344329702 
0.47999999999996346, -0.5530872990222552 
0.48999999999996235, -0.5525004728603253 
0.49999999999996125, -0.5519704140569972 
0.5099999999999602, -0.5515114444753271 
0.519999999999959, -0.5511469962192302 
0.529999999999958, -0.5509118558721307 
0.5399999999999568, -0.5508552139094699 
0.5499999999999557, -0.5510443938555674 
0.5599999999999546, -0.5515687915076206 
0.5699999999999535, -0.5525427996133351 
0.5799999999999524, -0.5541048896884122 
0.5899999999999513, -0.5564071597639305 
0.5999999999999502, -0.5595860577080181 
0.6099999999999491, -0.5637045794372747 
0.619999999999948, -0.5686692554217413 
0.6299999999999469, -0.5741617958803762 
0.6399999999999458, -0.5796639659306424 
0.6499999999999447, -0.5846204083856842 
0.6599999999999436, -0.5886516873235073 
0.6699999999999425, -0.5916546980160637 
0.6799999999999414, -0.593741458252279 
0.6899999999999403, -0.595112506771529 
0.6999999999999392, -0.5959631050551167 
0.7099999999999381, -0.5964446597139184 
0.719999999999937, -0.5966604939030413 
0.7299999999999359, -0.596673797156411 
0.7399999999999348, -0.596516328343538 
0.7499999999999337, -0.5961941122990531 
0.7599999999999326, -0.5956898071712138 
0.7699999999999315, -0.594962970204171 
0.7799999999999304, -0.5939510112126551 
0.7899999999999293, -0.5925759660408084 
0.7999999999999282, -0.5907639736509874 
0.8099999999999271, -0.5884805277387836 
0.819999999999926, -0.5857700638266191 
0.8299999999999249, -0.5827714304926125 
0.8399999999999238, -0.5796870170835339 
0.8499999999999227, -0.5767198303417009 
0.8599999999999216, -0.5740197907410853 
0.8699999999999205, -0.5716657302361116 
0.8799999999999194, -0.5696775775468298 
0.8899999999999183, -0.568039337259231 
0.8999999999999172, -0.5667189871562921 
0.9099999999999161, -0.565680969831093 
0.919999999999915, -0.5648923568813511 
0.9299999999999139, -0.5643251380506603 
0.9399999999999128, -0.5639566579696331 
0.9499999999999117, -0.5637694338622345 
0.9599999999999106, -0.5637509613691247 
0.9699999999999095, -0.5638937195878436 
0.9799999999999084, -0.564195341231292 
0.9899999999999073, -0.5646587115761332 
0.9999999999999062, -0.5652914998982789 
1.0099999999999052, -0.5661042621102613 
1.019999999999904, -0.567105903323307 
1.029999999999903, -0.5682954134355933 
1.039999999999902, -0.5696502435441937 
1.0499999999999008, -0.5711151730846076 
1.0599999999998997, -0.5725997668543512 
1.0699999999998986, -0.5739924745713084 
1.0799999999998975, -0.5751898232660443 
1.0899999999998964, -0.5761252715907526 
1.0999999999998953, -0.5767801872674414 
1.1099999999998942, -0.5771737825212278 
1.119999999999893, -0.5773432512880571 
1.129999999999892, -0.5773263110415487 
1.1399999999998909, -0.5771508060413642 
1.1499999999998898, -0.5768299136629597 
1.1599999999998887, -0.5763596825806762 
1.1699999999998876, -0.5757161179041058 
1.1799999999998865, -0.5748498339310193 
1.1899999999998854, -0.5736769183429998 
1.1999999999998843, -0.5720659549875047 
1.2099999999998832, -0.5698256806520109 
1.219999999999882, -0.5667096244437931 
1.229999999999881, -0.5624723000321746 
1.2399999999998799, -0.5570091338325308 
1.2499999999998788, -0.5505346434719366 
1.2599999999998777, -0.5436305533396896 
1.2699999999998766, -0.5370401506732162 
1.2799999999998755, -0.5313514590310995 
1.2899999999998744, -0.5268277741851495 
1.2999999999998733, -0.5234481572855052 
1.3099999999998722, -0.5210382485186936 
1.319999999999871, -0.5193813050585845 
1.32999999999987, -0.5182782041215284 
1.3399999999998689, -0.5175687357370989 
1.3499999999998678, -0.5171329209544481 
1.3599999999998666, -0.5168847629536144 
1.3699999999998655, -0.5167645097118888 
1.3799999999998644, -0.5167318208266697 
1.3899999999998633, -0.5167605337299898 
1.3999999999998622, -0.5168350573170487 
1.4099999999998611, -0.5169481517007423 
1.41999999999986, -0.5170996283048717 
1.429999999999859, -0.5172951803104964 
1.4399999999998578, -0.517544236083392 
1.4499999999998567, -0.517855805511773 
1.4599999999998556, -0.5182322073714247 
1.4699999999998545, -0.5186623387830691 
1.4799999999998534, -0.5191179421859302 
1.4899999999998523, -0.5195564627422058 
1.4999999999998512, -0.5199310585225291 
1.5099999999998501, -0.5202032661833106 
1.519999999999849, -0.5203513552124159 
1.529999999999848, -0.5203706298418694 
1.5399999999998468, -0.5202675755769649 
1.5499999999998457, -0.5200523432919415 
1.5599999999998446, -0.5197327185527322 
1.5699999999998435, -0.5193102465483987 
1.5799999999998424, -0.5187776561887187 
1.5899999999998413, -0.5181162283022172 
1.5999999999998402, -0.5172915472558912 
1.6099999999998391, -0.5162456113529796 
1.619999999999838, -0.5148827104585056 
1.629999999999837, -0.5130479044972626 
1.6399999999998358, -0.5105069627879015 
1.6499999999998347, -0.5069645165778027 
1.6599999999998336, -0.5021870402478543 
1.6699999999998325, -0.49624042112312694 
1.6799999999998314, -0.4896518322074872 
1.6899999999998303, -0.48323874872739536 
1.6999999999998292, -0.47770104127591023 
1.709999999999828, -0.4733599144192745 
1.719999999999827, -0.47019069529905283 
1.729999999999826, -0.4679903181401522 
1.7399999999998248, -0.46651691475641943 
1.7499999999998237, -0.4655588872861749 
1.7599999999998226, -0.46495442796429665 
1.7699999999998215, -0.46458833998388827 
1.7799999999998204, -0.4643820667903464 
1.7899999999998193, -0.46428372920971556 
1.7999999999998182, -0.4642602937857115 
1.809999999999817, -0.4642921288782266 
1.819999999999816, -0.46436961206599614 
1.8299999999998149, -0.46449127313785726 
1.8399999999998138, -0.4646627806337449 
1.8499999999998127, -0.464895781970524 
1.8599999999998116, -0.4652053408049571 
1.8699999999998105, -0.4656048853447269 
1.8799999999998094, -0.4660986157099353 
1.8899999999998083, -0.46667329092056997 
1.8999999999998072, -0.4672935293291297 
1.909999999999806, -0.4679052886403759 
1.919999999999805, -0.4684486558604169 
1.9299999999998039, -0.4688743391734014 
1.9399999999998028, -0.4691545937707119 
1.9499999999998017, -0.46928351277717795 
1.9599999999998006, -0.4692692641996155 
1.9699999999997995, -0.46912425117455847 
1.9799999999997984, -0.4688571718081279 
1.9899999999997973, -0.46846756788397503 
1.9999999999997962, -0.4679414608101588 
2.0099999999998173, -0.46724610794000104 
2.0199999999998384, -0.46632196541950693 
2.0299999999998595, -0.46507053461808834 
2.0399999999998806, -0.4633394235453413 
2.0499999999999017, -0.46091444586289354 
2.059999999999923, -0.45754599191298057 
2.069999999999944, -0.45304959445553294 
2.079999999999965, -0.4474780110194173 
2.089999999999986, -0.44123906444792815 
2.100000000000007, -0.4349882447802611 
2.1100000000000283, -0.42933723728288886 
2.1200000000000494, -0.42463161322751414 
2.1300000000000705, -0.4209354780307863 
2.1400000000000916, -0.41814031515930167 
2.1500000000001127, -0.41607594864683406 
2.160000000000134, -0.4145758131930529 
2.170000000000155, -0.4135026785723004 
2.180000000000176, -0.4127530307009707 
2.190000000000197, -0.4122531291495227 
2.2000000000002182, -0.41195324515896764 
2.2100000000002393, -0.4118226393399027 
2.2200000000002604, -0.41184600778681196 
2.2300000000002815, -0.41202140633895434 
2.2400000000003026, -0.4123593777993725 
2.2500000000003237, -0.41288276871540974 
2.260000000000345, -0.4136262901618869 
2.270000000000366, -0.4146341036524088 
2.280000000000387, -0.41595265911628926 
2.290000000000408, -0.4176153628716143 
2.3000000000004293, -0.4196174751189032 
2.3100000000004504, -0.42188723992775234 
2.3200000000004715, -0.42427233055764 
2.3300000000004926, -0.42656566194754514 
2.3400000000005137, -0.42857089333603815 
2.3500000000005348, -0.4301676582426495 
2.360000000000556, -0.4313318150846066 
2.370000000000577, -0.43210856071011516 
2.380000000000598, -0.4325704818679169 
2.390000000000619, -0.4327868678563327 
2.4000000000006403, -0.43280958628256927 
2.4100000000006614, -0.432669571940228 
2.4200000000006825, -0.43237740747598796 
2.4300000000007036, -0.43192444158217197 
2.4400000000007247, -0.4312836915733138 
2.450000000000746, -0.43041208584781465 
2.460000000000767, -0.42925778627651734 
2.470000000000788, -0.42777729151147853 
2.480000000000809, -0.4259630207134159 
2.49000000000083, -0.4238702456862562 
2.5000000000008513, -0.4216210760770097 
2.5100000000008724, -0.4193725286798634 
2.5200000000008935, -0.4172657891459498 
2.5300000000009146, -0.41539002869185176 
2.5400000000009357, -0.41377687482183473 
2.550000000000957, -0.412416387277798 
2.560000000000978, -0.4112779906562616 
2.570000000000999, -0.4103265821073413 
2.58000000000102, -0.40953182911903 
2.5900000000010412, -0.40887238444395024 
2.6000000000010624, -0.4083374077382003 
2.6100000000010835, -0.40792727246768823 
2.6200000000011046, -0.4076546756377758 
2.6300000000011257, -0.4075469064595052 
2.6400000000011468, -0.4076497861885671 
2.650000000001168, -0.4080336102287217 
2.660000000001189, -0.4088009737161024 
2.67000000000121, -0.41009497651499077 
2.680000000001231, -0.41210273316778573 
2.6900000000012523, -0.4150417297327187 
2.7000000000012734, -0.41910614213227604 
2.7100000000012945, -0.42434931319665736 
2.7200000000013156, -0.43052222374401977 
2.7300000000013367, -0.43699631628252716 
2.740000000001358, -0.4429480821607651 
2.750000000001379, -0.4477534422995356 
2.7600000000014, -0.4512386765454203 
2.770000000001421, -0.45359058820487774 
2.780000000001442, -0.45511769902638355 
2.7900000000014633, -0.4560910842940588 
2.8000000000014844, -0.45670016587650747 
2.8100000000015055, -0.4570644301960546 
2.8200000000015266, -0.4572558447179701 
2.8300000000015477, -0.45731625099437434 
2.840000000001569, -0.457268204947645 
2.85000000000159, -0.45712138372455835 
2.860000000001611, -0.4568768202522384 
2.870000000001632, -0.45653078634926575 
2.8800000000016532, -0.45607963631351095 
2.8900000000016743, -0.45552594044346967 
2.9000000000016954, -0.45488442009031915 
2.9100000000017165, -0.4541843392036089 
2.9200000000017377, -0.45346534179011594 
2.9300000000017588, -0.45276744150647624 
2.94000000000178, -0.4521201642161107 
2.950000000001801, -0.45153637615935927 
2.960000000001822, -0.45101286137630864 
2.970000000001843, -0.4505358579684174 
2.9800000000018643, -0.45008811279184463 
2.9900000000018854, -0.44965454530605575 
3.0000000000019065, -0.4492252635736739 
3.0100000000019276, -0.4487963339578642 
3.0200000000019487, -0.448369576015613 
3.03000000000197, -0.44795265423326447 
3.040000000001991, -0.4475603452451872 
3.050000000002012, -0.4472175209707589 
3.060000000002033, -0.4469641822746341 
3.070000000002054, -0.4468624875859056 
3.0800000000020753, -0.44700437052958897 
3.0900000000020964, -0.4475145627186956 
3.1000000000021175, -0.44853580620068134 
3.1100000000021386, -0.4501724718687939 
3.1200000000021597, -0.45237369147255624 
3.130000000002181, -0.4548019222465277 
3.140000000002202, -0.45685882124048105 
3.150000000002223, -0.45801230167141044 
3.160000000002244, -0.4581803618932668 
3.1700000000022652, -0.4577208588752348 
3.1800000000022863, -0.45708045276501874 
3.1900000000023074, -0.45653465174741886 
3.2000000000023285, -0.456168591299419 
3.2100000000023496, -0.4559628500096607 
3.2200000000023707, -0.45586628119611383 
3.230000000002392, -0.4558306563303445 
3.240000000002413, -0.45582043966688673 
3.250000000002434, -0.4558121291965076 
3.260000000002455, -0.4557908720133946 
3.2700000000024763, -0.4557473872627136 
3.2800000000024974, -0.4556761251137612 
3.2900000000025185, -0.4555748378982907 
3.3000000000025396, -0.4554453983881249 
3.3100000000025607, -0.45529525504058255 
3.3200000000025818, -0.4551382872682638 
3.330000000002603, -0.4549934806177706 
3.340000000002624, -0.45488051108403765 
3.350000000002645, -0.45481309786059826 
3.360000000002666, -0.45479278613084606 
3.3700000000026873, -0.45480631382065423 
3.3800000000027084, -0.45482839588615864 
3.3900000000027295, -0.45482905880143293 
3.4000000000027506, -0.4547819952158879 
3.4100000000027717, -0.45466989939837027 
3.420000000002793, -0.4544850369490157 
3.430000000002814, -0.4542262680738066 
3.440000000002835, -0.4538949360710441 
3.450000000002856, -0.4534912979626536 
3.460000000002877, -0.45301187040947566 
3.4700000000028983, -0.4524471125797332 
3.4800000000029194, -0.45177823212537477 
3.4900000000029405, -0.45097108946388176 
3.5000000000029616, -0.4499638228184494 
3.5100000000029827, -0.44864370931731157 
3.520000000003004, -0.44681279585780526 
3.530000000003025, -0.4441638471347404 
3.540000000003046, -0.44033641026621806 
3.550000000003067, -0.43513675689417325 
3.5600000000030882, -0.42883526384292703 
3.5700000000031094, -0.422197945461013 
3.5800000000031305, -0.41609773711018183 
3.5900000000031516, -0.4110845409752281 
3.6000000000031727, -0.4072844227207703 
3.6100000000031938, -0.4045532537970651 
3.620000000003215, -0.40265518959720625 
3.630000000003236, -0.4013653105772829 
3.640000000003257, -0.4005056362117528 
3.650000000003278, -0.39994757016056426 
3.6600000000032993, -0.39960299725254583 
3.6700000000033204, -0.39941403190334196 
3.6800000000033415, -0.39934472817605376 
3.6900000000033626, -0.3993753204730912 
3.7000000000033837, -0.3994986743384881 
3.710000000003405, -0.39971838911447577 
3.720000000003426, -0.40004784723641196 
3.730000000003447, -0.4005092153554018 
3.740000000003468, -0.4011309485381155 
3.750000000003489, -0.4019419454557638 
3.7600000000035103, -0.40296071637061076 
3.7700000000035314, -0.4041798202452753 
3.7800000000035525, -0.40555049610286786 
3.7900000000035736, -0.4069783677394191 
3.8000000000035947, -0.408340950045807 
3.810000000003616, -0.4095239257146611 
3.820000000003637, -0.4104550177109023 
3.830000000003658, -0.41111450588236753 
3.840000000003679, -0.4115217763138864 
3.8500000000037002, -0.4117130611297538 
3.8600000000037213, -0.4117235361973191 
3.8700000000037424, -0.41157734754094244 
3.8800000000037635, -0.41128316356821165 
3.8900000000037847, -0.410831907950739 
3.9000000000038058, -0.4101946839337308 
3.910000000003827, -0.4093209448448552 
3.920000000003848, -0.4081397361996637 
3.930000000003869, -0.40657039102373993 
3.94000000000389, -0.4045505831693818 
3.9500000000039113, -0.402081306624605 
3.9600000000039324, -0.39926570665846434 
3.9700000000039535, -0.3963025349877761 
3.9800000000039746, -0.39342214183217233 
3.9900000000039957, -0.39080736412967954 
4.000000000004016, -0.38855280191385566 
4.010000000003993, -0.3866729484442396 
4.02000000000397, -0.38513378530052667 
4.030000000003946, -0.38388285143201595 
4.040000000003923, -0.38286832650142755 
4.0500000000039, -0.3820481462247995 
4.0600000000038765, -0.38139311143497323 
4.070000000003853, -0.3808873770434908 
4.08000000000383, -0.3805284592157093 
4.090000000003807, -0.380327961224745 
4.100000000003783, -0.3803137074708957 
4.11000000000376, -0.38053374286185104 
4.120000000003737, -0.3810624529823623 
4.130000000003713, -0.3820084746525587 
4.14000000000369, -0.38352228979265873 
4.150000000003667, -0.38579697332172547 
4.1600000000036434, -0.38904692589725454 
4.17000000000362, -0.3934390542407523 
4.180000000003597, -0.3989571652783411 
4.1900000000035735, -0.4052438289414426 
4.20000000000355, -0.41158140777508156 
4.210000000003527, -0.41716211487060617 
4.220000000003504, -0.4214874577561479 
4.23000000000348, -0.424520959441714 
4.240000000003457, -0.42651852581399 
4.250000000003434, -0.42779325750970465 
4.26000000000341, -0.4285938582525638 
4.270000000003387, -0.42908540221563196 
4.280000000003364, -0.42936896405057096 
4.2900000000033405, -0.4295041541334327 
4.300000000003317, -0.4295248810346699 
4.310000000003294, -0.4294488577126496 
4.320000000003271, -0.429283339864016 
4.330000000003247, -0.4290292821559212 
4.340000000003224, -0.4286855051063017 
4.350000000003201, -0.4282537083236284 
4.360000000003177, -0.42774387184294727 
4.370000000003154, -0.42717787972898663 
4.380000000003131, -0.4265884306657604 
4.390000000003107, -0.4260121493151008 
4.400000000003084, -0.4254796084235373 
4.410000000003061, -0.4250072664130252 
4.4200000000030375, -0.4245949448684362 
4.430000000003014, -0.4242290921110504 
4.440000000002991, -0.42388944507445697 
4.450000000002968, -0.42355585655896527 
4.460000000002944, -0.42321282549208716 
4.470000000002921, -0.42285099888648975 
4.480000000002898, -0.42246650239586286 
4.490000000002874, -0.4220595497371207 
4.500000000002851, -0.42163346260638723 
4.510000000002828, -0.42119462044394956 
4.520000000002804, -0.4207533430379534 
4.530000000002781, -0.4203251740359746 
4.540000000002758, -0.41993091941417493 
4.5500000000027345, -0.41959115125337015 
4.560000000002711, -0.41930592795826893 
4.570000000002688, -0.419005989318062 
4.580000000002665, -0.4184737626307024 
4.590000000002641, -0.4172945795261878 
4.600000000002618, -0.41499185165028507 
4.610000000002595, -0.4114094464020267 
4.620000000002571, -0.4069954710539051 
4.630000000002548, -0.4025620665658904 
4.640000000002525, -0.398766582702687 
4.6500000000025015, -0.395865491026374 
4.660000000002478, -0.3938079087649694 
4.670000000002455, -0.3924165255451394 
4.6800000000024315, -0.3915048429221245 
4.690000000002408, -0.3909224059213988 
4.700000000002385, -0.3905613332504866 
4.710000000002362, -0.3903491432014437 
4.720000000002338, -0.39023941665991824 
4.730000000002315, -0.39020416646776457 
4.740000000002292, -0.3902286383241922 
4.750000000002268, -0.3903082579131099 
4.760000000002245, -0.3904471630706948 
4.770000000002222, -0.39065758420835894 
4.7800000000021985, -0.3909590435639824 
4.790000000002175, -0.3913760007685233 
4.800000000002152, -0.39193248119379115 
4.810000000002129, -0.39264284973378355 
4.820000000002105, -0.39349979464957596 
4.830000000002082, -0.3944640206477057 
4.840000000002059, -0.39546344543692286 
4.850000000002035, -0.39640788704088226 
4.860000000002012, -0.3972150472878518 
4.870000000001989, -0.3978328928955238 
4.880000000001965, -0.3982456724992325 
