t, s[1].omega / s[0].omega 
0, -0.7399976761033943 
0.009999999999999995, -0.7397442568778424 
0.019999999999999934, -0.7394476502227084 
0.029999999999999874, -0.739104598919492 
0.04000000000000012, -0.7387133373087443 
0.050000000000000405, -0.7382766242695551 
0.06000000000000069, -0.7378033663240109 
0.07000000000000098, -0.737309101721677 
0.08000000000000126, -0.7368163838237305 
0.09000000000000155, -0.7363557848857154 
0.10000000000000184, -0.7359674177947911 
0.11000000000000212, -0.7357021572143088 
0.12000000000000241, -0.7356214282544924 
0.130000000000002, -0.7357946183086648 
0.1400000000000009, -0.7362937915674154 
0.1499999999999998, -0.7371861026925748 
0.1599999999999987, -0.7385245687433944 
0.1699999999999976, -0.7403373735437626 
0.1799999999999965, -0.742615184940088 
0.1899999999999954, -0.7452966192329354 
0.1999999999999943, -0.7482557974482729 
0.2099999999999932, -0.7513024493902829 
0.2199999999999921, -0.7542077722182517 
0.229999999999991, -0.7567576621271874 
0.2399999999999899, -0.7588104582011372 
0.2499999999999888, -0.7603245358476604 
0.2599999999999877, -0.7613423101089754 
0.2699999999999866, -0.761949540699187 
0.2799999999999855, -0.7622375206899604 
0.2899999999999844, -0.7622813862606711 
0.2999999999999833, -0.7621328401243695 
0.3099999999999822, -0.7618205949926022 
0.3199999999999811, -0.7613534072229571 
0.32999999999998, -0.7607235231004756 
0.3399999999999789, -0.7599106800289682 
0.3499999999999778, -0.7588884403710768 
0.35999999999997667, -0.7576356662939558 
0.36999999999997557, -0.7561554388362197 
0.37999999999997447, -0.7544994162275228 
0.38999999999997337, -0.7527861865376575 
0.39999999999997227, -0.7511941891862773 
0.40999999999997117, -0.7499202951980407 
0.41999999999997006, -0.749125029452502 
0.42999999999996896, -0.7488922244962468 
0.43999999999996786, -0.7492030031612872 
0.44999999999996676, -0.7499292885528476 
0.45999999999996566, -0.7508735099996228 
0.46999999999996456, -0.7518414185513105 
0.47999999999996346, -0.7526966112741709 
0.48999999999996235, -0.7533718083119068 
0.49999999999996125, -0.7538509981193087 
0.5099999999999602, -0.7541449292543971 
0.519999999999959, -0.7542719391825046 
0.529999999999958, -0.7542460988577392 
0.5399999999999568, -0.7540704427468186 
0.5499999999999557, -0.7537326529050531 
0.5599999999999546, -0.7532016748789776 
0.5699999999999535, -0.7524254944063251 
0.5799999999999524, -0.7513326689803412 
0.5899999999999513, -0.7498426784017965 
0.5999999999999502, -0.7478900490980784 
0.6099999999999491, -0.745459879332508 
0.619999999999948, -0.7426181210158022 
0.6299999999999469, -0.7395128549951515 
0.6399999999999458, -0.7363390218235745 
0.6499999999999447, -0.7332871539551122 
0.6599999999999436, -0.7305051552865025 
0.6699999999999425, -0.7280852450960041 
0.6799999999999414, -0.726069343461084 
0.6899999999999403, -0.7244610764394295 
0.6999999999999392, -0.723237122069085 
0.7099999999999381, -0.7223560439385677 
0.719999999999937, -0.7217653607346397 
0.7299999999999359, -0.7214077657400899 
0.7399999999999348, -0.721226621774619 
0.7499999999999337, -0.7211702469919331 
0.7599999999999326, -0.7211945123224127 
0.7699999999999315, -0.7212637395362467 
0.7799999999999304, -0.7213504056878506 
0.7899999999999293, -0.7214343763821669 
0.7999999999999282, -0.7215021669223441 
0.8099999999999271, -0.7215461578756261 
0.819999999999926, -0.721563146502284 
0.8299999999999249, -0.7215517013258885 
0.8399999999999238, -0.7215088020374184 
0.8499999999999227, -0.7214274851758836 
0.8599999999999216, -0.7212972747011442 
0.8699999999999205, -0.72110751120308 
0.8799999999999194, -0.7208516336025739 
0.8899999999999183, -0.7205300195997131 
0.8999999999999172, -0.7201505338970727 
0.9099999999999161, -0.7197278236445829 
0.919999999999915, -0.7192830577861036 
0.9299999999999139, -0.7188452224144986 
0.9399999999999128, -0.7184541149841874 
0.9499999999999117, -0.7181643665446514 
0.9599999999999106, -0.7180492059352723 
0.9699999999999095, -0.7182022197662181 
0.9799999999999084, -0.7187351550059378 
0.9899999999999073, -0.7197699509951809 
0.9999999999999062, -0.7214235244736826 
1.0099999999999052, -0.7237841359352751 
1.019999999999904, -0.7268790220777109 
1.029999999999903, -0.7306368010400833 
1.039999999999902, -0.734858001798105 
1.0499999999999008, -0.7392199315779278 
1.0599999999998997, -0.7433403662182189 
1.0699999999998986, -0.7468882533926197 
1.0799999999998975, -0.7496799860173979 
1.0899999999998964, -0.7517005767522342 
1.0999999999998953, -0.7530516069367235 
1.1099999999998942, -0.7538776448426503 
1.119999999999893, -0.7543137867432865 
1.129999999999892, -0.7544629707805908 
1.1399999999998909, -0.7543924541124222 
1.1499999999998898, -0.7541375850889884 
1.1599999999998887, -0.7537059467328427 
1.1699999999998876, -0.7530790568790954 
1.1799999999998865, -0.7522109450294531 
1.1899999999998854, -0.7510240535021457 
1.1999999999998843, -0.7494042533722627 
1.2099999999998832, -0.7471996169704884 
1.219999999999882, -0.7442333250701123 
1.229999999999881, -0.740349216893265 
1.2399999999998799, -0.7355088199478512 
1.2499999999998788, -0.7299227234386515 
1.2599999999998777, -0.7241151380913879 
1.2699999999998766, -0.7187901546999258 
1.2799999999998755, -0.7145321646658125 
1.2899999999998744, -0.7115751277906012 
1.2999999999998733, -0.7098043223859274 
1.3099999999998722, -0.7089176560244126 
1.319999999999871, -0.7085893922927347 
1.32999999999987, -0.7085587782508833 
1.3399999999998689, -0.7086504434440128 
1.3499999999998678, -0.7087599951539432 
1.3599999999998666, -0.7088304248532833 
1.3699999999998655, -0.70883129315938 
1.3799999999998644, -0.7087438226059588 
1.3899999999998633, -0.7085513411450328 
1.3999999999998622, -0.7082338738797456 
1.4099999999998611, -0.7077663911603639 
1.41999999999986, -0.7071212109019042 
1.429999999999859, -0.7062752569459311 
1.4399999999998578, -0.7052210980999035 
1.4499999999998567, -0.7039770044118491 
1.4599999999998556, -0.702588996323416 
1.4699999999998545, -0.7011215135430705 
1.4799999999998534, -0.6996414407205205 
1.4899999999998523, -0.6982046612592183 
1.4999999999998512, -0.6968508104427263 
1.5099999999998501, -0.6956053810314665 
1.519999999999849, -0.6944849771757563 
1.529999999999848, -0.6935021083850349 
1.5399999999998468, -0.6926679499059507 
1.5499999999998457, -0.6919930446472411 
1.5599999999998446, -0.691486603424158 
1.5699999999998435, -0.6911552101808539 
1.5799999999998424, -0.6910016628404896 
1.5899999999998413, -0.6910244765412893 
1.5999999999998402, -0.6912182606369831 
1.6099999999998391, -0.6915748099047525 
1.619999999999838, -0.6920844186211167 
1.629999999999837, -0.6927366981577961 
1.6399999999998358, -0.6935200735077138 
1.6499999999998347, -0.6944192329745017 
1.6599999999998336, -0.6954103947772452 
1.6699999999998325, -0.69645571409419 
1.6799999999998314, -0.6975002752544681 
1.6899999999998303, -0.6984761584903186 
1.6999999999998292, -0.6993153065824935 
1.709999999999828, -0.6999663285253208 
1.719999999999827, -0.7004057540971387 
1.729999999999826, -0.7006376533475297 
1.7399999999998248, -0.7006839949079351 
1.7499999999998237, -0.7005729159819134 
1.7599999999998226, -0.7003303745670401 
1.7699999999998215, -0.6999767076269418 
1.7799999999998204, -0.6995273849269085 
1.7899999999998193, -0.6989971945869342 
1.7999999999998182, -0.6984080558561336 
1.809999999999817, -0.6978015509944812 
1.819999999999816, -0.6972571567123907 
1.8299999999998149, -0.6969145636245069 
1.8399999999998138, -0.6969912109981584 
1.8499999999998127, -0.6977734091406558 
1.8599999999998116, -0.6995488767770782 
1.8699999999998105, -0.7024659617637946 
1.8799999999998094, -0.7063786302600947 
1.8899999999998083, -0.7108203112019217 
1.8999999999998072, -0.7151905082496421 
1.909999999999806, -0.7190195640611241 
1.919999999999805, -0.7220953596184928 
1.9299999999998039, -0.7244164356401557 
1.9399999999998028, -0.7260867810688204 
1.9499999999998017, -0.7272379191926566 
1.9599999999998006, -0.7279905847704742 
1.9699999999997995, -0.7284410013271525 
1.9799999999997984, -0.7286585388451446 
1.9899999999997973, -0.7286874575447415 
1.9999999999997962, -0.7285491198488976 
2.0099999999998173, -0.7282429615710233 
2.0199999999998384, -0.727745640315929 
2.0299999999998595, -0.7270088687552165 
2.0399999999998806, -0.7259582161712453 
2.0499999999999017, -0.7244980407024817 
2.059999999999923, -0.7225303752596755 
2.069999999999944, -0.7199929204384108 
2.079999999999965, -0.7169069413021009 
2.089999999999986, -0.7134057161590521 
2.100000000000007, -0.7097143520960187 
2.1100000000000283, -0.7060862974917846 
2.1200000000000494, -0.7027364122820575 
2.1300000000000705, -0.6998051851065161 
2.1400000000000916, -0.6973575711367667 
2.1500000000001127, -0.6954001758892457 
2.160000000000134, -0.6939013282555144 
2.170000000000155, -0.692807170180003 
2.180000000000176, -0.6920530596357486 
2.190000000000197, -0.691571615093263 
2.2000000000002182, -0.69129849436036 
2.2100000000002393, -0.6911763049165598 
2.2200000000002604, -0.6911567203236617 
2.2300000000002815, -0.6912009993887652 
2.2400000000003026, -0.6912793960573131 
2.2500000000003237, -0.6913701142631767 
2.260000000000345, -0.6914583339285026 
2.270000000000366, -0.6915353893431369 
2.280000000000387, -0.6915976009170686 
2.290000000000408, -0.6916440143631913 
2.3000000000004293, -0.6916729128963685 
2.3100000000004504, -0.691678319418658 
2.3200000000004715, -0.6916486413857099 
2.3300000000004926, -0.691568842364738 
2.3400000000005137, -0.6914252320666674 
2.3500000000005348, -0.6912101154160042 
2.360000000000556, -0.6909239558762352 
2.370000000000577, -0.6905749093583491 
2.380000000000598, -0.6901774188214624 
2.390000000000619, -0.6897517936723558 
2.4000000000006403, -0.6893258801067083 
2.4100000000006614, -0.6889390461570313 
2.4200000000006825, -0.6886480953793732 
2.4300000000007036, -0.6885341716103957 
2.4400000000007247, -0.6887089441082821 
2.450000000000746, -0.6893172666085126 
2.460000000000767, -0.6905321473056261 
2.470000000000788, -0.6925364490303972 
2.480000000000809, -0.6954850519121836 
2.49000000000083, -0.6994440782723224 
2.5000000000008513, -0.7043162757012866 
2.5100000000008724, -0.7097879139268092 
2.5200000000008935, -0.7153560791250251 
2.5300000000009146, -0.7204687015620672 
2.5400000000009357, -0.7247149151533582 
2.550000000000957, -0.7279367456223433 
2.560000000000978, -0.7302004479106232 
2.570000000000999, -0.7316876401733199 
2.58000000000102, -0.732596598968281 
2.5900000000010412, -0.7330910757612188 
2.6000000000010624, -0.733286976901047 
2.6100000000010835, -0.7332563568744594 
2.6200000000011046, -0.733035020395629 
2.6300000000011257, -0.7326276875397364 
2.6400000000011468, -0.7320087290167121 
2.650000000001168, -0.7311180163114384 
2.660000000001189, -0.7298523710684303 
2.67000000000121, -0.7280554374779217 
2.680000000001231, -0.725514981724085 
2.6900000000012523, -0.7219878806440703 
2.7000000000012734, -0.7172813683858954 
2.7100000000012945, -0.7113962984145237 
2.7200000000013156, -0.7046599002439476 
2.7300000000013367, -0.6977084180265296 
2.740000000001358, -0.6912679980509557 
2.750000000001379, -0.6858810966285038 
2.7600000000014, -0.6817709425508167 
2.770000000001421, -0.6788810226153468 
2.780000000001442, -0.6769964715501412 
2.7900000000014633, -0.6758561216079533 
2.8000000000014844, -0.6752205631450795 
2.8100000000015055, -0.6749001213028881 
2.8200000000015266, -0.6747579292065002 
2.8300000000015477, -0.6747013152591593 
2.840000000001569, -0.6746698002353122 
2.85000000000159, -0.6746239290614373 
2.860000000001611, -0.6745366492934096 
2.870000000001632, -0.6743877296325312 
2.8800000000016532, -0.6741612778635598 
2.8900000000016743, -0.6738461704436333 
2.9000000000016954, -0.6734385779431664 
2.9100000000017165, -0.6729446493399659 
2.9200000000017377, -0.6723807017268355 
2.9300000000017588, -0.6717693846730853 
2.94000000000178, -0.6711331935181724 
2.950000000001801, -0.6704889180147104 
2.960000000001822, -0.6698459023133492 
2.970000000001843, -0.6692082109203328 
2.9800000000018643, -0.6685786256646709 
2.9900000000018854, -0.6679622807956027 
3.0000000000019065, -0.667369000445111 
3.0100000000019276, -0.6668145937719178 
3.0200000000019487, -0.6663217278417541 
3.03000000000197, -0.6659207120501118 
3.040000000001991, -0.6656500978481713 
3.050000000002012, -0.6655567502506707 
3.060000000002033, -0.6656950435619222 
3.070000000002054, -0.6661249607736198 
3.0800000000020753, -0.6669089209128742 
3.0900000000020964, -0.6681068825482955 
3.1000000000021175, -0.669768575628394 
3.1100000000021386, -0.6719209357213269 
3.1200000000021597, -0.6745491395953722 
3.130000000002181, -0.6775732506307184 
3.140000000002202, -0.6808309625238664 
3.150000000002223, -0.6840860284632956 
3.160000000002244, -0.6870773345234241 
3.1700000000022652, -0.6895945488534774 
3.1800000000022863, -0.6915354636333002 
3.1900000000023074, -0.6929097331039245 
3.2000000000023285, -0.6937982052358607 
3.2100000000023496, -0.6943037198748141 
3.2200000000023707, -0.694518180958225 
3.230000000002392, -0.6945088130867444 
3.240000000002413, -0.6943159157411077 
3.250000000002434, -0.6939544807258904 
3.260000000002455, -0.6934152199748266 
3.2700000000024763, -0.6926629699742028 
3.2800000000024974, -0.6916316642317064 
3.2900000000025185, -0.6902159664526222 
3.3000000000025396, -0.6882617313371283 
3.3100000000025607, -0.6855631842584783 
3.3200000000025818, -0.6818865646122294 
3.330000000002603, -0.6770521208708871 
3.340000000002624, -0.6710872576759124 
3.350000000002645, -0.6643733230256996 
3.360000000002666, -0.6576162712748151 
3.3700000000026873, -0.6515766968371062 
3.3800000000027084, -0.6467559674111879 
3.3900000000027295, -0.6432787850410766 
3.4000000000027506, -0.6409861118850169 
3.4100000000027717, -0.6395959292673592 
3.420000000002793, -0.6388232841180204 
3.430000000002814, -0.6384364772083126 
3.440000000002835, -0.6382688200174309 
3.450000000002856, -0.638209449226218 
3.460000000002877, -0.6381881500241019 
3.4700000000028983, -0.6381611559871487 
3.4800000000029194, -0.6381002493468955 
3.4900000000029405, -0.6379854550197371 
3.5000000000029616, -0.6378010536632044 
3.5100000000029827, -0.6375346389097429 
3.520000000003004, -0.6371788137927663 
3.530000000003025, -0.636734381178318 
3.540000000003046, -0.6362127215868859 
3.550000000003067, -0.6356347267062522 
3.5600000000030882, -0.6350254889376241 
3.5700000000031094, -0.6344071209064583 
3.5800000000031305, -0.6337936734609124 
3.5900000000031516, -0.6331905445288358 
3.6000000000031727, -0.6325977184581417 
3.6100000000031938, -0.6320143403462425 
3.620000000003215, -0.6314424502478051 
3.630000000003236, -0.6308891892481071 
3.640000000003257, -0.630368008890503 
3.650000000003278, -0.6298997317308936 
3.6600000000032993, -0.6295139798987098 
3.6700000000033204, -0.6292510125655223 
3.6800000000033415, -0.6291636670823306 
3.6900000000033626, -0.6293189019587178 
3.7000000000033837, -0.6297982822973947 
3.710000000003405, -0.6306964438053114 
3.720000000003426, -0.6321158778159369 
3.730000000003447, -0.6341551570352368 
3.740000000003468, -0.6368864684320517 
3.750000000003489, -0.6403192269576258 
3.7600000000035103, -0.644354186607255 
3.7700000000035314, -0.6487501819675413 
3.7800000000035525, -0.6531428300736677 
3.7900000000035736, -0.6571388926398662 
3.8000000000035947, -0.6604467205731419 
3.810000000003616, -0.6629550663565643 
3.820000000003637, -0.6647147469812554 
3.830000000003658, -0.6658618495779802 
3.840000000003679, -0.6665457823633274 
3.8500000000037002, -0.6668904490409725 
3.8600000000037213, -0.6669830029669046 
3.8700000000037424, -0.6668756294875152 
3.8800000000037635, -0.6665900894543861 
3.8900000000037847, -0.6661201917086015 
3.9000000000038058, -0.6654304149245263 
3.910000000003827, -0.6644503150668268 
3.920000000003848, -0.6630658833308776 
3.930000000003869, -0.6611128228830273 
3.94000000000389, -0.6583848208527914 
3.9500000000039113, -0.6546797608938465 
3.9600000000039324, -0.6499014074092602 
3.9700000000039535, -0.6441859491201606 
3.9800000000039746, -0.637951454002821 
3.9900000000039957, -0.6317839625910354 
4.000000000004016, -0.6262201621373042 
4.010000000003993, -0.6215861768389667 
4.02000000000397, -0.6179732231417499 
4.030000000003946, -0.6153060245879238 
4.040000000003923, -0.6134281604477554 
4.0500000000039, -0.6121641520666953 
4.0600000000038765, -0.6113530219669034 
4.070000000003853, -0.6108616402755309 
4.08000000000383, -0.6105867958535217 
4.090000000003807, -0.6104519917711445 
4.100000000003783, -0.6104023536310808 
4.11000000000376, -0.6103994349691401 
4.120000000003737, -0.61041683685168 
4.130000000003713, -0.6104370832921883 
4.14000000000369, -0.6104498421256266 
4.150000000003667, -0.6104511529572917 
4.1600000000036434, -0.6104427818561735 
4.17000000000362, -0.610430477373904 
4.180000000003597, -0.6104203450428097 
4.1900000000035735, -0.610414004304232 
4.20000000000355, -0.6104047942971973 
4.210000000003527, -0.6103775500668227 
4.220000000003504, -0.6103126639886278 
4.23000000000348, -0.6101923823271962 
4.240000000003457, -0.6100058865832433 
4.250000000003434, -0.6097509771279679 
4.26000000000341, -0.6094328073156632 
4.270000000003387, -0.6090617550815112 
4.280000000003364, -0.6086524143001236 
4.2900000000033405, -0.6082248113330726 
4.300000000003317, -0.6078083273940825 
4.310000000003294, -0.607448646410287 
4.320000000003271, -0.6072179872021837 
4.330000000003247, -0.6072283076052762 
4.340000000003224, -0.6076452135344896 
4.350000000003201, -0.608695727888015 
4.360000000003177, -0.6106549197662061 
4.370000000003154, -0.6137873778593342 
4.380000000003131, -0.6182239463039014 
4.390000000003107, -0.6238008614499392 
4.400000000003084, -0.6299802174693574 
4.410000000003061, -0.6359966647558368 
4.4200000000030375, -0.6411892667629898 
4.430000000003014, -0.6452488398691505 
4.440000000002991, -0.6482047428730138 
4.450000000002968, -0.6502580496530834 
4.460000000002944, -0.6516367325035011 
4.470000000002921, -0.6525299892053994 
4.480000000002898, -0.6530754383005251 
4.490000000002874, -0.6533661128843687 
4.500000000002851, -0.6534605566800125 
4.510000000002828, -0.6533906438687312 
4.520000000002804, -0.6531662408443448 
4.530000000002781, -0.6527772083387712 
4.540000000002758, -0.6521938975165074 
4.5500000000027345, -0.6513683076908345 
4.560000000002711, -0.6502396857070847 
4.570000000002688, -0.6487493918921377 
4.580000000002665, -0.6468669619633378 
4.590000000002641, -0.6446194011506907 
4.600000000002618, -0.6421044611870064 
4.610000000002595, -0.6394721852297142 
4.620000000002571, -0.6368822447275602 
4.630000000002548, -0.6344637130619897 
4.640000000002525, -0.6322971975139448 
4.6500000000025015, -0.6304188256580716 
4.660000000002478, -0.628834222076471 
4.670000000002455, -0.6275322678193709 
4.6800000000024315, -0.6264944599435047 
4.690000000002408, -0.6256998929674032 
4.700000000002385, -0.6251273900001012 
4.710000000002362, -0.6247562884578729 
4.720000000002338, -0.6245668678095542 
4.730000000002315, -0.6245408845228086 
4.740000000002292, -0.6246623037499325 
4.750000000002268, -0.6249180959754113 
4.760000000002245, -0.625298842720275 
4.770000000002222, -0.625798777591081 
4.7800000000021985, -0.6264147112869651 
4.790000000002175, -0.6271431277744123 
4.800000000002152, -0.6279749335616902 
4.810000000002129, -0.6288884252622796 
4.820000000002105, -0.6298431961406612 
4.830000000002082, -0.6307797647221607 
4.840000000002059, -0.6316288194132125 
4.850000000002035, -0.6323281959900553 
4.860000000002012, -0.6328387519302445 
4.870000000001989, -0.6331499933064687 
4.880000000001965, -0.6332740406710667 
4.890000000001942, -0.6332340051879772 
4.900000000001919, -0.6330535645423814 
4.9100000000018955, -0.6327507335397503 
4.920000000001872, -0.6323355083708411 
