t, s[1].omega / s[0].omega 
0, -0.5099977540034847 
0.009999999999999995, -0.5097864561694334 
0.019999999999999934, -0.5095955601559785 
0.029999999999999874, -0.5094097142861413 
0.04000000000000012, -0.5092099399777126 
0.050000000000000405, -0.5089797422725543 
0.06000000000000069, -0.5087088241894356 
0.07000000000000098, -0.5083936573266491 
0.08000000000000126, -0.5080360694826371 
0.09000000000000155, -0.5076415992256005 
0.10000000000000184, -0.5072188803960829 
0.11000000000000212, -0.5067806510839238 
0.12000000000000241, -0.5063466235307585 
0.130000000000002, -0.5059483041397475 
0.1400000000000009, -0.5056354344589659 
0.1499999999999998, -0.5054821923075872 
0.1599999999999987, -0.5055873800588768 
0.1699999999999976, -0.5060558292110471 
0.1799999999999965, -0.5069429366363611 
0.1899999999999954, -0.5081607849865817 
0.1999999999999943, -0.5094106247651953 
0.2099999999999932, -0.51027588375007 
0.2199999999999921, -0.5104966261401854 
0.229999999999991, -0.5101616344392601 
0.2399999999999899, -0.5095875436249947 
0.2499999999999888, -0.5090589350831062 
0.2599999999999877, -0.5087037829079244 
0.2699999999999866, -0.5085242462509003 
0.2799999999999855, -0.5084689968363258 
0.2899999999999844, -0.5084811174279544 
0.2999999999999833, -0.5085163929992536 
0.3099999999999822, -0.5085453334980913 
0.3199999999999811, -0.5085495008045549 
0.32999999999998, -0.5085171748331855 
0.3399999999999789, -0.508440116075024 
0.3499999999999778, -0.5083118800706345 
0.35999999999997667, -0.5081277775179176 
0.36999999999997557, -0.5078863849509039 
0.37999999999997447, -0.5075920172666184 
0.38999999999997337, -0.507256717590397 
0.39999999999997227, -0.5068997626937011 
0.40999999999997117, -0.5065434969082612 
0.41999999999997006, -0.506206603575392 
0.42999999999996896, -0.5058980067219575 
0.43999999999996786, -0.5056145576232939 
0.44999999999996676, -0.5053435067125978 
0.45999999999996566, -0.5050681445524529 
0.46999999999996456, -0.5047736118875462 
0.47999999999996346, -0.504450461555692 
0.48999999999996235, -0.5040954374765977 
0.49999999999996125, -0.5037105794841414 
0.5099999999999602, -0.5033022276892731 
0.519999999999959, -0.5028810826840828 
0.529999999999958, -0.5024639366403226 
0.5399999999999568, -0.5020774108059365 
0.5499999999999557, -0.5017638968242548 
0.5599999999999546, -0.5015894195538275 
0.5699999999999535, -0.5016514263055709 
0.5799999999999524, -0.5020801532758521 
0.5899999999999513, -0.5030192766469175 
0.5999999999999502, -0.5045646631557554 
0.6099999999999491, -0.5066553563201317 
0.619999999999948, -0.5089805973433205 
0.6299999999999469, -0.5110497865373563 
0.6399999999999458, -0.5124744988666254 
0.6499999999999447, -0.5132106201972876 
0.6599999999999436, -0.513493495024415 
0.6699999999999425, -0.5135941008010013 
0.6799999999999414, -0.5136720287613533 
0.6899999999999403, -0.5137763822839835 
0.6999999999999392, -0.5138995831196682 
0.7099999999999381, -0.514018619362392 
0.719999999999937, -0.5141130975691458 
0.7299999999999359, -0.5141692362006605 
0.7399999999999348, -0.5141783889049332 
0.7499999999999337, -0.5141344862825357 
0.7599999999999326, -0.5140320893126191 
0.7699999999999315, -0.5138656524046491 
0.7799999999999304, -0.5136302836468296 
0.7899999999999293, -0.513324063198352 
0.7999999999999282, -0.5129513473165823 
0.8099999999999271, -0.5125254136606399 
0.819999999999926, -0.5120681319402737 
0.8299999999999249, -0.511605369887909 
0.8399999999999238, -0.51115957297231 
0.8499999999999227, -0.510743207892246 
0.8599999999999216, -0.510356386777153 
0.8699999999999205, -0.5099894001675735 
0.8799999999999194, -0.5096282406574575 
0.8899999999999183, -0.5092601561536271 
0.8999999999999172, -0.5088771137210926 
0.9099999999999161, -0.5084768500159892 
0.919999999999915, -0.5080625779032749 
0.9299999999999139, -0.5076427641779826 
0.9399999999999128, -0.5072320381403449 
0.9499999999999117, -0.5068538663839663 
0.9599999999999106, -0.506545420113247 
0.9699999999999095, -0.5063649288360816 
0.9799999999999084, -0.5064012887115092 
0.9899999999999073, -0.5067838820259247 
0.9999999999999062, -0.5076859948769703 
1.0099999999999052, -0.5093066575614524 
1.019999999999904, -0.5118068745954778 
1.029999999999903, -0.5151867434049837 
1.039999999999902, -0.5191552330657808 
1.0499999999999008, -0.5231432135314719 
1.0599999999998997, -0.5265621962724663 
1.0699999999998986, -0.5291194343989404 
1.0799999999998975, -0.5308759019559212 
1.0899999999998964, -0.5320575876198131 
1.0999999999998953, -0.5328729941277797 
1.1099999999998942, -0.5334538807917911 
1.119999999999893, -0.5338707389491678 
1.129999999999892, -0.5341605122038253 
1.1399999999998909, -0.5343442243316787 
1.1499999999998898, -0.5344347799677145 
1.1599999999998887, -0.5344395563928237 
1.1699999999998876, -0.5343609885357019 
1.1799999999998865, -0.5341967869608425 
1.1899999999998854, -0.5339407266491016 
1.1999999999998843, -0.5335847733609954 
1.2099999999998832, -0.5331230859085057 
1.219999999999882, -0.532557528449321 
1.229999999999881, -0.5319026067950829 
1.2399999999998799, -0.5311864088808971 
1.2499999999998788, -0.5304453388005169 
1.2599999999998777, -0.5297144313018871 
1.2699999999998766, -0.5290183892970103 
1.2799999999998755, -0.5283677955222201 
1.2899999999998744, -0.5277612118041 
1.2999999999998733, -0.5271906927151708 
1.3099999999998722, -0.5266475294455426 
1.319999999999871, -0.526126266761414 
1.32999999999987, -0.5256267581054719 
1.3399999999998689, -0.5251551417694091 
1.3499999999998678, -0.5247248633552071 
1.3599999999998666, -0.5243585994429372 
1.3699999999998655, -0.5240915993178181 
1.3799999999998644, -0.5239767311629885 
1.3899999999998633, -0.5240912881610451 
1.3999999999998622, -0.5245450523171604 
1.4099999999998611, -0.5254876398871203 
1.41999999999986, -0.527109833286291 
1.429999999999859, -0.529627618009603 
1.4399999999998578, -0.5332307666706189 
1.4499999999998567, -0.5379807636350245 
1.4599999999998556, -0.5436791885164504 
1.4699999999998545, -0.5498041520830761 
1.4799999999998534, -0.5556422101355885 
1.4899999999998523, -0.5605898697891966 
1.4999999999998512, -0.5643843240579132 
1.5099999999998501, -0.5670889732328119 
1.519999999999849, -0.5689268321417852 
1.529999999999848, -0.570135399586589 
1.5399999999998468, -0.5709034309487075 
1.5499999999998457, -0.5713625656235828 
1.5599999999998446, -0.5715983187037359 
1.5699999999998435, -0.5716627132911982 
1.5799999999998424, -0.5715834679083718 
1.5899999999998413, -0.5713695854038783 
1.5999999999998402, -0.5710145402045569 
1.6099999999998391, -0.5704987283373032 
1.619999999999838, -0.5697933894322424 
1.629999999999837, -0.5688685957266556 
1.6399999999998358, -0.5677067538729168 
1.6499999999998347, -0.5663187541092675 
1.6599999999998336, -0.5647538949442513 
1.6699999999998325, -0.5630939822677083 
1.6799999999998314, -0.5614317815129878 
1.6899999999998303, -0.5598463275004437 
1.6999999999998292, -0.5583886922591029 
1.709999999999828, -0.5570818123120234 
1.719999999999827, -0.5559289556025234 
1.729999999999826, -0.5549238380881901 
1.7399999999998248, -0.5540584065845623 
1.7499999999998237, -0.5533274548828093 
1.7599999999998226, -0.552730831477232 
1.7699999999998215, -0.5522743035849781 
1.7799999999998204, -0.5519698836208018 
1.7899999999998193, -0.5518360843018288 
1.7999999999998182, -0.5518983168009342 
1.809999999999817, -0.5521894581922028 
1.819999999999816, -0.5527503807085623 
1.8299999999998149, -0.5536298143131779 
1.8399999999998138, -0.554882166139773 
1.8499999999998127, -0.5565608278511155 
1.8599999999998116, -0.558703543064697 
1.8699999999998105, -0.5613072851602113 
1.8799999999998094, -0.564296099674659 
1.8899999999998083, -0.567498374567583 
1.8999999999998072, -0.5706612911372326 
1.909999999999806, -0.5735169377121572 
1.919999999999805, -0.5758701195864632 
1.9299999999998039, -0.5776486408792663 
1.9399999999998028, -0.5788887594949264 
1.9499999999998017, -0.5796833548276659 
1.9599999999998006, -0.5801339504367201 
1.9699999999997995, -0.5803243688579439 
1.9799999999997984, -0.5803123193607744 
1.9899999999997973, -0.5801294948726415 
1.9999999999997962, -0.5797833879480703 
2.0099999999998173, -0.5792575397272837 
2.0199999999998384, -0.578509197720271 
2.0299999999998595, -0.5774651018765694 
2.0399999999998806, -0.5760188642711318 
2.0499999999999017, -0.5740383181301647 
2.059999999999923, -0.5713962624685498 
2.069999999999944, -0.568033095953785 
2.079999999999965, -0.5640311567948851 
2.089999999999986, -0.559642352857948 
2.100000000000007, -0.5552225756021067 
2.1100000000000283, -0.5511072634518096 
2.1200000000000494, -0.5475165421688459 
2.1300000000000705, -0.5445364046906869 
2.1400000000000916, -0.5421536818545253 
2.1500000000001127, -0.5403028601690263 
2.160000000000134, -0.5389011770614662 
2.170000000000155, -0.5378681205974725 
2.180000000000176, -0.537133736424952 
2.190000000000197, -0.5366408345716155 
2.2000000000002182, -0.5363445237640093 
2.2100000000002393, -0.5362108938771597 
2.2200000000002604, -0.5362156600564918 
2.2300000000002815, -0.536343059857415 
2.2400000000003026, -0.5365850295285637 
2.2500000000003237, -0.5369404848710504 
2.260000000000345, -0.5374142663669461 
2.270000000000366, -0.5380149532770775 
2.280000000000387, -0.5387504849777038 
2.290000000000408, -0.5396208174322917 
2.3000000000004293, -0.5406083347427897 
2.3100000000004504, -0.5416696319135633 
2.3200000000004715, -0.5427350370123312 
2.3300000000004926, -0.5437209207494658 
2.3400000000005137, -0.5445518449697785 
2.3500000000005348, -0.5451805057489494 
2.360000000000556, -0.5455939791169233 
2.370000000000577, -0.5458055415291224 
2.380000000000598, -0.545840335002286 
2.390000000000619, -0.5457229247885452 
2.4000000000006403, -0.5454695805187694 
2.4100000000006614, -0.5450841301050283 
2.4200000000006825, -0.544555019653831 
2.4300000000007036, -0.543851424841186 
2.4400000000007247, -0.5429166951342609 
2.450000000000746, -0.5416579698073314 
2.460000000000767, -0.539932745619389 
2.470000000000788, -0.5375396791969299 
2.480000000000809, -0.5342356371545184 
2.49000000000083, -0.5298165491056783 
2.5000000000008513, -0.5242758692706935 
2.5100000000008724, -0.5179496833741325 
2.5200000000008935, -0.5114732042765776 
2.5300000000009146, -0.5055173675897047 
2.5400000000009357, -0.5005221411408048 
2.550000000000957, -0.4966212755590698 
2.560000000000978, -0.49372953708532813 
2.570000000000999, -0.4916650940569558 
2.58000000000102, -0.49023374658051166 
2.5900000000010412, -0.4892678291549357 
2.6000000000010624, -0.48863665263876993 
2.6100000000010835, -0.48824405774062496 
2.6200000000011046, -0.4880219308641506 
2.6300000000011257, -0.48792359095270144 
2.6400000000011468, -0.4879184000590864 
2.650000000001168, -0.48798786257207694 
2.660000000001189, -0.4881230635592514 
2.67000000000121, -0.48832308533565894 
2.680000000001231, -0.4885937930431733 
2.6900000000012523, -0.48894604837527966 
2.7000000000012734, -0.489392188141096 
2.7100000000012945, -0.4899399166989279 
2.7200000000013156, -0.4905840584290756 
2.7300000000013367, -0.4912989157212534 
2.740000000001358, -0.4920361515253445 
2.750000000001379, -0.4927324919976881 
2.7600000000014, -0.4933260393746032 
2.770000000001421, -0.49377284369352265 
2.780000000001442, -0.4940543660781758 
2.7900000000014633, -0.4941735466896783 
2.8000000000014844, -0.494144617828873 
2.8100000000015055, -0.493982960744012 
2.8200000000015266, -0.4936979203903179 
2.8300000000015477, -0.49328819449998607 
2.840000000001569, -0.4927380035542612 
2.85000000000159, -0.4920120816943929 
2.860000000001611, -0.4910477622816008 
2.870000000001632, -0.48974318750724705 
2.8800000000016532, -0.4879436614271674 
2.8900000000016743, -0.4854370750384912 
2.9000000000016954, -0.48198609565094835 
2.9100000000017165, -0.47743319755879565 
2.9200000000017377, -0.4718655750031844 
2.9300000000017588, -0.46571038464564757 
2.94000000000178, -0.45961026645848246 
2.950000000001801, -0.45414260649695093 
2.960000000001822, -0.44962165438197815 
2.970000000001843, -0.44609512706705623 
2.9800000000018643, -0.4434501807734609 
2.9900000000018854, -0.44151764731531024 
3.0000000000019065, -0.440132940602134 
3.0100000000019276, -0.43916009071612183 
3.0200000000019487, -0.4384957982625508 
3.03000000000197, -0.4380655829462198 
3.040000000001991, -0.43781811415015504 
3.050000000002012, -0.43772015111712265 
3.060000000002033, -0.4377527960433505 
3.070000000002054, -0.4379090699800388 
3.0800000000020753, -0.4381925367326788 
3.0900000000020964, -0.438616472094744 
3.1000000000021175, -0.43920271660342936 
3.1100000000021386, -0.43997881557537033 
3.1200000000021597, -0.44097153888728535 
3.130000000002181, -0.44219503896786316 
3.140000000002202, -0.4436340373705633 
3.150000000002223, -0.44522774759144673 
3.160000000002244, -0.4468667610073343 
3.1700000000022652, -0.44841426491005737 
3.1800000000022863, -0.4497469100499732 
3.1900000000023074, -0.4507909951137391 
3.2000000000023285, -0.45153161604370845 
3.2100000000023496, -0.45199587039554767 
3.2200000000023707, -0.4522277590656395 
3.230000000002392, -0.45226897466882476 
3.240000000002413, -0.45214881352340397 
3.250000000002434, -0.4518801433325631 
3.260000000002455, -0.4514575959132608 
3.2700000000024763, -0.4508556349615648 
3.2800000000024974, -0.4500260536203231 
3.2900000000025185, -0.4488968898853195 
3.3000000000025396, -0.44737833419000417 
3.3100000000025607, -0.4453846438369185 
3.3200000000025818, -0.44287773267261565 
3.330000000002603, -0.43991871084069956 
3.340000000002624, -0.43668712116024444 
3.350000000002645, -0.4334346066435792 
3.360000000002666, -0.4303961064702727 
3.3700000000026873, -0.4277220615404955 
3.3800000000027084, -0.42546629708779626 
3.3900000000027295, -0.4236134171331319 
3.4000000000027506, -0.42211430071010303 
3.4100000000027717, -0.42091212493737695 
3.420000000002793, -0.41995633999054 
3.430000000002814, -0.4192082442224264 
3.440000000002835, -0.4186422414994245 
3.450000000002856, -0.4182455440296596 
3.460000000002877, -0.41801783705583356 
3.4700000000028983, -0.4179716442088145 
3.4800000000029194, -0.4181337214115544 
3.4900000000029405, -0.4185475477212647 
3.5000000000029616, -0.4192766174321264 
3.5100000000029827, -0.4204074165770252 
3.520000000003004, -0.42204917463998476 
3.530000000003025, -0.42432422403146663 
3.540000000003046, -0.4273387565898628 
3.550000000003067, -0.431124031711426 
3.5600000000030882, -0.43555539908749835 
3.5700000000031094, -0.4402996045265171 
3.5800000000031305, -0.44487223297079687 
3.5900000000031516, -0.44881997687897035 
3.6000000000031727, -0.45189967642190404 
3.6100000000031938, -0.4541120583527422 
3.620000000003215, -0.45560547257907535 
3.630000000003236, -0.45656341650756394 
3.640000000003257, -0.4571419202967862 
3.650000000003278, -0.4574528493764295 
3.6600000000032993, -0.45756852566320927 
3.6700000000033204, -0.45753118113482943 
3.6800000000033415, -0.4573609546400273 
3.6900000000033626, -0.4570614711460851 
3.7000000000033837, -0.4566241016621951 
3.710000000003405, -0.45603280186260076 
3.720000000003426, -0.45527156498855365 
3.730000000003447, -0.4543353149995194 
3.740000000003468, -0.453241622768064 
3.750000000003489, -0.45203643713976077 
3.7600000000035103, -0.4507872652226488 
3.7700000000035314, -0.4495650918479341 
3.7800000000035525, -0.4484252428698811 
3.7900000000035736, -0.4473974336787904 
3.8000000000035947, -0.44648723750321845 
3.810000000003616, -0.4456843662609546 
3.820000000003637, -0.4449720533676224 
3.830000000003658, -0.44433418846671824 
3.840000000003679, -0.4437594584924424 
3.8500000000037002, -0.44324329292800835 
3.8600000000037213, -0.4427888951112874 
3.8700000000037424, -0.44240850012976674 
3.8800000000037635, -0.44212568342663594 
3.8900000000037847, -0.4419793086347298 
3.9000000000038058, -0.4420295505961242 
3.910000000003827, -0.4423661148935959 
3.920000000003848, -0.44311771849415954 
3.930000000003869, -0.44445894827470384 
3.94000000000389, -0.4466040435363826 
3.9500000000039113, -0.4497665555709924 
3.9600000000039324, -0.4540580396842584 
3.9700000000039535, -0.45932906956095954 
3.9800000000039746, -0.46505572362174064 
3.9900000000039957, -0.4704604653389873 
4.000000000004016, -0.47488795353407065 
4.010000000003993, -0.4781096045752383 
4.02000000000397, -0.4802808739389747 
4.030000000003946, -0.4816982009655872 
4.040000000003923, -0.4826215955573332 
4.0500000000039, -0.48322585312116645 
4.0600000000038765, -0.4836161216693669 
4.070000000003853, -0.4838537028149318 
4.08000000000383, -0.48397429582582563 
4.090000000003807, -0.4839981888142568 
4.100000000003783, -0.48393551860294115 
4.11000000000376, -0.48378917785517217 
4.120000000003737, -0.48355707363034484 
4.130000000003713, -0.4832349282771145 
4.14000000000369, -0.4828203447841489 
4.150000000003667, -0.48231790127327 
4.1600000000036434, -0.4817434611858036 
4.17000000000362, -0.4811247148132464 
4.180000000003597, -0.48049604583294026 
4.1900000000035735, -0.4798893542863459 
4.20000000000355, -0.4793255097772052 
4.210000000003527, -0.47881063884199176 
4.220000000003504, -0.4783381797131095 
4.23000000000348, -0.47789458360353565 
4.240000000003457, -0.4774654959364084 
4.250000000003434, -0.4770400969430598 
4.26000000000341, -0.4766129947164807 
4.270000000003387, -0.4761844827752194 
4.280000000003364, -0.47576047807034516 
4.2900000000033405, -0.4753532407154653 
4.300000000003317, -0.4749835878906518 
4.310000000003294, -0.47468507255691444 
4.320000000003271, -0.47451043844796 
4.330000000003247, -0.47454017481420446 
4.340000000003224, -0.47489132146002067 
4.350000000003201, -0.4757203265372832 
4.360000000003177, -0.4772052881129353 
4.370000000003154, -0.4794835077648637 
4.380000000003131, -0.48252974616090344 
4.390000000003107, -0.4860277653251791 
4.400000000003084, -0.4893950393034531 
4.410000000003061, -0.49206962164970786 
4.4200000000030375, -0.49384059590896756 
4.430000000003014, -0.49487210073853005 
4.440000000002991, -0.4954610727382479 
4.450000000002968, -0.49583548443972286 
4.460000000002944, -0.496110991080299 
4.470000000002921, -0.4963289258978433 
4.480000000002898, -0.4964979031216317 
4.490000000002874, -0.4966167042726476 
4.500000000002851, -0.4966827834258242 
4.510000000002828, -0.4966939611334995 
4.520000000002804, -0.49664788304103025 
4.530000000002781, -0.49654131698243686 
4.540000000002758, -0.4963701908415067 
4.5500000000027345, -0.49613084703313814 
4.560000000002711, -0.4958226544081062 
4.570000000002688, -0.4954513991276165 
4.580000000002665, -0.49503178069996423 
4.590000000002641, -0.4945867474406328 
4.600000000002618, -0.49414256027985004 
4.610000000002595, -0.49372122187603595 
4.620000000002571, -0.4933340122536175 
4.630000000002548, -0.4929793490722802 
4.640000000002525, -0.49264559408430414 
4.6500000000025015, -0.4923168366697193 
4.660000000002478, -0.49197864051165574 
4.670000000002455, -0.491621556458503 
4.6800000000024315, -0.491242032651298 
4.690000000002408, -0.49084181348980127 
4.700000000002385, -0.490427290537143 
4.710000000002362, -0.4900098833769132 
4.720000000002338, -0.489608054715082 
4.730000000002315, -0.48925131425121754 
4.740000000002292, -0.4889863962862795 
4.750000000002268, -0.4888852019106171 
4.760000000002245, -0.489052124082692 
4.770000000002222, -0.4896235359823561 
4.7800000000021985, -0.4907437419820429 
4.790000000002175, -0.49249546876248107 
4.800000000002152, -0.49478326406312023 
4.810000000002129, -0.49724712016005057 
4.820000000002105, -0.4993631012511576 
4.830000000002082, -0.5007546255715918 
4.840000000002059, -0.5014210950767841 
4.850000000002035, -0.501633697064349 
4.860000000002012, -0.5016760107971318 
4.870000000001989, -0.5017070999063841 
4.880000000001965, -0.5017733444897705 
4.890000000001942, -0.5018656358124647 
4.900000000001919, -0.5019603058340815 
