t, s[1].omega / s[0].omega 
0, -1.749997016371098 
0.009999999999999995, -1.7495932184942355 
0.019999999999999934, -1.748981588803878 
0.029999999999999874, -1.7481712504720828 
0.04000000000000012, -1.7471992796358375 
0.050000000000000405, -1.7461607389934646 
0.06000000000000069, -1.7452218359282394 
0.07000000000000098, -1.744557080051593 
0.08000000000000126, -1.7442156134078666 
0.09000000000000155, -1.7440791643105853 
0.10000000000000184, -1.7439798697013227 
0.11000000000000212, -1.7438059758788977 
0.12000000000000241, -1.7435039179672291 
0.130000000000002, -1.7430416306376944 
0.1400000000000009, -1.7423927022761323 
0.1499999999999998, -1.7415697139904656 
0.1599999999999987, -1.7407261428671905 
0.1699999999999976, -1.7402458734926554 
0.1799999999999965, -1.7405427900110357 
0.1899999999999954, -1.7415957614199293 
0.1999999999999943, -1.7429233345503021 
0.2099999999999932, -1.7440582051467328 
0.2199999999999921, -1.7448055470184056 
0.229999999999991, -1.7451683182277211 
0.2399999999999899, -1.7452186140943866 
0.2499999999999888, -1.7450311172867157 
0.2599999999999877, -1.7446661889664767 
0.2699999999999866, -1.744176062358753 
0.2799999999999855, -1.74361784147988 
0.2899999999999844, -1.7430607181130628 
0.2999999999999833, -1.7425776798881856 
0.3099999999999822, -1.7422205059511682 
0.3199999999999811, -1.7419895409689485 
0.32999999999998, -1.741827644932361 
0.3399999999999789, -1.7416525671765573 
0.3499999999999778, -1.7413906170257494 
0.35999999999997667, -1.7409784713489072 
0.36999999999997557, -1.7403437061125604 
0.37999999999997447, -1.7393896140095386 
0.38999999999997337, -1.7380172042449769 
0.39999999999997227, -1.7362441354326628 
0.40999999999997117, -1.7344396438913492 
0.41999999999997006, -1.7333667545273648 
0.42999999999996896, -1.7335358675054153 
0.43999999999996786, -1.7345655467234606 
0.44999999999996676, -1.735683932699119 
0.45999999999996566, -1.73645683191194 
0.46999999999996456, -1.7368269087016621 
0.47999999999996346, -1.7368798238706358 
0.48999999999996235, -1.7367092019717152 
0.49999999999996125, -1.7363864552515178 
0.5099999999999602, -1.7359739394643126 
0.519999999999959, -1.7355458342063876 
0.529999999999958, -1.7351889202138235 
0.5399999999999568, -1.7349671885868712 
0.5499999999999557, -1.7348827160934128 
0.5599999999999546, -1.73488005759251 
0.5699999999999535, -1.7348817067640627 
0.5799999999999524, -1.7348165110362417 
0.5899999999999513, -1.7346283246115775 
0.5999999999999502, -1.7342692630390748 
0.6099999999999491, -1.7336876264011376 
0.619999999999948, -1.7328214343769492 
0.6299999999999469, -1.73160972465881 
0.6399999999999458, -1.7300403871886005 
0.6499999999999447, -1.7282480597139038 
0.6599999999999436, -1.7265965168434512 
0.6699999999999425, -1.7255351922434303 
0.6799999999999414, -1.7252033306869936 
0.6899999999999403, -1.7253106478333908 
0.6999999999999392, -1.7254859516688856 
0.7099999999999381, -1.7255360591405395 
0.719999999999937, -1.7254174396344328 
0.7299999999999359, -1.7251409741685375 
0.7399999999999348, -1.7247277711080975 
0.7499999999999337, -1.7242161212650533 
0.7599999999999326, -1.723701180615151 
0.7699999999999315, -1.723360717649965 
0.7799999999999304, -1.723374819395303 
0.7899999999999293, -1.7237600910906377 
0.7999999999999282, -1.7243402265589876 
0.8099999999999271, -1.724897615250465 
0.819999999999926, -1.7252930773774195 
0.8299999999999249, -1.7254724812542335 
0.8399999999999238, -1.7254291783350943 
0.8499999999999227, -1.7251736690930866 
0.8599999999999216, -1.7247198401644652 
0.8699999999999205, -1.7240845030737408 
0.8799999999999194, -1.7232976212298392 
0.8899999999999183, -1.722420647232493 
0.8999999999999172, -1.721562168688744 
0.9099999999999161, -1.7208609927368623 
0.919999999999915, -1.7204101939457423 
0.9299999999999139, -1.7201802626156684 
0.9399999999999128, -1.7200478541660402 
0.9499999999999117, -1.7198915516039333 
0.9599999999999106, -1.7196357293279967 
0.9699999999999095, -1.7192330655865675 
0.9799999999999084, -1.7186381634416912 
0.9899999999999073, -1.7178080479191364 
0.9999999999999062, -1.7167628443873337 
1.0099999999999052, -1.7157290074404319 
1.019999999999904, -1.7152198408536488 
1.029999999999903, -1.7156919317686554 
1.039999999999902, -1.7169888915712235 
1.0499999999999008, -1.718479298949299 
1.0599999999998997, -1.7196659076420997 
1.0699999999998986, -1.7203966960751067 
1.0799999999998975, -1.7207202656722493 
1.0899999999998964, -1.7207356455227523 
1.0999999999998953, -1.7205297477449395 
1.1099999999998942, -1.7201689184554414 
1.119999999999893, -1.719711090231316 
1.129999999999892, -1.7192194761023571 
1.1399999999998909, -1.7187631517271444 
1.1499999999998898, -1.7183993964288455 
1.1599999999998887, -1.718150608870911 
1.1699999999998876, -1.7179928288825184 
1.1799999999998865, -1.7178654248261354 
1.1899999999998854, -1.7176970107041367 
1.1999999999998843, -1.7174234790131746 
1.2099999999998832, -1.7169837979048033 
1.219999999999882, -1.7163033723983125 
1.229999999999881, -1.7152829721572573 
1.2399999999998799, -1.7138187655303376 
1.2499999999998788, -1.7118993681923047 
1.2599999999998777, -1.7098009960225542 
1.2699999999998766, -1.7081758351620486 
1.2799999999998755, -1.7076107536404688 
1.2899999999998744, -1.7079878609761359 
1.2999999999998733, -1.7086834226592096 
1.3099999999998722, -1.7092284407489202 
1.319999999999871, -1.7094856804869951 
1.32999999999987, -1.7094849406640384 
1.3399999999998689, -1.7092886256409305 
1.3499999999998678, -1.708950675719969 
1.3599999999998666, -1.7085251380100879 
1.3699999999998655, -1.7080910300682093 
1.3799999999998644, -1.7077590878804234 
1.3899999999998633, -1.7076239238906479 
1.3999999999998622, -1.7076922032749278 
1.4099999999998611, -1.7078784700690732 
1.41999999999986, -1.7080695774678258 
1.429999999999859, -1.7081764929249903 
1.4399999999998578, -1.7081440996678157 
1.4499999999998567, -1.7079394715108158 
1.4599999999998556, -1.7075380539066516 
1.4699999999998545, -1.7069163109161418 
1.4799999999998534, -1.7060547766396934 
1.4899999999998523, -1.7049561373221571 
1.4999999999998512, -1.703682819677519 
1.5099999999998501, -1.7024003807994297 
1.519999999999849, -1.7013604896285237 
1.529999999999848, -1.7007504578434258 
1.5399999999998468, -1.7005300036913287 
1.5499999999998457, -1.7004897516231243 
1.5599999999998446, -1.7004397248255212 
1.5699999999998435, -1.7002856310754217 
1.5799999999998424, -1.6999945493673043 
1.5899999999998413, -1.6995519448865934 
1.5999999999998402, -1.6989528126175952 
1.6099999999998391, -1.6982389487818927 
1.619999999999838, -1.6975798608495345 
1.629999999999837, -1.6973023297977659 
1.6399999999998358, -1.6976840166054317 
1.6499999999998347, -1.6986421573347368 
1.6599999999998336, -1.699788995466638 
1.6699999999998325, -1.700770431884011 
1.6799999999998314, -1.7014292766063324 
1.6899999999998303, -1.701754797026767 
1.6999999999998292, -1.7017950381261493 
1.709999999999828, -1.7016068381532214 
1.719999999999827, -1.7012398841997396 
1.729999999999826, -1.70073929663488 
1.7399999999998248, -1.7001559301812894 
1.7499999999998237, -1.6995548226667938 
1.7599999999998226, -1.6990117877374744 
1.7699999999998215, -1.6985917827735704 
1.7799999999998204, -1.6983145187659345 
1.7899999999998193, -1.698136695617395 
1.7999999999998182, -1.697977340903876 
1.809999999999817, -1.6977582599406849 
1.819999999999816, -1.6974165541082453 
1.8299999999998149, -1.6968896162190679 
1.8399999999998138, -1.6960960546712012 
1.8499999999998127, -1.6949370982904601 
1.8599999999998116, -1.6933600123227919 
1.8699999999998105, -1.6915340868694968 
1.8799999999998094, -1.6900329079169942 
1.8899999999998083, -1.68956931063857 
1.8999999999998072, -1.6902385273413412 
1.909999999999806, -1.6914013235321057 
1.919999999999805, -1.6924152568070643 
1.9299999999998039, -1.6930369327075296 
1.9399999999998028, -1.6932883522473496 
1.9499999999998017, -1.6932628656262438 
1.9599999999998006, -1.693043285961141 
1.9699999999997995, -1.6926927671363967 
1.9799999999997984, -1.6922722984799148 
1.9899999999997973, -1.6918586970902048 
1.9999999999997962, -1.6915379111667845 
2.0099999999998173, -1.6913647705716213 
2.0199999999998384, -1.691328701130563 
2.0299999999998595, -1.6913659104318868 
2.0399999999998806, -1.6913971454473344 
2.0499999999999017, -1.6913539434556448 
2.059999999999923, -1.6911845448241987 
2.069999999999944, -1.690846653604752 
2.079999999999965, -1.690297199169628 
2.089999999999986, -1.6894879336835031 
2.100000000000007, -1.6883751627580506 
2.1100000000000283, -1.686954998816717 
2.1200000000000494, -1.6853314819636747 
2.1300000000000705, -1.6837780662074757 
2.1400000000000916, -1.6826594433346134 
2.1500000000001127, -1.682155882247495 
2.160000000000134, -1.6821025123765914 
2.170000000000155, -1.682191255635947 
2.180000000000176, -1.6822154572987944 
2.190000000000197, -1.682101449283257 
2.2000000000002182, -1.681839191437461 
2.2100000000002393, -1.6814340599361066 
2.2200000000002604, -1.6809023923981226 
2.2300000000002815, -1.6803065517313698 
2.2400000000003026, -1.679809382702898 
2.2500000000003237, -1.6796594575464596 
2.260000000000345, -1.6800137647940059 
2.270000000000366, -1.6807630392945228 
2.280000000000387, -1.6816224364816592 
2.290000000000408, -1.682348694392216 
2.3000000000004293, -1.6828271990745638 
2.3100000000004504, -1.683038453405342 
2.3200000000004715, -1.6830053078264164 
2.3300000000004926, -1.6827612811203156 
2.3400000000005137, -1.6823393092157157 
2.3500000000005348, -1.6817735857540241 
2.360000000000556, -1.6811088914567247 
2.370000000000577, -1.6804108915071931 
2.380000000000598, -1.6797666830718243 
2.390000000000619, -1.6792616934551083 
2.4000000000006403, -1.6789325960300592 
2.4100000000006614, -1.6787372735303667 
2.4200000000006825, -1.6785841279454154 
2.4300000000007036, -1.6783855577807543 
2.4400000000007247, -1.6780773243251925 
2.450000000000746, -1.6776035244182168 
2.460000000000767, -1.676895989659649 
2.470000000000788, -1.675873085177661 
2.480000000000809, -1.674494042975029 
2.49000000000083, -1.6729145176542068 
2.5000000000008513, -1.6716572149471556 
2.5100000000008724, -1.6713938582701702 
2.5200000000008935, -1.6722455411424257 
2.5300000000009146, -1.6736080721157733 
2.5400000000009357, -1.6748215056384113 
2.550000000000957, -1.6756098331841216 
2.560000000000978, -1.6759836925681473 
2.570000000000999, -1.6760427980209662 
2.58000000000102, -1.6758808006773982 
2.5900000000010412, -1.6755676776582036 
2.6000000000010624, -1.6751628061681807 
2.6100000000010835, -1.6747332318009556 
2.6200000000011046, -1.674356885987025 
2.6300000000011257, -1.6740973657318416 
2.6400000000011468, -1.6739700227371206 
2.650000000001168, -1.6739368485400878 
2.660000000001189, -1.6739308165785622 
2.67000000000121, -1.6738828043886174 
2.680000000001231, -1.6737351510677272 
2.6900000000012523, -1.6734402183460542 
2.7000000000012734, -1.672950839387307 
2.7100000000012945, -1.6722124771283595 
2.7200000000013156, -1.67116653649714 
2.7300000000013367, -1.6697770291508558 
2.740000000001358, -1.668094766116085 
2.750000000001379, -1.6663442373537563 
2.7600000000014, -1.6649200188516082 
2.770000000001421, -1.6641450856430453 
2.780000000001442, -1.6639789055554164 
2.7900000000014633, -1.6640991718186595 
2.8000000000014844, -1.6642169703869651 
2.8100000000015055, -1.6642041834869918 
2.8200000000015266, -1.6640361662749732 
2.8300000000015477, -1.6637208110988577 
2.840000000001569, -1.663272286167891 
2.85000000000159, -1.6627251753885712 
2.860000000001611, -1.662178554680142 
2.870000000001632, -1.6618271074220519 
2.8800000000016532, -1.6618814803966095 
2.8900000000016743, -1.662382270678907 
2.9000000000016954, -1.663141376712208 
2.9100000000017165, -1.6639006293477336 
2.9200000000017377, -1.6644851678772028 
2.9300000000017588, -1.664826764888414 
2.94000000000178, -1.6649222861411386 
2.950000000001801, -1.6647945671156077 
2.960000000001822, -1.6644721390138386 
2.970000000001843, -1.6639840105640276 
2.9800000000018643, -1.663364366229389 
2.9900000000018854, -1.662662747844795 
3.0000000000019065, -1.66195264844918 
3.0100000000019276, -1.6613261708286586 
3.0200000000019487, -1.6608614631029064 
3.03000000000197, -1.6605736265233104 
3.040000000001991, -1.6604003703998653 
3.050000000002012, -1.6602458906534636 
3.060000000002033, -1.6600289785332152 
3.070000000002054, -1.6596907420082931 
3.0800000000020753, -1.6591755496072351 
3.0900000000020964, -1.6584130275378357 
3.1000000000021175, -1.6573245694291383 
3.1100000000021386, -1.655892556944305 
3.1200000000021597, -1.6543272868431385 
3.130000000002181, -1.6531982194002393 
3.140000000002202, -1.6531218245514374 
3.150000000002223, -1.654090057318383 
3.160000000002244, -1.6554575156012494 
3.1700000000022652, -1.656619725407415 
3.1800000000022863, -1.6573533314452031 
3.1900000000023074, -1.6576872374267904 
3.2000000000023285, -1.657721015835104 
3.2100000000023496, -1.657544021819641 
3.2200000000023707, -1.6572230114101736 
3.230000000002392, -1.6568161902659402 
3.240000000002413, -1.6563909084028268 
3.250000000002434, -1.6560254322924166 
3.260000000002455, -1.6557822741347288 
3.2700000000024763, -1.6556741552253214 
3.2800000000024974, -1.655660212846675 
3.2900000000025185, -1.6556718544546922 
3.3000000000025396, -1.6556400537049165 
3.3100000000025607, -1.6555083344067736 
3.3200000000025818, -1.655231152789416 
3.330000000002603, -1.6547649919240233 
3.340000000002624, -1.654061302092238 
3.350000000002645, -1.6530693633827582 
3.360000000002666, -1.6517586124519994 
3.3700000000026873, -1.650171310956026 
3.3800000000027084, -1.6484955346401644 
3.3900000000027295, -1.6470738216764598 
3.4000000000027506, -1.6462191727345197 
3.4100000000027717, -1.6459484724721052 
3.420000000002793, -1.6459970013292597 
3.430000000002814, -1.6460853492590382 
3.440000000002835, -1.646069313981317 
3.450000000002856, -1.6459092662988255 
3.460000000002877, -1.645604119889276 
3.4700000000028983, -1.64516021293766 
3.4800000000029194, -1.6445990417752223 
3.4900000000029405, -1.6439996536985944 
3.5000000000029616, -1.6435481038002713 
3.5100000000029827, -1.643495935872527 
3.520000000003004, -1.6439653768082088 
3.530000000003025, -1.6448073817757396 
3.540000000003046, -1.6457263648636904 
3.550000000003067, -1.6464880672947992 
3.5600000000030882, -1.6469885449645236 
3.5700000000031094, -1.6472156687397366 
3.5800000000031305, -1.647197474168181 
3.5900000000031516, -1.646971707312836 
3.6000000000031727, -1.6465749883839904 
3.6100000000031938, -1.6460443739706807 
3.620000000003215, -1.6454254700761912 
3.630000000003236, -1.6447803352591237 
3.640000000003257, -1.644185977097235 
3.650000000003278, -1.6437146619012277 
3.6600000000032993, -1.6433979497002398 
3.6700000000033204, -1.6432027258463378 
3.6800000000033415, -1.6430507818848699 
3.6900000000033626, -1.6428613652416793 
3.7000000000033837, -1.6425709610796873 
3.710000000003405, -1.6421231868629733 
3.720000000003426, -1.6414494411785927 
3.730000000003447, -1.640460313265446 
3.740000000003468, -1.639074496480769 
3.750000000003489, -1.6373305234665092 
3.7600000000035103, -1.6355769445357176 
3.7700000000035314, -1.6344851953303992 
3.7800000000035525, -1.6345322954104968 
3.7900000000035736, -1.6354582837294693 
3.8000000000035947, -1.636584455857415 
3.810000000003616, -1.637446252876456 
3.820000000003637, -1.6379266305139066 
3.830000000003658, -1.6380806494133462 
3.840000000003679, -1.637994949750545 
3.8500000000037002, -1.6377399962409906 
3.8600000000037213, -1.6373715061590162 
3.8700000000037424, -1.6369492122002511 
3.8800000000037635, -1.6365526010576492 
3.8900000000037847, -1.6362696995196941 
3.9000000000038058, -1.636152822862219 
3.910000000003827, -1.6361841175776763 
3.920000000003848, -1.6362913873485099 
3.930000000003869, -1.6363901539146533 
3.94000000000389, -1.6364113679613947 
3.9500000000039113, -1.636306654195927 
3.9600000000039324, -1.6360412488934064 
3.9700000000039535, -1.635585124180923 
3.9800000000039746, -1.6349090112552556 
3.9900000000039957, -1.6339896276166255 
4.000000000004016, -1.6328287182455292 
4.010000000003993, -1.631489098229176 
4.02000000000397, -1.630133593671351 
4.030000000003946, -1.6290089640526717 
4.040000000003923, -1.6283120766394625 
4.0500000000039, -1.6280323780071246 
4.0600000000038765, -1.6279796495721457 
4.070000000003853, -1.6279554898655082 
4.08000000000383, -1.6278484191539864 
4.090000000003807, -1.627615912641454 
4.100000000003783, -1.6272406911923394 
4.11000000000376, -1.62670967324752 
4.120000000003737, -1.6260270906814522 
4.130000000003713, -1.6252709912101249 
4.14000000000369, -1.624672167506559 
4.150000000003667, -1.6245841807128525 
4.1600000000036434, -1.6252140272970679 
4.17000000000362, -1.6263760324131251 
4.180000000003597, -1.6276484032637408 
4.1900000000035735, -1.6286983410408762 
4.20000000000355, -1.6293956601480275 
4.210000000003527, -1.6297472710371117 
4.220000000003504, -1.6298120430167002 
4.23000000000348, -1.6296540240538882 
4.240000000003457, -1.629327975892242 
4.250000000003434, -1.6288822447948372 
4.26000000000341, -1.6283681546394615 
4.270000000003387, -1.6278462158575884 
4.280000000003364, -1.6273804462520434 
4.2900000000033405, -1.627020048023044 
4.300000000003317, -1.6267780613733973 
4.310000000003294, -1.6266221973072816 
4.320000000003271, -1.6264891374971413 
4.330000000003247, -1.626311034001073 
4.340000000003224, -1.626028963926792 
4.350000000003201, -1.6255863174134633 
4.360000000003177, -1.6249138460628898 
4.370000000003154, -1.623920904946446 
4.380000000003131, -1.622511849286246 
4.390000000003107, -1.6206601563682355 
4.400000000003084, -1.6185584964037993 
4.410000000003061, -1.6167238963119455 
4.4200000000030375, -1.615749330065284 
4.430000000003014, -1.6157554934187761 
4.440000000002991, -1.616299537643051 
4.450000000002968, -1.6168735785953108 
4.460000000002944, -1.617232408353124 
4.470000000002921, -1.617341765435333 
4.480000000002898, -1.6172431095950421 
4.490000000002874, -1.6169839194634945 
4.500000000002851, -1.6166049582080197 
4.510000000002828, -1.616156335651755 
4.520000000002804, -1.6157232843413873 
4.530000000002781, -1.6154299520620643 
4.540000000002758, -1.6153837941102434 
4.5500000000027345, -1.6155926733931387 
4.560000000002711, -1.615955104003659 
4.570000000002688, -1.6163337880073079 
4.580000000002665, -1.6166220081976033 
4.590000000002641, -1.616759700563921 
4.600000000002618, -1.6167207680458062 
4.610000000002595, -1.6164968761665661 
4.620000000002571, -1.6160874209655998 
4.630000000002548, -1.6154971149621304 
4.640000000002525, -1.6147410324835438 
4.6500000000025015, -1.6138568291315436 
4.660000000002478, -1.6129204421894099 
4.670000000002455, -1.6120506446809588 
4.6800000000024315, -1.6113755636618865 
4.690000000002408, -1.610957838331156 
4.700000000002385, -1.6107470630105678 
4.710000000002362, -1.6106238851462895 
4.720000000002338, -1.6104790789266867 
4.730000000002315, -1.6102439062978355 
4.740000000002292, -1.6098739648147795 
4.750000000002268, -1.609325157546054 
4.760000000002245, -1.608545369237082 
4.770000000002222, -1.6075022877663296 
4.7800000000021985, -1.6062778560250073 
4.790000000002175, -1.605207821288829 
4.800000000002152, -1.6048448825403892 
4.810000000002129, -1.6055110870701355 
4.820000000002105, -1.6069028689462392 
4.830000000002082, -1.6083912733708599 
4.840000000002059, -1.6095453603849446 
4.850000000002035, -1.610251910328681 
4.860000000002012, -1.6105696482478393 
4.870000000001989, -1.6105971351672284 
4.880000000001965, -1.6104187610391132 
4.890000000001942, -1.6100982748799701 
4.900000000001919, -1.6096909969114557 
4.9100000000018955, -1.6092583496071253 
4.920000000001872, -1.6088701520983164 
4.930000000001849, -1.6085853191384154 
4.940000000001826, -1.608424538210274 
