t, s[1].omega / s[0].omega 
0, -1.609997138762798 
0.009999999999999995, -1.6096113755360275 
0.019999999999999934, -1.6090308129701405 
0.029999999999999874, -1.6082667342941683 
0.04000000000000012, -1.6073508726118155 
0.050000000000000405, -1.6063528753353187 
0.06000000000000069, -1.6053916612632324 
0.07000000000000098, -1.6046122428767213 
0.08000000000000126, -1.6041097179498371 
0.09000000000000155, -1.603857991963281 
0.10000000000000184, -1.6037350068126108 
0.11000000000000212, -1.6036129746091583 
0.12000000000000241, -1.603407700199461 
0.130000000000002, -1.6030677216082427 
0.1400000000000009, -1.6025457954915818 
0.1499999999999998, -1.6017827268850762 
0.1599999999999987, -1.600724018915385 
0.1699999999999976, -1.5994050851052688 
0.1799999999999965, -1.5981176823469647 
0.1899999999999954, -1.5974723449551749 
0.1999999999999943, -1.5979905904843197 
0.2099999999999932, -1.5995043438697112 
0.2199999999999921, -1.6012982009680503 
0.229999999999991, -1.6027776892467056 
0.2399999999999899, -1.603740733105886 
0.2499999999999888, -1.6042338425457525 
0.2599999999999877, -1.6043737359577386 
0.2699999999999866, -1.60426516124862 
0.2799999999999855, -1.6039853169141902 
0.2899999999999844, -1.6035954113138284 
0.2999999999999833, -1.6031585252994769 
0.3099999999999822, -1.6027483438032395 
0.3199999999999811, -1.6024348782978795 
0.32999999999998, -1.602253816900003 
0.3399999999999789, -1.6021899361657124 
0.3499999999999778, -1.602189040738812 
0.35999999999997667, -1.6021826110947077 
0.36999999999997557, -1.6021071236046474 
0.37999999999997447, -1.6019102584714755 
0.38999999999997337, -1.6015455955494158 
0.39999999999997227, -1.6009637974690336 
0.40999999999997117, -1.6001087412115578 
0.41999999999997006, -1.598926373287871 
0.42999999999996896, -1.5973963208847028 
0.43999999999996786, -1.5955944593875482 
0.44999999999996676, -1.5937627168820097 
0.45999999999996566, -1.592282267796218 
0.46999999999996456, -1.591446329644595 
0.47999999999996346, -1.5912149771795085 
0.48999999999996235, -1.5912907166606993 
0.49999999999996125, -1.5913934549055175 
0.5099999999999602, -1.591385048091527 
0.519999999999959, -1.591227643422792 
0.529999999999958, -1.5909180379731622 
0.5399999999999568, -1.5904571394006073 
0.5499999999999557, -1.5898565753991343 
0.5599999999999546, -1.5891828109527841 
0.5699999999999535, -1.58862416177408 
0.5799999999999524, -1.5884867310273276 
0.5899999999999513, -1.5889973040302443 
0.5999999999999502, -1.5900641782079326 
0.6099999999999491, -1.591336033860731 
0.619999999999948, -1.5924748593983042 
0.6299999999999469, -1.5933060356331215 
0.6399999999999458, -1.59379556112774 
0.6499999999999447, -1.5939789112011409 
0.6599999999999436, -1.5939111298120319 
0.6699999999999425, -1.5936449324841684 
0.6799999999999414, -1.593227057302592 
0.6899999999999403, -1.5927043289140963 
0.6999999999999392, -1.5921320459416552 
0.7099999999999381, -1.591576154587055 
0.719999999999937, -1.591102736695221 
0.7299999999999359, -1.5907560360722408 
0.7399999999999348, -1.5905358855895673 
0.7499999999999337, -1.5903939695936384 
0.7599999999999326, -1.59025725542095 
0.7699999999999315, -1.590055763517499 
0.7799999999999304, -1.5897294602907381 
0.7899999999999293, -1.5892158125172096 
0.7999999999999282, -1.588432835231183 
0.8099999999999271, -1.5872722495065292 
0.819999999999926, -1.5856254278581214 
0.8299999999999249, -1.5834812483978276 
0.8399999999999238, -1.581105753329602 
0.8499999999999227, -1.579129644627171 
0.8599999999999216, -1.5781948748632955 
0.8699999999999205, -1.5783450600336852 
0.8799999999999194, -1.5790328731706906 
0.8899999999999183, -1.579708330997245 
0.8999999999999172, -1.5801297029309669 
0.9099999999999161, -1.5802757589139111 
0.919999999999915, -1.5801975332679743 
0.9299999999999139, -1.5799475618702623 
0.9399999999999128, -1.5795682831738864 
0.9499999999999117, -1.5791095596706082 
0.9599999999999106, -1.5786580705567517 
0.9699999999999095, -1.5783485923118412 
0.9799999999999084, -1.5783123131476897 
0.9899999999999073, -1.5785799352255894 
0.9999999999999062, -1.5790508361960371 
1.0099999999999052, -1.579567465722023 
1.019999999999904, -1.5799996077063074 
1.029999999999903, -1.5802722047348783 
1.039999999999902, -1.580353852153269 
1.0499999999999008, -1.58023756204696 
1.0599999999998997, -1.5799273659770523 
1.0699999999998986, -1.5794327506256438 
1.0799999999998975, -1.5787701208062823 
1.0899999999998964, -1.577970556340175 
1.0999999999998953, -1.5770917601112715 
1.1099999999998942, -1.5762264797898289 
1.119999999999893, -1.5754901887018495 
1.129999999999892, -1.5749724855555063 
1.1399999999998909, -1.5746777877366678 
1.1499999999998898, -1.5745219608469416 
1.1599999999998887, -1.574393070302572 
1.1699999999998876, -1.5742037950387786 
1.1799999999998865, -1.5738956682822196 
1.1899999999998854, -1.5734168783692537 
1.1999999999998843, -1.5727012869676114 
1.2099999999998832, -1.5716660497505686 
1.219999999999882, -1.5702559219190406 
1.229999999999881, -1.5685766867151227 
1.2399999999998799, -1.5670763361712416 
1.2499999999998788, -1.5664630770589045 
1.2599999999998777, -1.567102992123912 
1.2699999999998766, -1.5685797516028361 
1.2799999999998755, -1.5701420321344364 
1.2899999999998744, -1.5713220303931636 
1.2999999999998733, -1.5720225832147245 
1.3099999999998722, -1.5723238409073692 
1.319999999999871, -1.5723356084999287 
1.32999999999987, -1.5721453266987924 
1.3399999999998689, -1.5718169284453516 
1.3499999999998678, -1.5714081361290981 
1.3599999999998666, -1.5709894893803333 
1.3699999999998655, -1.5706469833652563 
1.3799999999998644, -1.5704532363082213 
1.3899999999998633, -1.5704261840717415 
1.3999999999998622, -1.570520167893736 
1.4099999999998611, -1.5706561227297926 
1.41999999999986, -1.570756125696294 
1.429999999999859, -1.5707598988898157 
1.4399999999998578, -1.5706248580736673 
1.4499999999998567, -1.5703188590571329 
1.4599999999998556, -1.5698135474510793 
1.4699999999998545, -1.5690830414889492 
1.4799999999998534, -1.5681108630927028 
1.4899999999998523, -1.5669081552394988 
1.4999999999998512, -1.5655441468503835 
1.5099999999998501, -1.5641752013171295 
1.519999999999849, -1.5630265426996544 
1.529999999999848, -1.5622805367647468 
1.5399999999998468, -1.561942700987742 
1.5499999999998457, -1.5618508614695819 
1.5599999999998446, -1.5618156990306709 
1.5699999999998435, -1.561716834305768 
1.5799999999998424, -1.5614992927631828 
1.5899999999998413, -1.5611346734263711 
1.5999999999998402, -1.560594699755798 
1.6099999999998391, -1.5598512623223884 
1.619999999999838, -1.5589177163776873 
1.629999999999837, -1.5579473025591297 
1.6399999999998358, -1.5573251729250934 
1.6499999999998347, -1.5575289973501587 
1.6599999999998336, -1.5586934332720488 
1.6699999999998325, -1.5604106809852534 
1.6799999999998314, -1.5620966396017049 
1.6899999999998303, -1.5633912311237306 
1.6999999999998292, -1.564209844795778 
1.709999999999828, -1.5646142210873175 
1.719999999999827, -1.5647027566430007 
1.729999999999826, -1.564562439927775 
1.7399999999998248, -1.564260321578962 
1.7499999999998237, -1.5638524946862813 
1.7599999999998226, -1.5633972788091133 
1.7699999999998215, -1.562960926322539 
1.7799999999998204, -1.5626062841286528 
1.7899999999998193, -1.5623696499253037 
1.7999999999998182, -1.5622457581227138 
1.809999999999817, -1.5621921316591811 
1.819999999999816, -1.562146935284098 
1.8299999999998149, -1.5620479538989294 
1.8399999999998138, -1.5618414294454888 
1.8499999999998127, -1.5614784985661379 
1.8599999999998116, -1.5609063420400706 
1.8699999999998105, -1.5600629593614406 
1.8799999999998094, -1.5588838247044907 
1.8899999999998083, -1.557330875366869 
1.8999999999998072, -1.5554539343223783 
1.909999999999806, -1.5534689896222937 
1.919999999999805, -1.5517625504890111 
1.9299999999998039, -1.5506971728746382 
1.9399999999998028, -1.5503262198991228 
1.9499999999998017, -1.5503799889398944 
1.9599999999998006, -1.5505360142187476 
1.9699999999997995, -1.5506069927599326 
1.9799999999997984, -1.5505316059097134 
1.9899999999997973, -1.5503034706425391 
1.9999999999997962, -1.5499262851163933 
2.0099999999998173, -1.549404811653217 
2.0199999999998384, -1.548767892348906 
2.0299999999998595, -1.548123010075544 
2.0399999999998806, -1.5477057553320763 
2.0499999999999017, -1.5478113292138234 
2.059999999999923, -1.5485633627876392 
2.069999999999944, -1.5497667392940584 
2.079999999999965, -1.5510598262033761 
2.089999999999986, -1.5521552980917925 
2.100000000000007, -1.5529254574879676 
2.1100000000000283, -1.553359869905304 
2.1200000000000494, -1.5535016201189387 
2.1300000000000705, -1.553406653077444 
2.1400000000000916, -1.5531269710522975 
2.1500000000001127, -1.5527090912753443 
2.160000000000134, -1.5522004428614342 
2.170000000000155, -1.551656582103579 
2.180000000000176, -1.5511410148252367 
2.190000000000197, -1.550712861720507 
2.2000000000002182, -1.55040662539357 
2.2100000000002393, -1.5502156318508276 
2.2200000000002604, -1.550092679607093 
2.2300000000002815, -1.549970627670692 
2.2400000000003026, -1.5497848178575349 
2.2500000000003237, -1.5494788581464376 
2.260000000000345, -1.5489949079365166 
2.270000000000366, -1.5482601270793974 
2.280000000000387, -1.5471807836285116 
2.290000000000408, -1.5456592633234365 
2.3000000000004293, -1.5436587948292222 
2.3100000000004504, -1.5413296731987602 
2.3200000000004715, -1.5391159797622949 
2.3300000000004926, -1.5376108352981166 
2.3400000000005137, -1.537100899120445 
2.3500000000005348, -1.5373220113638255 
2.360000000000556, -1.53778111564484 
2.370000000000577, -1.5381453475277387 
2.380000000000598, -1.538303822264037 
2.390000000000619, -1.5382600535247142 
2.4000000000006403, -1.5380455725358568 
2.4100000000006614, -1.5376885428686893 
2.4200000000006825, -1.5372181127419893 
2.4300000000007036, -1.5366920388466485 
2.4400000000007247, -1.53623362103086 
2.450000000000746, -1.5360308716813627 
2.460000000000767, -1.5362401268089758 
2.470000000000788, -1.536852669507976 
2.480000000000809, -1.5376883985237255 
2.49000000000083, -1.5385240294262537 
2.5000000000008513, -1.539201650318382 
2.5100000000008724, -1.5396491685034837 
2.5200000000008935, -1.5398537222104673 
2.5300000000009146, -1.539831883991267 
2.5400000000009357, -1.5396109291532087 
2.550000000000957, -1.5392209209041403 
2.560000000000978, -1.5386948240303218 
2.570000000000999, -1.5380738324758476 
2.58000000000102, -1.537413532747324 
2.5900000000010412, -1.5367840344871488 
2.6000000000010624, -1.5362570879329305 
2.6100000000010835, -1.5358790857193578 
2.6200000000011046, -1.5356443964703959 
2.6300000000011257, -1.5354956971035463 
2.6400000000011468, -1.535354736945211 
2.650000000001168, -1.5351515680787569 
2.660000000001189, -1.5348289107194537 
2.67000000000121, -1.5343281946547307 
2.680000000001231, -1.5335726137386134 
2.6900000000012523, -1.5324598447068785 
2.7000000000012734, -1.5308838943447187 
2.7100000000012945, -1.5288206660176098 
2.7200000000013156, -1.5264907724010963 
2.7300000000013367, -1.524463664179055 
2.740000000001358, -1.523391837245187 
2.750000000001379, -1.5234374020372612 
2.7600000000014, -1.5241426277524959 
2.770000000001421, -1.5249299542770371 
2.780000000001442, -1.5254886811230843 
2.7900000000014633, -1.525757462214406 
2.8000000000014844, -1.5257787493457853 
2.8100000000015055, -1.525609295451219 
2.8200000000015266, -1.5252939057095696 
2.8300000000015477, -1.5248724352799572 
2.840000000001569, -1.524403571464188 
2.85000000000159, -1.5239907724359525 
2.860000000001611, -1.5237759712974053 
2.870000000001632, -1.523869282702181 
2.8800000000016532, -1.5242631543932768 
2.8900000000016743, -1.5248325641648357 
2.9000000000016954, -1.5254183138359598 
2.9100000000017165, -1.5258986466008988 
2.9200000000017377, -1.5262070708009452 
2.9300000000017588, -1.5263189151239929 
2.94000000000178, -1.526233230881635 
2.950000000001801, -1.5259604095073704 
2.960000000001822, -1.5255166948468315 
2.970000000001843, -1.5249246415984403 
2.9800000000018643, -1.5242183923030757 
2.9900000000018854, -1.5234511921775722 
3.0000000000019065, -1.5226989714822707 
3.0100000000019276, -1.5220499174946325 
3.0200000000019487, -1.5215727269343609 
3.03000000000197, -1.5212774307154686 
3.040000000001991, -1.5211069291126076 
3.050000000002012, -1.5209725708917188 
3.060000000002033, -1.5207947800249275 
3.070000000002054, -1.5205138721129514 
3.0800000000020753, -1.5200763415199847 
3.0900000000020964, -1.51941560875426 
3.1000000000021175, -1.518440540112609 
3.1100000000021386, -1.5170483025040287 
3.1200000000021597, -1.5151947168282196 
3.130000000002181, -1.5130490972653043 
3.140000000002202, -1.5111341803050997 
3.150000000002223, -1.510135902189225 
3.160000000002244, -1.5103178126929426 
3.1700000000022652, -1.5112595462811753 
3.1800000000022863, -1.5123204085968496 
3.1900000000023074, -1.5131179702185602 
3.2000000000023285, -1.5135648308204352 
3.2100000000023496, -1.513711008208868 
3.2200000000023707, -1.5136309064859372 
3.230000000002392, -1.5133842310693795 
3.240000000002413, -1.5130168595051263 
3.250000000002434, -1.5125793169714294 
3.260000000002455, -1.5121505704039246 
3.2700000000024763, -1.511845120411624 
3.2800000000024974, -1.511773688283968 
3.2900000000025185, -1.5119712302667943 
3.3000000000025396, -1.5123677320440287 
3.3100000000025607, -1.5128357680962732 
3.3200000000025818, -1.5132566533559837 
3.330000000002603, -1.5135515995984201 
3.340000000002624, -1.5136800908037356 
3.350000000002645, -1.5136269374250264 
3.360000000002666, -1.5133908511118785 
3.3700000000026873, -1.5129782014897832 
3.3800000000027084, -1.5124020620411387 
3.3900000000027295, -1.5116861286968297 
3.4000000000027506, -1.510872486251058 
3.4100000000027717, -1.5100293761081633 
3.420000000002793, -1.5092497169694286 
3.430000000002814, -1.5086276035451458 
3.440000000002835, -1.5082129521687169 
3.450000000002856, -1.5079786144761738 
3.460000000002877, -1.5078388023679103 
3.4700000000028983, -1.5076996143786767 
3.4800000000029194, -1.5074896018135076 
3.4900000000029405, -1.507155850721427 
3.5000000000029616, -1.5066445503079804 
3.5100000000029827, -1.5058835215914035 
3.520000000003004, -1.5047787276084925 
3.530000000003025, -1.503246784097478 
3.540000000003046, -1.50131988582456 
3.550000000003067, -1.4993150524691938 
3.5600000000030882, -1.4978693537691494 
3.5700000000031094, -1.49754384700852 
3.5800000000031305, -1.4982770148072164 
3.5900000000031516, -1.4994670940185768 
3.6000000000031727, -1.5005461718451334 
3.6100000000031938, -1.5012711948978852 
3.620000000003215, -1.5016358343776233 
3.630000000003236, -1.5017154696738528 
3.640000000003257, -1.5015860963739334 
3.650000000003278, -1.5013044435326564 
3.6600000000032993, -1.5009166376245024 
3.6700000000033204, -1.5004789001683687 
3.6800000000033415, -1.5000778406360529 
3.6900000000033626, -1.4998262683902233 
3.7000000000033837, -1.4998141603355724 
3.710000000003405, -1.5000470609182266 
3.720000000003426, -1.5004400830860671 
3.730000000003447, -1.5008719415281269 
3.740000000003468, -1.5012389658183447 
3.750000000003489, -1.5014748911806295 
3.7600000000035103, -1.501545999566589 
3.7700000000035314, -1.5014394623743752 
3.7800000000035525, -1.5011540908638665 
3.7900000000035736, -1.5006958780640856 
3.8000000000035947, -1.5000783482161506 
3.810000000003616, -1.4993274020862626 
3.820000000003637, -1.4984894166794098 
3.830000000003658, -1.4976380066042343 
3.840000000003679, -1.4968692367186605 
3.8500000000037002, -1.4962732993694963 
3.8600000000037213, -1.4958881809785585 
3.8700000000037424, -1.4956742326157086 
3.8800000000037635, -1.4955410592165328 
3.8900000000037847, -1.4953974849914768 
3.9000000000038058, -1.4951761453263217 
3.910000000003827, -1.494825959190674 
3.920000000003848, -1.4942924897785406 
3.930000000003869, -1.4935017616496373 
3.94000000000389, -1.4923590583050559 
3.9500000000039113, -1.490785308578131 
3.9600000000039324, -1.4888257794765276 
3.9700000000039535, -1.4868142457254927 
3.9800000000039746, -1.4853870809824254 
3.9900000000039957, -1.485076283652226 
4.000000000004016, -1.4857954971506737 
4.010000000003993, -1.4869506286088505 
4.02000000000397, -1.4879943554418884 
4.030000000003946, -1.4886942088170674 
4.040000000003923, -1.489044130917914 
4.0500000000039, -1.4891162564502483 
4.0600000000038765, -1.4889834464258986 
4.070000000003853, -1.4887001075793 
4.08000000000383, -1.4883105412551478 
4.090000000003807, -1.4878694430312458 
4.100000000003783, -1.4874630436108158 
4.11000000000376, -1.4872071605187922 
4.120000000003737, -1.4871991778329612 
4.130000000003713, -1.487452157540639 
4.14000000000369, -1.4878824443596754 
4.150000000003667, -1.4883632235573303 
4.1600000000036434, -1.4887834214638707 
4.17000000000362, -1.4890715213765704 
4.180000000003597, -1.4891917386989522 
4.1900000000035735, -1.4891317465301408 
4.20000000000355, -1.488892395845474 
4.210000000003527, -1.4884822007399794 
4.220000000003504, -1.4879165721043812 
4.23000000000348, -1.4872213623807908 
4.240000000003457, -1.4864395155706303 
4.250000000003434, -1.4856369207130549 
4.26000000000341, -1.4848993097415806 
4.270000000003387, -1.4843104066296369 
4.280000000003364, -1.4839131589439385 
4.2900000000033405, -1.4836825413178623 
4.300000000003317, -1.4835410301807852 
4.310000000003294, -1.4834016623384882 
4.320000000003271, -1.4831956514753433 
4.330000000003247, -1.4828703079282866 
4.340000000003224, -1.48237199232706 
4.350000000003201, -1.4816293832238776 
4.360000000003177, -1.480547504177959 
4.370000000003154, -1.4790301790686489 
4.380000000003131, -1.4770625054191622 
4.390000000003107, -1.4748627275599173 
4.400000000003084, -1.4729752156680371 
4.410000000003061, -1.4720249569940909 
4.4200000000030375, -1.472185836339068 
4.430000000003014, -1.4730306016688623 
4.440000000002991, -1.473977974289662 
4.450000000002968, -1.4746889508915584 
4.460000000002944, -1.4750834571191689 
4.470000000002921, -1.475202466640032 
4.480000000002898, -1.47510984881325 
4.490000000002874, -1.474857272169585 
4.500000000002851, -1.4744843112004735 
4.510000000002828, -1.474035626999433 
4.520000000002804, -1.4735861051943382 
4.530000000002781, -1.4732549973890428 
4.540000000002758, -1.4731749142648733 
4.5500000000027345, -1.473412422702253 
4.560000000002711, -1.4739134450206355 
4.570000000002688, -1.474537752620231 
4.580000000002665, -1.475138747701712 
4.590000000002641, -1.4756135770223957 
4.600000000002618, -1.4759093755786161 
4.610000000002595, -1.4760092375538343 
4.620000000002571, -1.4759168618453529 
4.630000000002548, -1.475646339677482 
4.640000000002525, -1.4752175994724648 
4.6500000000025015, -1.4746567676366085 
4.660000000002478, -1.4740002925817466 
4.670000000002455, -1.4733000075493163 
4.6800000000024315, -1.4726236092588487 
4.690000000002408, -1.4720438001411156 
4.700000000002385, -1.4716136083616156 
4.710000000002362, -1.4713390992246766 
4.720000000002338, -1.4711737681233936 
4.730000000002315, -1.4710434160797665 
4.740000000002292, -1.4708769383814657 
4.750000000002268, -1.4706172696678061 
4.760000000002245, -1.4702126473032449 
4.770000000002222, -1.4696012224935915 
4.7800000000021985, -1.468699597359962 
4.790000000002175, -1.4674060582143487 
4.800000000002152, -1.4656384566623448 
4.810000000002129, -1.4634315693993938 
4.820000000002105, -1.461073265600804 
4.830000000002082, -1.4591220363434796 
4.840000000002059, -1.4581008631520043 
4.850000000002035, -1.4580631180907533 
4.860000000002012, -1.458590238636337 
4.870000000001989, -1.4592044488124827 
4.880000000001965, -1.45964466983389 
4.890000000001942, -1.4598476743943114 
4.900000000001919, -1.4598375812651478 
4.9100000000018955, -1.4596543022775081 
4.920000000001872, -1.4593296039829595 
4.930000000001849, -1.4588909280865294 
4.940000000001826, -1.458382770501849 
