t, s[1].omega / s[0].omega 
0, -1.039997534931626 
0.009999999999999995, -1.0397014803697986 
0.019999999999999934, -1.039310549870201 
0.029999999999999874, -1.0388342910722845 
0.04000000000000012, -1.0382884731455913 
0.050000000000000405, -1.0376950705797412 
0.06000000000000069, -1.0370821418575218 
0.07000000000000098, -1.0364830108017953 
0.08000000000000126, -1.035933778511551 
0.09000000000000155, -1.0354684882492653 
0.10000000000000184, -1.035112536249766 
0.11000000000000212, -1.0348765329645464 
0.12000000000000241, -1.0347534172451431 
0.130000000000002, -1.0347203560869604 
0.1400000000000009, -1.034744499603357 
0.1499999999999998, -1.0347898232325397 
0.1599999999999987, -1.0348224055706419 
0.1699999999999976, -1.0348131474795206 
0.1799999999999965, -1.0347385824306554 
0.1899999999999954, -1.0345809891990823 
0.1999999999999943, -1.0343285919593126 
0.2099999999999932, -1.0339759430527315 
0.2199999999999921, -1.0335242328391279 
0.229999999999991, -1.0329813683238194 
0.2399999999999899, -1.0323619067794705 
0.2499999999999888, -1.0316869943109304 
0.2599999999999877, -1.0309842422686946 
0.2699999999999866, -1.0302870593788935 
0.2799999999999855, -1.0296325744320785 
0.2899999999999844, -1.0290573599279103 
0.2999999999999833, -1.028591089929193 
0.3099999999999822, -1.0282498209711328 
0.3199999999999811, -1.0280317068714495 
0.32999999999998, -1.0279174180126678 
0.3399999999999789, -1.0278752296561011 
0.3499999999999778, -1.0278682549562765 
0.35999999999997667, -1.027860618661238 
0.36999999999997557, -1.0278208331615275 
0.37999999999997447, -1.0277227127242312 
0.38999999999997337, -1.0275452650604837 
0.39999999999997227, -1.0272728116002392 
0.40999999999997117, -1.0268957243934063 
0.41999999999997006, -1.0264113984484902 
0.42999999999996896, -1.0258248861301393 
0.43999999999996786, -1.0251489756829582 
0.44999999999996676, -1.0244039208094384 
0.45999999999996566, -1.0236170620497365 
0.46999999999996456, -1.0228221764258283 
0.47999999999996346, -1.022057855538564 
0.48999999999996235, -1.0213639891507422 
0.49999999999996125, -1.0207759560498597 
0.5099999999999602, -1.0203174985636416 
0.519999999999959, -1.019994811503107 
0.529999999999958, -1.0197947665063596 
0.5399999999999568, -1.0196885006198806 
0.5499999999999557, -1.0196386760290153 
0.5599999999999546, -1.0196068924495696 
0.5699999999999535, -1.0195584492783727 
0.5799999999999524, -1.0194639349733376 
0.5899999999999513, -1.0192989529857637 
0.5999999999999502, -1.0190437066532063 
0.6099999999999491, -1.0186834817121624 
0.619999999999948, -1.0182100241054912 
0.6299999999999469, -1.0176230623503975 
0.6399999999999458, -1.0169311746936125 
0.6499999999999447, -1.0161517595465868 
0.6599999999999436, -1.015310426073152 
0.6699999999999425, -1.0144401228627073 
0.6799999999999414, -1.0135797863560405 
0.6899999999999403, -1.012771713710862 
0.6999999999999392, -1.012056832345795 
0.7099999999999381, -1.011467924630388 
0.719999999999937, -1.0110224832058015 
0.7299999999999359, -1.01071818239584 
0.7399999999999348, -1.0105335244696938 
0.7499999999999337, -1.0104336903426483 
0.7599999999999326, -1.010378719040348 
0.7699999999999315, -1.0103302971397627 
0.7799999999999304, -1.0102551376573246 
0.7899999999999293, -1.010125363474646 
0.7999999999999282, -1.0099176640121441 
0.8099999999999271, -1.0096129196534478 
0.819999999999926, -1.009197082320293 
0.8299999999999249, -1.0086630253576565 
0.8399999999999238, -1.0080123797612721 
0.8499999999999227, -1.0072564418458902 
0.8599999999999216, -1.0064159381751192 
0.8699999999999205, -1.0055200659615653 
0.8799999999999194, -1.0046051886500522 
0.8899999999999183, -1.0037129522083894 
0.8999999999999172, -1.0028870190356565 
0.9099999999999161, -1.0021677287025457 
0.919999999999915, -1.0015850696348456 
0.9299999999999139, -1.0011519877199988 
0.9399999999999128, -1.0008610578710406 
0.9499999999999117, -1.0006865894324988 
0.9599999999999106, -1.0005914305961014 
0.9699999999999095, -1.0005351686069315 
0.9799999999999084, -1.000480238335212 
0.9899999999999073, -1.0003944964925569 
0.9999999999999062, -1.0002510982281465 
1.0099999999999052, -1.00002753069799 
1.019999999999904, -0.999705370651651 
1.029999999999903, -0.9992713721607511 
1.039999999999902, -0.9987194442265626 
1.0499999999999008, -0.998052455870463 
1.0599999999998997, -0.9972829727795082 
1.0699999999998986, -0.9964327990261094 
1.0799999999998975, -0.9955318231135333 
1.0899999999998964, -0.994616575546049 
1.0999999999998953, -0.9937282618644356 
1.1099999999998942, -0.9929094922231352 
1.119999999999893, -0.9921990826863594 
1.129999999999892, -0.991625364057364 
1.1399999999998909, -0.9911999647951868 
1.1499999999998898, -0.9909148865890847 
1.1599999999998887, -0.9907447080742525 
1.1699999999998876, -0.9906531301288093 
1.1799999999998865, -0.990600758978837 
1.1899999999998854, -0.9905509109825429 
1.1999999999998843, -0.9904721220301058 
1.2099999999998832, -0.9903381423779608 
1.219999999999882, -0.9901271361660064 
1.229999999999881, -0.9898215263512302 
1.2399999999998799, -0.9894090076076942 
1.2499999999998788, -0.9888842714631558 
1.2599999999998777, -0.9882504599914442 
1.2699999999998766, -0.9875195984634626 
1.2799999999998755, -0.9867120017910664 
1.2899999999998744, -0.9858551819705317 
1.2999999999998733, -0.9849826339367377 
1.3099999999998722, -0.9841322596818559 
1.319999999999871, -0.9833436850268139 
1.32999999999987, -0.9826538196588078 
1.3399999999998689, -0.9820908947852747 
1.3499999999998678, -0.9816685670707358 
1.3599999999998666, -0.9813825751530662 
1.3699999999998655, -0.9812118389684116 
1.3799999999998644, -0.9811237589201296 
1.3899999999998633, -0.9810812689451778 
1.3999999999998622, -0.9810486833297718 
1.4099999999998611, -0.9809947679625921 
1.41999999999986, -0.9808933756888105 
1.429999999999859, -0.9807230475076416 
1.4399999999998578, -0.9804668974680613 
1.4499999999998567, -0.9801133200078956 
1.4599999999998556, -0.9796571891784686 
1.4699999999998545, -0.9791007846290934 
1.4799999999998534, -0.9784539192147047 
1.4899999999998523, -0.977733361602627 
1.4999999999998512, -0.9769620245891056 
1.5099999999998501, -0.9761682080503545 
1.519999999999849, -0.9753846633795549 
1.529999999999848, -0.9746468058562702 
1.5399999999998468, -0.9739893828311981 
1.5499999999998457, -0.9734415090977793 
1.5599999999998446, -0.9730210993049584 
1.5699999999998435, -0.9727307297306224 
1.5799999999998424, -0.9725569321010037 
1.5899999999998413, -0.972473485525018 
1.5999999999998402, -0.9724472576072036 
1.6099999999998391, -0.9724440674231791 
1.619999999999838, -0.972432643523972 
1.629999999999837, -0.972386307584929 
1.6399999999998358, -0.9722832484450981 
1.6499999999998347, -0.9721065164180219 
1.6599999999998336, -0.9718443597991632 
1.6699999999998325, -0.9714908219102283 
1.6799999999998314, -0.9710461512158208 
1.6899999999998303, -0.9705167383187938 
1.6999999999998292, -0.9699147016095855 
1.709999999999828, -0.969257446200649 
1.719999999999827, -0.9685673613630174 
1.729999999999826, -0.9678714724495073 
1.7399999999998248, -0.9672005310988713 
1.7499999999998237, -0.9665868780036646 
1.7599999999998226, -0.9660606713871973 
1.7699999999998215, -0.9656448788285694 
1.7799999999998204, -0.9653504760493823 
1.7899999999998193, -0.9651738136212498 
1.7999999999998182, -0.9650974572887734 
1.809999999999817, -0.9650941962534958 
1.819999999999816, -0.9651324434257708 
1.8299999999998149, -0.9651809695589924 
1.8399999999998138, -0.9652118442067623 
1.8499999999998127, -0.9652016939987158 
1.8599999999998116, -0.9651320536528776 
1.8699999999998105, -0.9649894940972825 
1.8799999999998094, -0.9647657629185782 
1.8899999999998083, -0.9644578575215194 
1.8999999999998072, -0.9640679561706446 
1.909999999999806, -0.9636032732439975 
1.919999999999805, -0.9630759451417747 
1.9299999999998039, -0.9625029802954714 
1.9399999999998028, -0.9619062035680761 
1.9499999999998017, -0.9613119553270606 
1.9599999999998006, -0.9607500439997775 
1.9699999999997995, -0.9602513229078472 
1.9799999999997984, -0.9598436342410437 
1.9899999999997973, -0.9595468050714289 
1.9999999999997962, -0.9593683548765004 
2.0099999999998173, -0.9593017353227667 
2.0199999999998384, -0.9593279165456161 
2.0299999999998595, -0.9594195658730819 
2.0399999999998806, -0.9595460306665113 
2.0499999999999017, -0.959677453118146 
2.059999999999923, -0.959787282543914 
2.069999999999944, -0.9598533884773135 
2.079999999999965, -0.9598583805026358 
2.089999999999986, -0.9597896572033255 
2.100000000000007, -0.9596394689444807 
2.1100000000000283, -0.959405085859671 
2.1200000000000494, -0.9590890053059736 
2.1300000000000705, -0.9586990338461152 
2.1400000000000916, -0.9582481554776521 
2.1500000000001127, -0.957754305450476 
2.160000000000134, -0.9572402148254134 
2.170000000000155, -0.956733171214719 
2.180000000000176, -0.9562640433636398 
2.190000000000197, -0.9558647319647198 
2.2000000000002182, -0.9555637599886738 
2.2100000000002393, -0.9553809086764676 
2.2200000000002604, -0.9553228458477626 
2.2300000000002815, -0.9553816302239616 
2.2400000000003026, -0.955536669466224 
2.2500000000003237, -0.9557590864522199 
2.260000000000345, -0.9560166322209094 
2.270000000000366, -0.9562776198282734 
2.280000000000387, -0.9565133184576476 
2.290000000000408, -0.9566991032813679 
2.3000000000004293, -0.9568150281645049 
2.3100000000004504, -0.9568463978272487 
2.3200000000004715, -0.9567845261295902 
2.3300000000004926, -0.9566274002788522 
2.3400000000005137, -0.9563797711344799 
2.3500000000005348, -0.9560524990036721 
2.360000000000556, -0.9556615644867256 
2.370000000000577, -0.9552274308783983 
2.380000000000598, -0.9547751030648671 
2.390000000000619, -0.9543344648283336 
2.4000000000006403, -0.9539397686950386 
2.4100000000006614, -0.953627024990219 
2.4200000000006825, -0.9534288719893012 
2.4300000000007036, -0.9533681100827816 
2.4400000000007247, -0.9534523897423395 
2.450000000000746, -0.9536723505066579 
2.460000000000767, -0.9540037818745113 
2.470000000000788, -0.9544124479983349 
2.480000000000809, -0.9548594435873747 
2.49000000000083, -0.95530553505157 
2.5000000000008513, -0.9557141216119283 
2.5100000000008724, -0.9560533491979941 
2.5200000000008935, -0.9562980657848822 
2.5300000000009146, -0.9564317533254114 
2.5400000000009357, -0.9564478133767753 
2.550000000000957, -0.9563493830472938 
2.560000000000978, -0.9561475568026541 
2.570000000000999, -0.9558589136840705 
2.58000000000102, -0.955503680773964 
2.5900000000010412, -0.9551054123575373 
2.6000000000010624, -0.954692127084909 
2.6100000000010835, -0.9542978781066012 
2.6200000000011046, -0.9539630185530734 
2.6300000000011257, -0.9537313727328554 
2.6400000000011468, -0.9536436619741651 
2.650000000001168, -0.9537287501987842 
2.660000000001189, -0.953996151374455 
2.67000000000121, -0.954433019781268 
2.680000000001231, -0.9550064651302478 
2.6900000000012523, -0.9556694669826609 
2.7000000000012734, -0.9563678073365505 
2.7100000000012945, -0.9570463774846883 
2.7200000000013156, -0.957654623013134 
2.7300000000013367, -0.9581514615702746 
2.740000000001358, -0.9585094097540372 
2.750000000001379, -0.958716733027346 
2.7600000000014, -0.9587764940672349 
2.770000000001421, -0.9587027604485984 
2.780000000001442, -0.9585157659176782 
2.7900000000014633, -0.9582381781095014 
2.8000000000014844, -0.9578937853042395 
2.8100000000015055, -0.9575087520348016 
2.8200000000015266, -0.9571146578843879 
2.8300000000015477, -0.9567517322935963 
2.840000000001569, -0.9564699329292401 
2.85000000000159, -0.9563253520165477 
2.860000000001611, -0.956370908977525 
2.870000000001632, -0.9566435027099656 
2.8800000000016532, -0.9571527026384434 
2.8900000000016743, -0.9578758846701808 
2.9000000000016954, -0.9587613093736618 
2.9100000000017165, -0.9597370048761851 
2.9200000000017377, -0.9607221676783132 
2.9300000000017588, -0.9616388194373539 
2.94000000000178, -0.9624224566571232 
2.950000000001801, -0.9630301389533271 
2.960000000001822, -0.9634438708983609 
2.970000000001843, -0.9636680866282464 
2.9800000000018643, -0.9637225934396486 
2.9900000000018854, -0.9636343392889264 
3.0000000000019065, -0.9634312084269132 
3.0100000000019276, -0.963139383836275 
3.0200000000019487, -0.9627842650511369 
3.03000000000197, -0.962394174726262 
3.040000000001991, -0.9620056680572935 
3.050000000002012, -0.9616684676526959 
3.060000000002033, -0.9614468417413337 
3.070000000002054, -0.9614138081149421 
3.0800000000020753, -0.9616367326001598 
3.0900000000020964, -0.9621578960950083 
3.1000000000021175, -0.9629780591913344 
3.1100000000021386, -0.9640506097962913 
3.1200000000021597, -0.9652885798529095 
3.130000000002181, -0.9665813462367469 
3.140000000002202, -0.9678156759605671 
3.150000000002223, -0.9688959731779254 
3.160000000002244, -0.9697589468025634 
3.1700000000022652, -0.9703788219034462 
3.1800000000022863, -0.9707623200941065 
3.1900000000023074, -0.9709369743685569 
3.2000000000023285, -0.9709385652833757 
3.2100000000023496, -0.9708021146628276 
3.2200000000023707, -0.9705579209208688 
3.230000000002392, -0.9702320650903383 
3.240000000002413, -0.9698502981673593 
3.250000000002434, -0.9694443746776237 
3.260000000002455, -0.9690595803731981 
3.2700000000024763, -0.9687607637099575 
3.2800000000024974, -0.9686321585421647 
3.2900000000025185, -0.9687659874276235 
3.3000000000025396, -0.9692390800790094 
3.3100000000025607, -0.9700848562071464 
3.3200000000025818, -0.9712737610094486 
3.330000000002603, -0.9727125413491114 
3.340000000002624, -0.9742634489072424 
3.350000000002645, -0.975775922373353 
3.360000000002666, -0.9771196413705638 
3.3700000000026873, -0.9782083162895567 
3.3800000000027084, -0.9790074297111874 
3.3900000000027295, -0.9795260895116812 
3.4000000000027506, -0.9797998992919018 
3.4100000000027717, -0.9798737096371595 
3.420000000002793, -0.9797899031766715 
3.430000000002814, -0.9795833597887988 
3.440000000002835, -0.9792817241510547 
3.450000000002856, -0.9789093637734702 
3.460000000002877, -0.978494111964106 
3.4700000000028983, -0.9780761301135893 
3.4800000000029194, -0.9777170294994517 
3.4900000000029405, -0.9775046415124248 
3.5000000000029616, -0.9775463589945067 
3.5100000000029827, -0.9779459288075376 
3.520000000003004, -0.9787676987738972 
3.530000000003025, -0.9800037975228998 
3.540000000003046, -0.9815626959973323 
3.550000000003067, -0.9832874151916604 
3.5600000000030882, -0.9849961776390055 
3.5700000000031094, -0.9865282730434103 
3.5800000000031305, -0.987777282374183 
3.5900000000031516, -0.9887013182908617 
3.6000000000031727, -0.9893117189591999 
3.6100000000031938, -0.9896508472452226 
3.620000000003215, -0.9897708421844097 
3.630000000003236, -0.9897198571408813 
3.640000000003257, -0.9895364054119293 
3.650000000003278, -0.9892496373566549 
3.6600000000032993, -0.9888834535796773 
3.6700000000033204, -0.9884634913183143 
3.6800000000033415, -0.9880266496032946 
3.6900000000033626, -0.9876318685798123 
3.7000000000033837, -0.9873678601922024 
3.710000000003405, -0.9873497724035432 
3.720000000003426, -0.9876969450025477 
3.730000000003447, -0.98849295575989 
3.740000000003468, -0.9897441631619948 
3.750000000003489, -0.9913605894331875 
3.7600000000035103, -0.9931731274112817 
3.7700000000035314, -0.9949804958412823 
3.7800000000035525, -0.9966039924795409 
3.7900000000035736, -0.997926627134355 
3.8000000000035947, -0.9989040763171468 
3.810000000003616, -0.9995505240873952 
3.820000000003637, -0.9999130032055069 
3.830000000003658, -1.0000479054781723 
3.840000000003679, -1.0000063853046575 
3.8500000000037002, -0.9998286967846735 
3.8600000000037213, -0.9995447445246638 
3.8700000000037424, -0.9991785034300946 
3.8800000000037635, -0.9987553353564322 
3.8900000000037847, -0.9983119808939518 
3.9000000000038058, -0.9979080301054273 
3.910000000003827, -0.9976344020851009 
3.920000000003848, -0.9976101834618014 
3.930000000003869, -0.9979591512822692 
3.94000000000389, -0.9987671773532096 
3.9500000000039113, -1.0000383770760792 
3.9600000000039324, -1.0016761070424711 
3.9700000000039535, -1.0035032679798348 
3.9800000000039746, -1.005313243479717 
3.9900000000039957, -1.0069267798121444 
4.000000000004016, -1.008230349496412 
4.010000000003993, -1.0091845955160357 
4.02000000000397, -1.0098078678093036 
4.030000000003946, -1.0101495700760292 
4.040000000003923, -1.0102668485548345 
4.0500000000039, -1.0102106714043333 
4.0600000000038765, -1.0100208421365067 
4.070000000003853, -1.0097270924327362 
4.08000000000383, -1.0093539834104268 
4.090000000003807, -1.0089287160625773 
4.100000000003783, -1.0084914984552862 
4.11000000000376, -1.0081067472691152 
4.120000000003737, -1.0078697819305549 
4.130000000003713, -1.0078999402468813 
4.14000000000369, -1.0083129592522284 
4.150000000003667, -1.0091775692897718 
4.1600000000036434, -1.0104770469339452 
4.17000000000362, -1.0120997088844201 
4.180000000003597, -1.0138664394164087 
4.1900000000035735, -1.0155817878957198 
4.20000000000355, -1.0170846863527225 
4.210000000003527, -1.0182789914378738 
4.220000000003504, -1.0191368217971384 
4.23000000000348, -1.0196811177002933 
4.240000000003457, -1.0199608403571154 
4.250000000003434, -1.0200302624767867 
4.26000000000341, -1.0199370995940227 
4.270000000003387, -1.0197187778980203 
4.280000000003364, -1.0194042937587187 
4.2900000000033405, -1.0190197412585031 
4.300000000003317, -1.0185966491060985 
4.310000000003294, -1.0181822321753669 
4.320000000003271, -1.0178486047926332 
4.330000000003247, -1.017694406523343 
4.340000000003224, -1.0178306921737454 
4.350000000003201, -1.0183488818801045 
4.360000000003177, -1.0192821502816973 
4.370000000003154, -1.0205815134821399 
4.380000000003131, -1.0221218234997935 
4.390000000003107, -1.0237350560559766 
4.400000000003084, -1.0252545837987597 
4.410000000003061, -1.0265524938838928 
4.4200000000030375, -1.0275585411813701 
4.430000000003014, -1.028258498458943 
4.440000000002991, -1.0286780172783483 
4.450000000002968, -1.0288621732057366 
4.460000000002944, -1.028859051946029 
4.470000000002921, -1.0287107602228829 
4.480000000002898, -1.02845126165081 
4.490000000002874, -1.0281091182452045 
4.500000000002851, -1.0277136177263102 
4.510000000002828, -1.0273031692182737 
4.520000000002804, -1.02693392936267 
4.530000000002781, -1.0266841220202798 
4.540000000002758, -1.0266474282854248 
4.5500000000027345, -1.0269114910842325 
4.560000000002711, -1.0275271117225606 
4.570000000002688, -1.0284835422905556 
4.580000000002665, -1.0297043353401112 
4.590000000002641, -1.0310657607334213 
4.600000000002618, -1.0324277815453469 
4.610000000002595, -1.0336648457923794 
4.620000000002571, -1.034687668045338 
4.630000000002548, -1.035451979618406 
4.640000000002525, -1.0359544472457327 
4.6500000000025015, -1.0362199534893628 
4.660000000002478, -1.0362866978956864 
4.670000000002455, -1.0361945800311276 
4.6800000000024315, -1.0359792386369684 
4.690000000002408, -1.035671485391477 
4.700000000002385, -1.0353008400984816 
4.710000000002362, -1.0349017587550027 
4.720000000002338, -1.0345206412046486 
4.730000000002315, -1.0342201459228417 
4.740000000002292, -1.0340758040250733 
4.750000000002268, -1.0341614563397314 
4.760000000002245, -1.034526639365186 
4.770000000002222, -1.0351766897611114 
4.7800000000021985, -1.0360667494620317 
4.790000000002175, -1.037112236619608 
4.800000000002152, -1.038209110117102 
4.810000000002129, -1.0392550440106365 
4.820000000002105, -1.0401660168760696 
4.830000000002082, -1.0408863158946757 
4.840000000002059, -1.041391393122391 
4.850000000002035, -1.0416839423255024 
4.860000000002012, -1.0417852944225103 
4.870000000001989, -1.0417257435810106 
4.880000000001965, -1.0415372104475198 
4.890000000001942, -1.0412499715908567 
4.900000000001919, -1.0408934551575124 
4.9100000000018955, -1.0405000590835294 
4.920000000001872, -1.0401101696903174 
4.930000000001849, -1.03977545354468 
