t, s[1].omega / s[0].omega 
0, -0.5599977393691224 
0.009999999999999995, -0.5597772143489949 
0.019999999999999934, -0.5595627693653763 
0.029999999999999874, -0.5593419534998488 
0.04000000000000012, -0.5590998953103786 
0.050000000000000405, -0.5588245753001575 
0.06000000000000069, -0.5585098834725812 
0.07000000000000098, -0.5581560464354833 
0.08000000000000126, -0.5577686595518949 
0.09000000000000155, -0.5573579552446664 
0.10000000000000184, -0.5569394614689956 
0.11000000000000212, -0.5565366620049879 
0.12000000000000241, -0.556186028060046 
0.130000000000002, -0.5559447039254002 
0.1400000000000009, -0.5559007479800995 
0.1499999999999998, -0.5561844011307974 
0.1599999999999987, -0.556975187476968 
0.1699999999999976, -0.558492554344726 
0.1799999999999965, -0.560948976022259 
0.1899999999999954, -0.5644464609171365 
0.1999999999999943, -0.5688381775245844 
0.2099999999999932, -0.5736628233341577 
0.2199999999999921, -0.5782848503083668 
0.229999999999991, -0.5821927625706277 
0.2399999999999899, -0.5851948187183063 
0.2499999999999888, -0.5873687134549861 
0.2599999999999877, -0.5888977961963935 
0.2699999999999866, -0.5899569147757233 
0.2799999999999855, -0.5906767081621364 
0.2899999999999844, -0.5911467999699752 
0.2999999999999833, -0.5914270198474278 
0.3099999999999822, -0.591556164438388 
0.3199999999999811, -0.5915572511383472 
0.32999999999998, -0.5914403577586329 
0.3399999999999789, -0.5912041470172117 
0.3499999999999778, -0.5908371068240258 
0.35999999999997667, -0.5903198136633122 
0.36999999999997557, -0.5896298853914098 
0.37999999999997447, -0.5887508716478432 
0.38999999999997337, -0.5876839601067795 
0.39999999999997227, -0.5864572947923292 
0.40999999999997117, -0.5851256794067183 
0.41999999999997006, -0.5837580970876312 
0.42999999999996896, -0.5824194448613154 
0.43999999999996786, -0.5811568565251043 
0.44999999999996676, -0.5799960991083479 
0.45999999999996566, -0.5789461429701863 
0.46999999999996456, -0.5780068013903377 
0.47999999999996346, -0.5771755059414079 
0.48999999999996235, -0.5764517549095047 
0.49999999999996125, -0.5758394648321815 
0.5099999999999602, -0.5753480231728041 
0.519999999999959, -0.5749927409853557 
0.529999999999958, -0.5747951227961196 
0.5399999999999568, -0.5747831436068915 
0.5499999999999557, -0.5749915692056787 
0.5599999999999546, -0.5754621831437094 
0.5699999999999535, -0.5762434575073532 
0.5799999999999524, -0.5773885906293252 
0.5899999999999513, -0.5789498894492289 
0.5999999999999502, -0.5809665218057276 
0.6099999999999491, -0.583442980117179 
0.619999999999948, -0.5863198873487845 
0.6299999999999469, -0.5894494162757933 
0.6399999999999458, -0.5925995658100319 
0.6499999999999447, -0.5955062501460826 
0.6599999999999436, -0.5979562692452831 
0.6699999999999425, -0.5998483322157038 
0.6799999999999414, -0.6011943422125444 
0.6899999999999403, -0.6020752145740931 
0.6999999999999392, -0.6025910895331136 
0.7099999999999381, -0.6028299450999872 
0.719999999999937, -0.6028554013036072 
0.7299999999999359, -0.6027051519353475 
0.7399999999999348, -0.6023925221941542 
0.7499999999999337, -0.6019070580266733 
0.7599999999999326, -0.6012124694411667 
0.7699999999999315, -0.6002418016057577 
0.7799999999999304, -0.598891764298892 
0.7899999999999293, -0.5970224175268646 
0.7999999999999282, -0.5944752817653423 
0.8099999999999271, -0.5911263325186561 
0.819999999999926, -0.5869731883522721 
0.8299999999999249, -0.5822092023108584 
0.8399999999999238, -0.5772072163805804 
0.8499999999999227, -0.5723951587136986 
0.8599999999999216, -0.5681096724725502 
0.8699999999999205, -0.5645247161803816 
0.8799999999999194, -0.5616677268076162 
0.8899999999999183, -0.5594753092012573 
0.8999999999999172, -0.5578452917571952 
0.9099999999999161, -0.5566697903897169 
0.919999999999915, -0.5558513251454238 
0.9299999999999139, -0.5553085007356112 
0.9399999999999128, -0.5549765103001973 
0.9499999999999117, -0.5548055400511599 
0.9599999999999106, -0.5547585924998366 
0.9699999999999095, -0.5548093986418454 
0.9799999999999084, -0.5549406841251896 
0.9899999999999073, -0.555142829643361 
0.9999999999999062, -0.5554127385505727 
1.0099999999999052, -0.5557524120200269 
1.019999999999904, -0.5561664202773503 
1.029999999999903, -0.5566574734779601 
1.039999999999902, -0.557220096728946 
1.0499999999999008, -0.557834162441423 
1.0599999999998997, -0.5584619535647112 
1.0699999999998986, -0.5590525291086573 
1.0799999999998975, -0.5595535800305276 
1.0899999999998964, -0.5599252603200282 
1.0999999999998953, -0.5601482288698653 
1.1099999999998942, -0.5602224400720653 
1.119999999999893, -0.5601596031152984 
1.129999999999892, -0.5599745923962463 
1.1399999999998909, -0.5596791105945523 
1.1499999999998898, -0.5592780799931688 
1.1599999999998887, -0.5587677478115678 
1.1699999999998876, -0.5581342230265007 
1.1799999999998865, -0.5573512561950953 
1.1899999999998854, -0.5563759295946522 
1.1999999999998843, -0.5551404494940677 
1.2099999999998832, -0.5535384464856008 
1.219999999999882, -0.5514090673558129 
1.229999999999881, -0.5485392795551722 
1.2399999999998799, -0.5447315088941967 
1.2499999999998788, -0.5399687546510258 
1.2599999999998777, -0.5345806184200337 
1.2699999999998766, -0.5291953185209948 
1.2799999999998755, -0.5244436395097299 
1.2899999999998744, -0.5206837505523135 
1.2999999999998733, -0.5179567931236342 
1.3099999999998722, -0.5161074793221097 
1.319999999999871, -0.514918081021052 
1.32999999999987, -0.5141870994239528 
1.3399999999998689, -0.5137572800119912 
1.3499999999998678, -0.5135165465525625 
1.3599999999998666, -0.5133891617446539 
1.3699999999998655, -0.5133255645680863 
1.3799999999998644, -0.5132939539105522 
1.3899999999998633, -0.5132742912930951 
1.3999999999998622, -0.5132545677977051 
1.4099999999998611, -0.5132289546063307 
1.41999999999986, -0.5131972982801553 
1.429999999999859, -0.5131650971260183 
1.4399999999998578, -0.5131427119166425 
1.4499999999998567, -0.5131426068092765 
1.4599999999998556, -0.5131743796151811 
1.4699999999998545, -0.5132390307776524 
1.4799999999998534, -0.5133252617095716 
1.4899999999998523, -0.5134103630233416 
1.4999999999998512, -0.513466047639848 
1.5099999999998501, -0.5134665191949227 
1.519999999999849, -0.5133945824963189 
1.529999999999848, -0.513243214355058 
1.5399999999998468, -0.5130131727894253 
1.5499999999998457, -0.5127090740057526 
1.5599999999998446, -0.5123360501791936 
1.5699999999998435, -0.5118978555080866 
1.5799999999998424, -0.5113963514673786 
1.5899999999998413, -0.5108319106347096 
1.5999999999998402, -0.5102040222984121 
1.6099999999998391, -0.5095106623217072 
1.619999999999838, -0.5087432090474112 
1.629999999999837, -0.5078709726726145 
1.6399999999998358, -0.5068095263258023 
1.6499999999998347, -0.5053824233905783 
1.6599999999998336, -0.5033295867196311 
1.6699999999998325, -0.5004453439947244 
1.6799999999998314, -0.4968138395457138 
1.6899999999998303, -0.4928895997841799 
1.6999999999998292, -0.48925928195173707 
1.709999999999828, -0.486321730973345 
1.719999999999827, -0.4841812126808557 
1.729999999999826, -0.48273950940817995 
1.7399999999998248, -0.48182510984588234 
1.7499999999998237, -0.48127314352400524 
1.7599999999998226, -0.4809547678672457 
1.7699999999998215, -0.48077924050753157 
1.7799999999998204, -0.4806862967073089 
1.7899999999998193, -0.48063727938662265 
1.7999999999998182, -0.4806079622230481 
1.809999999999817, -0.4805836456409901 
1.819999999999816, -0.4805563351107966 
1.8299999999998149, -0.48052360113866205 
1.8399999999998138, -0.48048853193305563 
1.8499999999998127, -0.4804598308168336 
1.8599999999998116, -0.48045076359877664 
1.8699999999998105, -0.4804758454609842 
1.8799999999998094, -0.48054527630882193 
1.8899999999998083, -0.48065885074686215 
1.8999999999998072, -0.480802313613681 
1.909999999999806, -0.48094879233307086 
1.919999999999805, -0.48106557455250654 
1.9299999999998039, -0.4811231706783635 
1.9399999999998028, -0.4811019831313802 
1.9499999999998017, -0.48099376194349297 
1.9599999999998006, -0.48079858505236495 
1.9699999999997995, -0.4805200915368986 
1.9799999999997984, -0.48016120820200336 
1.9899999999997973, -0.4797211056994232 
1.9999999999997962, -0.47919297082181833 
2.0099999999998173, -0.4785615984687402 
2.0199999999998384, -0.4777993462204152 
2.0299999999998595, -0.4768582182990221 
2.0399999999998806, -0.47565492977703094 
2.0499999999999017, -0.474047073433569 
2.059999999999923, -0.471809396188496 
2.069999999999944, -0.46864962377106567 
2.079999999999965, -0.4643336954068301 
2.089999999999986, -0.45892389423241936 
2.100000000000007, -0.4529263627414023 
2.1100000000000283, -0.4471050407668063 
2.1200000000000494, -0.44209104993493276 
2.1300000000000705, -0.438158334534881 
2.1400000000000916, -0.4352724075531834 
2.1500000000001127, -0.43324766609505405 
2.160000000000134, -0.4318700948795452 
2.170000000000155, -0.43095512810568837 
2.180000000000176, -0.4303627104797913 
2.190000000000197, -0.4299936215683447 
2.2000000000002182, -0.4297805950504422 
2.2100000000002393, -0.4296797963714124 
2.2200000000002604, -0.42966429867828715 
2.2300000000002815, -0.42971967543896666 
2.2400000000003026, -0.4298413463768038 
2.2500000000003237, -0.4300331387691757 
2.260000000000345, -0.4303063228952365 
2.270000000000366, -0.4306780640195186 
2.280000000000387, -0.4311679568936496 
2.290000000000408, -0.4317914611964871 
2.3000000000004293, -0.4325501723081616 
2.3100000000004504, -0.4334213486792395 
2.3200000000004715, -0.4343523863659494 
2.3300000000004926, -0.4352669693091592 
2.3400000000005137, -0.43608419714468116 
2.3500000000005348, -0.43674166455262664 
2.360000000000556, -0.4372088635512668 
2.370000000000577, -0.43748503123264787 
2.380000000000598, -0.4375869197370246 
2.390000000000619, -0.43753543280309215 
2.4000000000006403, -0.43734601578340265 
2.4100000000006614, -0.4370228932634789 
2.4200000000006825, -0.43655512674163094 
2.4300000000007036, -0.43591245330553463 
2.4400000000007247, -0.4350398223653496 
2.450000000000746, -0.43385147676403124 
2.460000000000767, -0.432229470777564 
2.470000000000788, -0.43003829470602656 
2.480000000000809, -0.4271715223035047 
2.49000000000083, -0.423631160282418 
2.5000000000008513, -0.4195946377155989 
2.5100000000008724, -0.41539397204283396 
2.5200000000008935, -0.4113936581097949 
2.5300000000009146, -0.40785842811889894 
2.5400000000009357, -0.40490239838923525 
2.550000000000957, -0.4025191031277453 
2.560000000000978, -0.4006386376580659 
2.570000000000999, -0.3991730911250925 
2.58000000000102, -0.3980413043762507 
2.5900000000010412, -0.3971784717689149 
2.6000000000010624, -0.3965378588977139 
2.6100000000010835, -0.39608952379747553 
2.6200000000011046, -0.3958185850389384 
2.6300000000011257, -0.3957241631258721 
2.6400000000011468, -0.3958194250819118 
2.650000000001168, -0.3961328296937153 
2.660000000001189, -0.3967103936942663 
2.67000000000121, -0.3976182664731692 
2.680000000001231, -0.3989437085523053 
2.6900000000012523, -0.40079024662404883 
2.7000000000012734, -0.40325936502145393 
2.7100000000012945, -0.4064091678334605 
2.7200000000013156, -0.41018848626399207 
2.7300000000013367, -0.4143742655463483 
2.740000000001358, -0.4185780702685564 
2.750000000001379, -0.4223687882067299 
2.7600000000014, -0.42544676923213276 
2.770000000001421, -0.42773042672738704 
2.780000000001442, -0.42930864650877265 
2.7900000000014633, -0.43033863276477635 
2.8000000000014844, -0.4309713238161401 
2.8100000000015055, -0.4313220384609653 
2.8200000000015266, -0.4314684218860637 
2.8300000000015477, -0.43145764632079275 
2.840000000001569, -0.43131412467968155 
2.85000000000159, -0.43104538091927447 
2.860000000001611, -0.4306465575114749 
2.870000000001632, -0.4301051466596221 
2.8800000000016532, -0.4294077979453152 
2.8900000000016743, -0.42855011462335624 
2.9000000000016954, -0.42754744138218265 
2.9100000000017165, -0.4264408124551604 
2.9200000000017377, -0.42529183864941433 
2.9300000000017588, -0.42416676589288943 
2.94000000000178, -0.4231183691739514 
2.950000000001801, -0.4221755145103888 
2.960000000001822, -0.42134345637891624 
2.970000000001843, -0.4206112085365059 
2.9800000000018643, -0.4199606187953725 
2.9900000000018854, -0.41937360955799174 
3.0000000000019065, -0.41883647696232645 
3.0100000000019276, -0.4183417909889696 
3.0200000000019487, -0.41788911510647886 
3.03000000000197, -0.41748574338337885 
3.040000000001991, -0.4171483532876078 
3.050000000002012, -0.4169062053163139 
3.060000000002033, -0.416806344467844 
3.070000000002054, -0.4169209416144374 
3.0800000000020753, -0.41735583467951687 
3.0900000000020964, -0.4182562209561417 
3.1000000000021175, -0.41979839340322245 
3.1100000000021386, -0.42214522918031844 
3.1200000000021597, -0.42533924695324804 
3.130000000002181, -0.4291485085018841 
3.140000000002202, -0.4329989092307346 
3.150000000002223, -0.43618850551482735 
3.160000000002244, -0.4383085949901392 
3.1700000000022652, -0.43943902891718956 
3.1800000000022863, -0.4399367446628467 
3.1900000000023074, -0.4401369352068378 
3.2000000000023285, -0.44023355437675404 
3.2100000000023496, -0.4403044146794824 
3.2200000000023707, -0.44036771234515665 
3.230000000002392, -0.4404200160147214 
3.240000000002413, -0.4404534305864719 
3.250000000002434, -0.44046111848381686 
3.260000000002455, -0.4404381122227107 
3.2700000000024763, -0.44038088410330634 
3.2800000000024974, -0.4402871415162098 
3.2900000000025185, -0.44015642655735776 
3.3000000000025396, -0.43999161099472966 
3.3100000000025607, -0.43980081645660346 
3.3200000000025818, -0.43959858122265183 
3.330000000002603, -0.439404719254992 
3.340000000002624, -0.43924000813229025 
3.350000000002645, -0.4391196359367736 
3.360000000002666, -0.43904707899964457 
3.3700000000026873, -0.4390114406617943 
3.3800000000027084, -0.4389899188562838 
3.3900000000027295, -0.4389545626199114 
3.4000000000027506, -0.43888009995251365 
3.4100000000027717, -0.4387491394355288 
3.420000000002793, -0.4385530386425584 
3.430000000002814, -0.43828940127885546 
3.440000000002835, -0.4379583354527239 
3.450000000002856, -0.43755902890781206 
3.460000000002877, -0.43708702128693266 
3.4700000000028983, -0.43653162959368 
3.4800000000029194, -0.43587232808505066 
3.4900000000029405, -0.4350721060431958 
3.5000000000029616, -0.4340647258141076 
3.5100000000029827, -0.43273246274512533 
3.520000000003004, -0.43087636049921096 
3.530000000003025, -0.42820344802466764 
3.540000000003046, -0.4243964227562474 
3.550000000003067, -0.41932666787151274 
3.5600000000030882, -0.4133025598447001 
3.5700000000031094, -0.4070505400590556 
3.5800000000031305, -0.401347673526967 
3.5900000000031516, -0.3966619833969063 
3.6000000000031727, -0.3930886305692823 
3.6100000000031938, -0.3904922695164639 
3.620000000003215, -0.3886612708135283 
3.630000000003236, -0.38739497590972327 
3.640000000003257, -0.3865342734067631 
3.650000000003278, -0.38596373876099005 
3.6600000000032993, -0.38560408725711265 
3.6700000000033204, -0.3854034333535509 
3.6800000000033415, -0.3853302239613753 
3.6900000000033626, -0.38536837586339734 
3.7000000000033837, -0.3855143622308116 
3.710000000003405, -0.3857757526238883 
3.720000000003426, -0.38617052772367216 
3.730000000003447, -0.38672614162155833 
3.740000000003468, -0.387476741809324 
3.750000000003489, -0.3884563719520171 
3.7600000000035103, -0.3896860542491546 
3.7700000000035314, -0.3911548752983096 
3.7800000000035525, -0.3928012640446995 
3.7900000000035736, -0.3945085769355984 
3.8000000000035947, -0.39612858245203775 
3.810000000003616, -0.3975275848096812 
3.820000000003637, -0.3986267940504042 
3.830000000003658, -0.39941160795152425 
3.840000000003679, -0.39991221964594664 
3.8500000000037002, -0.4001761116482845 
3.8600000000037213, -0.4002478717493377 
3.8700000000037424, -0.40015923754830085 
3.8800000000037635, -0.3999257514351757 
3.8900000000037847, -0.39954606070782 
3.9000000000038058, -0.3990018087612363 
3.910000000003827, -0.39825823032296265 
3.920000000003848, -0.39726778136864055 
3.930000000003869, -0.3959810924206766 
3.94000000000389, -0.3943688845651263 
3.9500000000039113, -0.39245098026221825 
3.9600000000039324, -0.39031506593926274 
3.9700000000039535, -0.3881038646226537 
3.9800000000039746, -0.3859706863393939 
3.9900000000039957, -0.38403202656230906 
4.000000000004016, -0.3823459084942241 
4.010000000003993, -0.3809189022704985 
4.02000000000397, -0.37972643955306096 
4.030000000003946, -0.3787321429041418 
4.040000000003923, -0.3779005412113126 
4.0500000000039, -0.37720352540739455 
4.0600000000038765, -0.3766228646961104 
4.070000000003853, -0.3761510063783749 
4.08000000000383, -0.3757917343925809 
4.090000000003807, -0.3755616952179247 
4.100000000003783, -0.37549346820865476 
4.11000000000376, -0.3756406864669583 
4.120000000003737, -0.37608545307601493 
4.130000000003713, -0.3769473959642233 
4.14000000000369, -0.37839101294896826 
4.150000000003667, -0.3806215208816175 
4.1600000000036434, -0.3838479823329485 
4.17000000000362, -0.3881834114063263 
4.180000000003597, -0.3934775409885435 
4.1900000000035735, -0.3991849479793485 
4.20000000000355, -0.40448377795026047 
4.210000000003527, -0.4086908566839007 
4.220000000003504, -0.411604732727024 
4.23000000000348, -0.4134448110424199 
4.240000000003457, -0.4145630908592259 
4.250000000003434, -0.41524633109899856 
4.26000000000341, -0.41567308923243573 
4.270000000003387, -0.4159413499896886 
4.280000000003364, -0.4161026108504534 
4.2900000000033405, -0.4161840584771917 
4.300000000003317, -0.41620020050526696 
4.310000000003294, -0.416158522406331 
4.320000000003271, -0.41606245732065367 
4.330000000003247, -0.41591355374087613 
4.340000000003224, -0.4157138411031969 
4.350000000003201, -0.41546868952703253 
4.360000000003177, -0.4151895962410543 
4.370000000003154, -0.41489542701776483 
4.380000000003131, -0.4146104555785267 
4.390000000003107, -0.41435881508942424 
4.400000000003084, -0.414157182832075 
4.410000000003061, -0.41400894380042497 
4.4200000000030375, -0.413902618938047 
4.430000000003014, -0.4138154086890329 
4.440000000002991, -0.4137202849573064 
4.450000000002968, -0.4135933066862748 
4.460000000002944, -0.41341798767843124 
4.470000000002921, -0.4131856375537165 
4.480000000002898, -0.41289283991022063 
4.490000000002874, -0.4125379678811372 
4.500000000002851, -0.41211794971025856 
4.510000000002828, -0.4116254131162987 
4.520000000002804, -0.41104546581791646 
4.530000000002781, -0.41035062249559723 
4.540000000002758, -0.4094914370578189 
4.5500000000027345, -0.40837941815537127 
4.560000000002711, -0.4068601431872286 
4.570000000002688, -0.40468581335419723 
4.580000000002665, -0.4015288478050477 
4.590000000002641, -0.39711333641787533 
4.600000000002618, -0.3914756513139429 
4.610000000002595, -0.3851375417816126 
4.620000000002571, -0.378914230621965 
4.630000000002548, -0.37348834272398274 
4.640000000002525, -0.36916312744269014 
4.6500000000025015, -0.36591515726334745 
4.660000000002478, -0.3635626297648082 
4.670000000002455, -0.36189387193739636 
4.6800000000024315, -0.36072653199150667 
4.690000000002408, -0.35992263754153797 
4.700000000002385, -0.3593850180082431 
4.710000000002362, -0.35904885251511887 
4.720000000002338, -0.3588738013498769 
4.730000000002315, -0.3588382614429297 
4.740000000002292, -0.35893582428534987 
4.750000000002268, -0.35917356876925044 
4.760000000002245, -0.35957164562110683 
4.770000000002222, -0.3601633282181853 
4.7800000000021985, -0.36099409344003697 
4.790000000002175, -0.3621172556075708 
4.800000000002152, -0.36358248549627503 
4.810000000002129, -0.36541363112091263 
4.820000000002105, -0.36757707717724253 
4.830000000002082, -0.36995467742450605 
4.840000000002059, -0.37234887753654317 
4.850000000002035, -0.37453764947559526 
4.860000000002012, -0.37635328054471845 
4.870000000001989, -0.3777289555208685 
4.880000000001965, -0.37868761295144526 
