t, s[1].omega / s[0].omega 
0, -0.5699977356399325 
0.009999999999999995, -0.5697689570154036 
0.019999999999999934, -0.5695331524839101 
0.029999999999999874, -0.5692843005667828 
0.04000000000000012, -0.5690154108623633 
0.050000000000000405, -0.5687212219675165 
0.06000000000000069, -0.5683997491361426 
0.07000000000000098, -0.5680525186620184 
0.08000000000000126, -0.5676841341954597 
0.09000000000000155, -0.5673019935223629 
0.10000000000000184, -0.5669167219637156 
0.11000000000000212, -0.5665435820980583 
0.12000000000000241, -0.5662049175625996 
0.130000000000002, -0.5659335139794638 
0.1400000000000009, -0.5657764068053671 
0.1499999999999998, -0.565797867616791 
0.1599999999999987, -0.5660788242193784 
0.1699999999999976, -0.5667080014165953 
0.1799999999999965, -0.5677592128074165 
0.1899999999999954, -0.5692536688343459 
0.1999999999999943, -0.5711204892448231 
0.2099999999999932, -0.5731868566095065 
0.2199999999999921, -0.5752248339737878 
0.229999999999991, -0.5770363726039788 
0.2399999999999899, -0.5785154251219463 
0.2499999999999888, -0.5796491898250984 
0.2599999999999877, -0.5804794705891325 
0.2699999999999866, -0.5810641653872854 
0.2799999999999855, -0.5814564401674746 
0.2899999999999844, -0.5816982053688028 
0.2999999999999833, -0.581820038605983 
0.3099999999999822, -0.5818427726459392 
0.3199999999999811, -0.5817789732284819 
0.32999999999998, -0.5816339471654202 
0.3399999999999789, -0.5814064283914993 
0.3499999999999778, -0.5810893324716238 
0.35999999999997667, -0.580671202225027 
0.36999999999997557, -0.5801391259519553 
0.37999999999997447, -0.5794836453806556 
0.38999999999997337, -0.5787050349734327 
0.39999999999997227, -0.5778184897826977 
0.40999999999997117, -0.5768547509782846 
0.41999999999997006, -0.5758544958615517 
0.42999999999996896, -0.574858859342061 
0.43999999999996786, -0.5739010429629717 
0.44999999999996676, -0.5730026084936604 
0.45999999999996566, -0.5721745630478685 
0.46999999999996456, -0.5714210221585345 
0.47999999999996346, -0.5707431501370737 
0.48999999999996235, -0.5701421645083065 
0.49999999999996125, -0.5696212164103597 
0.5099999999999602, -0.5691864498308471 
0.519999999999959, -0.5688476049876614 
0.529999999999958, -0.5686184123350151 
0.5399999999999568, -0.5685168805027659 
0.5499999999999557, -0.5685654515743245 
0.5599999999999546, -0.568790846333424 
0.5699999999999535, -0.5692231923638225 
0.5799999999999524, -0.5698936828083407 
0.5899999999999513, -0.5708296230436287 
0.5999999999999502, -0.5720456292910251 
0.6099999999999491, -0.5735307486762945 
0.619999999999948, -0.5752344067046962 
0.6299999999999469, -0.5770590836325995 
0.6399999999999458, -0.5788702437472211 
0.6499999999999447, -0.5805270933569944 
0.6599999999999436, -0.5819214578179599 
0.6699999999999425, -0.5830022137135537 
0.6799999999999414, -0.5837732763633923 
0.6899999999999403, -0.584273090905687 
0.6999999999999392, -0.5845517038254189 
0.7099999999999381, -0.5846552220793846 
0.719999999999937, -0.5846186280627399 
0.7299999999999359, -0.5844638287232373 
0.7399999999999348, -0.5841997660859285 
0.7499999999999337, -0.5838226684596988 
0.7599999999999326, -0.5833156720856375 
0.7699999999999315, -0.5826479572990768 
0.7799999999999304, -0.5817745875546774 
0.7899999999999293, -0.5806397162300434 
0.7999999999999282, -0.5791872458486675 
0.8099999999999271, -0.5773820797305673 
0.819999999999926, -0.5752382688866444 
0.8299999999999249, -0.5728387472545458 
0.8399999999999238, -0.5703274384415601 
0.8499999999999227, -0.5678709866839725 
0.8599999999999216, -0.5656119898563421 
0.8699999999999205, -0.5636402572555033 
0.8799999999999194, -0.5619903209743792 
0.8899999999999183, -0.5606556007621919 
0.8999999999999172, -0.5596062136090325 
0.9099999999999161, -0.5588030315190496 
0.919999999999915, -0.5582063491245128 
0.9299999999999139, -0.5577802776155222 
0.9399999999999128, -0.5574944936478468 
0.9499999999999117, -0.5573245970389558 
0.9599999999999106, -0.5572518376567269 
0.9699999999999095, -0.557262608367157 
0.9799999999999084, -0.5573478733626349 
0.9899999999999073, -0.5575025436594845 
0.9999999999999062, -0.5577246599736144 
1.0099999999999052, -0.558014079336254 
1.019999999999904, -0.5583702634266153 
1.029999999999903, -0.5587889365794239 
1.039999999999902, -0.5592580538082272 
1.0499999999999008, -0.5597546438413314 
1.0599999999998997, -0.5602449318502097 
1.0699999999998986, -0.5606893993413115 
1.0799999999998975, -0.5610515923546651 
1.0899999999998964, -0.5613064535222417 
1.0999999999998953, -0.5614438860643606 
1.1099999999998942, -0.5614665647771412 
1.119999999999893, -0.5613844183022483 
1.129999999999892, -0.5612089455122716 
1.1399999999998909, -0.5609491135132822 
1.1499999999998898, -0.560608975672854 
1.1599999999998887, -0.5601863549197229 
1.1699999999998876, -0.5596718366341423 
1.1799999999998865, -0.55904748496839 
1.1899999999998854, -0.5582849222559176 
1.1999999999998843, -0.5573428111770358 
1.2099999999998832, -0.5561648777806175 
1.219999999999882, -0.5546822552692589 
1.229999999999881, -0.5528279343602394 
1.2399999999998799, -0.5505714003934444 
1.2499999999998788, -0.5479669785170851 
1.2599999999998777, -0.5451806283238709 
1.2699999999998766, -0.5424544874097202 
1.2799999999998755, -0.540018990651504 
1.2899999999998744, -0.5380159576821437 
1.2999999999998733, -0.5364794983607788 
1.3099999999998722, -0.5353651148829643 
1.319999999999871, -0.5345917166851157 
1.32999999999987, -0.5340731813448337 
1.3399999999998689, -0.5337346135614587 
1.3499999999998678, -0.5335174744944297 
1.3599999999998666, -0.5333788748463308 
1.3699999999998655, -0.5332886592659284 
1.3799999999998644, -0.5332261901199804 
1.3899999999998633, -0.533177654162069 
1.3999999999998622, -0.5331341646274912 
1.4099999999998611, -0.533090664647619 
1.41999999999986, -0.5330454490879731 
1.429999999999859, -0.5329999001016741 
1.4399999999998578, -0.5329578219648036 
1.4499999999998567, -0.5329237918405574 
1.4599999999998556, -0.5329004631915101 
1.4699999999998545, -0.5328856720873254 
1.4799999999998534, -0.5328708824165865 
1.4899999999998523, -0.5328422134878419 
1.4999999999998512, -0.5327839089685424 
1.5099999999998501, -0.5326825491647222 
1.519999999999849, -0.5325298958858115 
1.529999999999848, -0.5323233467546264 
1.5399999999998468, -0.5320645099299939 
1.5499999999998457, -0.5317571590304895 
1.5599999999998446, -0.5314056024632424 
1.5699999999998435, -0.5310139087770958 
1.5799999999998424, -0.5305859925825785 
1.5899999999998413, -0.5301263752430233 
1.5999999999998402, -0.5296413157751977 
1.6099999999998391, -0.5291397242536908 
1.619999999999838, -0.5286326494097688 
1.629999999999837, -0.5281293287808547 
1.6399999999998358, -0.5276279748132962 
1.6499999999998347, -0.527103442383574 
1.6599999999998336, -0.52650346631591 
1.6699999999998325, -0.5257714618458944 
1.6799999999998314, -0.5248951077429935 
1.6899999999998303, -0.5239394307096013 
1.6999999999998292, -0.5230216254444445 
1.709999999999828, -0.5222469788449817 
1.719999999999827, -0.5216646321010716 
1.729999999999826, -0.5212676132369294 
1.7399999999998248, -0.5210173731426964 
1.7499999999998237, -0.5208676542883002 
1.7599999999998226, -0.5207778668173724 
1.7699999999998215, -0.5207173624347301 
1.7799999999998204, -0.5206648210842088 
1.7899999999998193, -0.5206059270152698 
1.7999999999998182, -0.5205309849066158 
1.809999999999817, -0.520433151853873 
1.819999999999816, -0.5203075114422746 
1.8299999999998149, -0.5201510244101375 
1.8399999999998138, -0.5199632088377025 
1.8499999999998127, -0.5197470890982115 
1.8599999999998116, -0.5195095870033632 
1.8699999999998105, -0.5192604777741748 
1.8799999999998094, -0.5190096790102974 
1.8899999999998083, -0.518763803054884 
1.8999999999998072, -0.5185237015854316 
1.909999999999806, -0.5182843696192305 
1.919999999999805, -0.5180372160088016 
1.9299999999998039, -0.517773370912918 
1.9399999999998028, -0.5174863634755864 
1.9499999999998017, -0.5171732672414517 
1.9599999999998006, -0.5168345061830353 
1.9699999999997995, -0.5164731281567948 
1.9799999999997984, -0.5160943228618105 
1.9899999999997973, -0.5157056341385595 
1.9999999999997962, -0.5153180256199723 
2.0099999999998173, -0.5149477765693942 
2.0199999999998384, -0.5146189738559552 
2.0299999999998595, -0.5143658805398709 
2.0399999999998806, -0.5142334275842144 
2.0499999999999017, -0.5142724578162629 
2.059999999999923, -0.5145252077373492 
2.069999999999944, -0.5149993585227371 
2.079999999999965, -0.5156407331454257 
2.089999999999986, -0.5163314289308244 
2.100000000000007, -0.5169359018436932 
2.1100000000000283, -0.5173713588356714 
2.1200000000000494, -0.5176397290174537 
2.1300000000000705, -0.5177967000078021 
2.1400000000000916, -0.517900264428354 
2.1500000000001127, -0.5179836465888881 
2.160000000000134, -0.5180561401478575 
2.170000000000155, -0.5181142811542653 
2.180000000000176, -0.518150999277511 
2.190000000000197, -0.5181599419493557 
2.2000000000002182, -0.5181364344472016 
2.2100000000002393, -0.5180769491679281 
2.2200000000002604, -0.5179782668748406 
2.2300000000002815, -0.5178369324498956 
2.2400000000003026, -0.5176493262725674 
2.2500000000003237, -0.5174125341046538 
2.260000000000345, -0.5171259800146044 
2.270000000000366, -0.516793336888756 
2.280000000000387, -0.516423673390001 
2.290000000000408, -0.5160306637965535 
2.3000000000004293, -0.5156295151755882 
2.3100000000004504, -0.515232766044426 
2.3200000000004715, -0.5148470589220849 
2.3300000000004926, -0.5144724606167987 
2.3400000000005137, -0.5141043344481385 
2.3500000000005348, -0.5137364311940159 
2.360000000000556, -0.5133636229712314 
2.370000000000577, -0.512983435687015 
2.380000000000598, -0.5125964873364739 
2.390000000000619, -0.5122064720045308 
2.4000000000006403, -0.5118203458226904 
2.4100000000006614, -0.5114491403923315 
2.4200000000006825, -0.5111095993085801 
2.4300000000007036, -0.5108266519177727 
2.4400000000007247, -0.5106364799813392 
2.450000000000746, -0.5105893607225698 
2.460000000000767, -0.5107502942873942 
2.470000000000788, -0.5111935481877855 
2.480000000000809, -0.5119856059916796 
2.49000000000083, -0.5131530745906145 
2.5000000000008513, -0.5146437055655684 
2.5100000000008724, -0.5163089849090138 
2.5200000000008935, -0.5179418360478033 
2.5300000000009146, -0.5193616396282861 
2.5400000000009357, -0.5204823851221376 
2.550000000000957, -0.5213127361316732 
2.560000000000978, -0.5219087459870669 
2.570000000000999, -0.5223302016197768 
2.58000000000102, -0.5226222509995788 
2.5900000000010412, -0.5228146241875986 
2.6000000000010624, -0.5229262199089433 
2.6100000000010835, -0.5229690802751302 
2.6200000000011046, -0.5229506085800056 
2.6300000000011257, -0.5228745551728602 
2.6400000000011468, -0.5227414625442679 
2.650000000001168, -0.5225491088133777 
2.660000000001189, -0.5222933942181791 
2.67000000000121, -0.5219700413548843 
2.680000000001231, -0.5215772202538403 
2.6900000000012523, -0.5211185776461958 
2.7000000000012734, -0.5206053123628201 
2.7100000000012945, -0.5200556558638928 
2.7200000000013156, -0.5194911933174324 
2.7300000000013367, -0.5189314930274124 
2.740000000001358, -0.5183897539245347 
2.750000000001379, -0.5178714340095314 
2.7600000000014, -0.5173758646376495 
2.770000000001421, -0.5168993747470575 
2.780000000001442, -0.5164382816087112 
2.7900000000014633, -0.5159908825978403 
2.8000000000014844, -0.5155584830178687 
2.8100000000015055, -0.5151459817907338 
2.8200000000015266, -0.5147625747261005 
2.8300000000015477, -0.5144229560519281 
2.840000000001569, -0.5141491971022536 
2.85000000000159, -0.5139732903585191 
2.860000000001611, -0.5139400639269633 
2.870000000001632, -0.5141095994722703 
2.8800000000016532, -0.5145571847064685 
2.8900000000016743, -0.5153671174355037 
2.9000000000016954, -0.5166151052898696 
2.9100000000017165, -0.5183354554901931 
2.9200000000017377, -0.520478957601809 
2.9300000000017588, -0.5228864578578634 
2.94000000000178, -0.525313884728432 
2.950000000001801, -0.5275151916914816 
2.960000000001822, -0.5293312406551853 
2.970000000001843, -0.5307203901469368 
2.9800000000018643, -0.5317256140850927 
2.9900000000018854, -0.5324228917643961 
3.0000000000019065, -0.5328862498408072 
3.0100000000019276, -0.5331743023891691 
3.0200000000019487, -0.5333290354114839 
3.03000000000197, -0.5333786409974459 
3.040000000001991, -0.5333405988866631 
3.050000000002012, -0.5332239631532557 
3.060000000002033, -0.533030924299052 
3.070000000002054, -0.5327580961369256 
3.0800000000020753, -0.5323981524327688 
3.0900000000020964, -0.5319425017816961 
3.1000000000021175, -0.5313854136031677 
3.1100000000021386, -0.5307290699352653 
3.1200000000021597, -0.529987565440683 
3.130000000002181, -0.5291871156880389 
3.140000000002202, -0.5283611886210113 
3.150000000002223, -0.5275425287300564 
3.160000000002244, -0.5267561917989647 
3.1700000000022652, -0.5260166546564318 
3.1800000000022863, -0.5253291388919179 
3.1900000000023074, -0.5246932142679804 
3.2000000000023285, -0.5241065827979068 
3.2100000000023496, -0.5235679163172576 
3.2200000000023707, -0.5230786300169725 
3.230000000002392, -0.5226439977989784 
3.240000000002413, -0.5222740849903914 
3.250000000002434, -0.5219848260830439 
3.260000000002455, -0.5217993865711446 
3.2700000000024763, -0.5217497622318107 
3.2800000000024974, -0.5218783271370939 
3.2900000000025185, -0.5222386234841949 
3.3000000000025396, -0.5228939561142453 
3.3100000000025607, -0.5239112942470727 
3.3200000000025818, -0.5253470833361005 
3.330000000002603, -0.5272225432974793 
3.340000000002624, -0.5294919987840389 
3.350000000002645, -0.5320200561349754 
3.360000000002666, -0.5345930714298854 
3.3700000000026873, -0.5369769915982496 
3.3800000000027084, -0.5389942192719309 
3.3900000000027295, -0.5405685489513918 
3.4000000000027506, -0.5417156291584753 
3.4100000000027717, -0.5425019314959042 
3.420000000002793, -0.5430059749162206 
3.430000000002814, -0.543296573602392 
3.440000000002835, -0.5434256168753591 
3.450000000002856, -0.5434282408218161 
3.460000000002877, -0.5433252886107625 
3.4700000000028983, -0.543125728233915 
3.4800000000029194, -0.5428284167387084 
3.4900000000029405, -0.5424234979237428 
3.5000000000029616, -0.5418942926292836 
3.5100000000029827, -0.5412209549299815 
3.520000000003004, -0.5403870671456266 
3.530000000003025, -0.5393889450910775 
3.540000000003046, -0.5382444827213904 
3.550000000003067, -0.5369958983343472 
3.5600000000030882, -0.5357025151214814 
3.5700000000031094, -0.5344261792518643 
3.5800000000031305, -0.5332172186980351 
3.5900000000031516, -0.5321074927317767 
3.6000000000031727, -0.5311113143941649 
3.6100000000031938, -0.5302308337226505 
3.620000000003215, -0.5294621102554179 
3.630000000003236, -0.5287998159909159 
3.640000000003257, -0.5282401654679232 
3.650000000003278, -0.5277824936110398 
3.6600000000032993, -0.5274300601885618 
3.6700000000033204, -0.5271905214140409 
3.6800000000033415, -0.5270763129185739 
3.6900000000033626, -0.5271050110133463 
3.7000000000033837, -0.5272995598429017 
3.710000000003405, -0.5276880085780778 
3.720000000003426, -0.5283020345718048 
3.730000000003447, -0.5291730475359382 
3.740000000003468, -0.530324324476831 
3.750000000003489, -0.5317581580040198 
3.7600000000035103, -0.5334396782704125 
3.7700000000035314, -0.5352844236375758 
3.7800000000035525, -0.5371616676125662 
3.7900000000035736, -0.5389216318528013 
3.8000000000035947, -0.5404378712463757 
3.810000000003616, -0.5416403199129344 
3.820000000003637, -0.5425203777422435 
3.830000000003658, -0.5431120065081096 
3.840000000003679, -0.5434664295459846 
3.8500000000037002, -0.5436335538703636 
3.8600000000037213, -0.5436528465998255 
3.8700000000037424, -0.5435506598183991 
3.8800000000037635, -0.5433403884586161 
3.8900000000037847, -0.5430231849315594 
3.9000000000038058, -0.5425883101166152 
3.910000000003827, -0.5420132213457617 
3.920000000003848, -0.5412644598213207 
3.930000000003869, -0.5403014851242663 
3.94000000000389, -0.5390862689911277 
3.9500000000039113, -0.5375999245021372 
3.9600000000039324, -0.5358620358186987 
3.9700000000039535, -0.5339410769503165 
3.9800000000039746, -0.5319444815000204 
3.9900000000039957, -0.5299900907211577 
4.000000000004016, -0.5281754278202326 
4.010000000003993, -0.5265609980190652 
4.02000000000397, -0.525170792173188 
4.030000000003946, -0.5240027150510823 
4.040000000003923, -0.5230405757044444 
4.0500000000039, -0.5222632171883965 
4.0600000000038765, -0.5216499920016473 
4.070000000003853, -0.5211834522805018 
4.08000000000383, -0.5208503908350223 
4.090000000003807, -0.5206420896061341 
4.100000000003783, -0.5205542791786104 
4.11000000000376, -0.5205870361856058 
4.120000000003737, -0.520744639726312 
4.130000000003713, -0.5210352192566223 
4.14000000000369, -0.521469803562405 
4.150000000003667, -0.522060121706638 
4.1600000000036434, -0.5228143408244865 
4.17000000000362, -0.5237302144567108 
4.180000000003597, -0.5247864272965465 
4.1900000000035735, -0.5259354959732451 
4.20000000000355, -0.527104058346698 
4.210000000003527, -0.528205179202514 
4.220000000003504, -0.5291600154664147 
4.23000000000348, -0.5299177190145012 
4.240000000003457, -0.530462539098955 
4.250000000003434, -0.5308068025767673 
4.26000000000341, -0.5309772763006879 
4.270000000003387, -0.5310028978251842 
4.280000000003364, -0.5309071843693128 
4.2900000000033405, -0.5307046964313707 
4.300000000003317, -0.530399637223119 
4.310000000003294, -0.5299849833967959 
4.320000000003271, -0.5294413008051209 
4.330000000003247, -0.5287352353141718 
4.340000000003224, -0.5278187937184511 
4.350000000003201, -0.5266322414286317 
4.360000000003177, -0.5251152521767973 
4.370000000003154, -0.5232301864848063 
4.380000000003131, -0.5209935902086934 
4.390000000003107, -0.5184980591696423 
4.400000000003084, -0.5159017831829924 
4.410000000003061, -0.5133833986436376 
4.4200000000030375, -0.5110894014868842 
4.430000000003014, -0.5091049906805282 
4.440000000002991, -0.50745548566078 
4.450000000002968, -0.5061249663704747 
4.460000000002944, -0.5050768103623281 
4.470000000002921, -0.5042685696021543 
4.480000000002898, -0.5036603144319589 
4.490000000002874, -0.5032182877693757 
4.500000000002851, -0.5029159180523772 
4.510000000002828, -0.502733621244804 
4.520000000002804, -0.5026581942081331 
4.530000000002781, -0.502682170206329 
4.540000000002758, -0.502803237251648 
4.5500000000027345, -0.5030236216486632 
4.560000000002711, -0.5033491378323799 
4.570000000002688, -0.5037873837258555 
4.580000000002665, -0.5043444177884724 
4.590000000002641, -0.5050194694519712 
4.600000000002618, -0.5057982172754163 
4.610000000002595, -0.5066470551708779 
4.620000000002571, -0.5075125792770374 
4.630000000002548, -0.5083298100358865 
4.640000000002525, -0.5090376905138126 
4.6500000000025015, -0.5095942561830661 
4.660000000002478, -0.5099832270354764 
4.670000000002455, -0.5102101179723338 
4.6800000000024315, -0.5102925956544664 
4.690000000002408, -0.510250963271397 
4.700000000002385, -0.5101016916539592 
4.710000000002362, -0.5098539264350135 
4.720000000002338, -0.5095076593709187 
4.730000000002315, -0.5090522982681136 
4.740000000002292, -0.5084649026278387 
4.750000000002268, -0.5077081006259131 
4.760000000002245, -0.5067289003143973 
4.770000000002222, -0.505461592552271 
4.7800000000021985, -0.5038401543022524 
4.790000000002175, -0.5018247617169472 
4.800000000002152, -0.49943765444675775 
4.810000000002129, -0.49678681140108044 
4.820000000002105, -0.4940509859354374 
4.830000000002082, -0.4914255999551367 
4.840000000002059, -0.48906372889284055 
4.850000000002035, -0.4870471344405776 
4.860000000002012, -0.48539217755913144 
4.870000000001989, -0.48407302500697824 
4.880000000001965, -0.48304478933121214 
4.890000000001942, -0.48225920200124667 
4.900000000001919, -0.48167278426602766 
4.9100000000018955, -0.481250008623573 
4.920000000001872, -0.48096382173158253 
