t, s[1].omega / s[0].omega 
0, -0.48999775998715245 
0.009999999999999995, -0.48979502691374793 
0.019999999999999934, -0.4896267748442611 
0.029999999999999874, -0.48947314038464784 
0.04000000000000012, -0.4893092326721623 
0.050000000000000405, -0.48911291517698385 
0.06000000000000069, -0.4888696843027874 
0.07000000000000098, -0.48857348127281275 
0.08000000000000126, -0.4882247704403503 
0.09000000000000155, -0.48782809454721693 
0.10000000000000184, -0.48739071874145273 
0.11000000000000212, -0.4869230690981633 
0.12000000000000241, -0.48644115906268476 
0.130000000000002, -0.4859709707952223 
0.1400000000000009, -0.48555416281246966 
0.1499999999999998, -0.48525229681323073 
0.1599999999999987, -0.4851410806242874 
0.1699999999999976, -0.4852759073043485 
0.1799999999999965, -0.4856042903783725 
0.1899999999999954, -0.48583790869519233 
0.1999999999999943, -0.4854230437868926 
0.2099999999999932, -0.4838322794658838 
0.2199999999999921, -0.48106649094005693 
0.229999999999991, -0.4777599023848091 
0.2399999999999899, -0.47469126343852386 
0.2499999999999888, -0.4723102412180906 
0.2599999999999877, -0.4706827460231593 
0.2699999999999866, -0.4696693014898413 
0.2799999999999855, -0.46908458865490665 
0.2899999999999844, -0.4687713293400832 
0.2999999999999833, -0.46861712105931674 
0.3099999999999822, -0.4685482954415778 
0.3199999999999811, -0.46851875682155536 
0.32999999999998, -0.46850031901442957 
0.3399999999999789, -0.46847601404856415 
0.3499999999999778, -0.4684362232202714 
0.35999999999997667, -0.4683771395519421 
0.36999999999997557, -0.46830094043840453 
0.37999999999997447, -0.4682166751864412 
0.38999999999997337, -0.46814031018451085 
0.39999999999997227, -0.4680922318381783 
0.40999999999997117, -0.46809150443863007 
0.41999999999997006, -0.46814819933814117 
0.42999999999996896, -0.46825695195210215 
0.43999999999996786, -0.4683952820313452 
0.44999999999996676, -0.4685285202698323 
0.45999999999996566, -0.46861969076646737 
0.46999999999996456, -0.4686394277637276 
0.47999999999996346, -0.4685710337929991 
0.48999999999996235, -0.46840940882470034 
0.49999999999996125, -0.4681562408195501 
0.5099999999999602, -0.4678146359275986 
0.519999999999959, -0.46738490538839345 
0.529999999999958, -0.4668615290423519 
0.5399999999999568, -0.46623027827330626 
0.5499999999999557, -0.4654637576640588 
0.5599999999999546, -0.46451245544438136 
0.5699999999999535, -0.46328630120667647 
0.5799999999999524, -0.46162013235548977 
0.5899999999999513, -0.4592237742218771 
0.5999999999999502, -0.45565527279191353 
0.6099999999999491, -0.45043239019388503 
0.619999999999948, -0.4433916119277499 
0.6299999999999469, -0.43508367726088537 
0.6399999999999458, -0.4266664284133951 
0.6499999999999447, -0.41925186596946923 
0.6599999999999436, -0.41339438712864685 
0.6699999999999425, -0.4091004795902037 
0.6799999999999414, -0.4060978144025027 
0.6899999999999403, -0.40405813876590224 
0.6999999999999392, -0.4027000511109364 
0.7099999999999381, -0.40181351362638373 
0.719999999999937, -0.40125229172309806 
0.7299999999999359, -0.40091871907820725 
0.7399999999999348, -0.40074989067993194 
0.7499999999999337, -0.40070749720290905 
0.7599999999999326, -0.400771144441077 
0.7699999999999315, -0.4009344265495298 
0.7799999999999304, -0.4012029536987711 
0.7899999999999293, -0.4015934363789822 
0.7999999999999282, -0.4021326028550548 
0.8099999999999271, -0.4028541961523605 
0.819999999999926, -0.40379183991104284 
0.8299999999999249, -0.40496586706536586 
0.8399999999999238, -0.40636462694736897 
0.8499999999999227, -0.40792674607242646 
0.8599999999999216, -0.4095381172473355 
0.8699999999999205, -0.41105597212223444 
0.8799999999999194, -0.4123535760144964 
0.8899999999999183, -0.4133577373971282 
0.8999999999999172, -0.4140559716147293 
0.9099999999999161, -0.4144769597975103 
0.919999999999915, -0.41466406965643055 
0.9299999999999139, -0.41465601311578376 
0.9399999999999128, -0.4144768612995472 
0.9499999999999117, -0.4141316939890366 
0.9599999999999106, -0.4136039279503689 
0.9699999999999095, -0.41285229428106895 
0.9799999999999084, -0.41180808269588454 
0.9899999999999073, -0.4103771444093837 
0.9999999999999062, -0.408456220050094 
1.0099999999999052, -0.4059743694178709 
1.019999999999904, -0.40295509376002175 
1.029999999999903, -0.3995601224689672 
1.039999999999902, -0.39606149059450735 
1.0499999999999008, -0.39274279521395716 
1.0599999999998997, -0.3898024475742399 
1.0699999999998986, -0.38732148919116505 
1.0799999999998975, -0.38528991252213096 
1.0899999999998964, -0.3836508828412612 
1.0999999999998953, -0.38233533478849796 
1.1099999999998942, -0.381281002326813 
1.119999999999893, -0.38044009152540376 
1.129999999999892, -0.3797810444929349 
1.1399999999998909, -0.3792882051998356 
1.1499999999998898, -0.3789615512330948 
1.1599999999998887, -0.3788176487962186 
1.1699999999998876, -0.37889253140136153 
1.1799999999998865, -0.3792470563095118 
1.1899999999998854, -0.3799751528947894 
1.1999999999998843, -0.38121472132341155 
1.2099999999998832, -0.3831586619102585 
1.219999999999882, -0.38605745328241603 
1.229999999999881, -0.3901921931844562 
1.2399999999998799, -0.3957810586891021 
1.2499999999998788, -0.40279040717390585 
1.2599999999998777, -0.4107178502910608 
1.2699999999998766, -0.4185893945852214 
1.2799999999998755, -0.42536826117430604 
1.2899999999998744, -0.4304902595334153 
1.2999999999998733, -0.4339989054735488 
1.3099999999998722, -0.43626752643316646 
1.319999999999871, -0.437697110967342 
1.32999999999987, -0.43858714027944395 
1.3399999999998689, -0.43912927112835637 
1.3499999999998678, -0.4394381893049085 
1.3599999999998666, -0.4395802902665157 
1.3699999999998655, -0.43959235972251703 
1.3799999999998644, -0.4394924653155236 
1.3899999999998633, -0.43928649729976366 
1.3999999999998622, -0.4389731040672394 
1.4099999999998611, -0.43854899711394557 
1.41999999999986, -0.438015572641377 
1.429999999999859, -0.4373859276930416 
1.4399999999998578, -0.4366890032789309 
1.4499999999998567, -0.4359669789057593 
1.4599999999998556, -0.4352653215649219 
1.4699999999998545, -0.4346201207407977 
1.4799999999998534, -0.4340493109430934 
1.4899999999998523, -0.43355132634029864 
1.4999999999998512, -0.4331102173829827 
1.5099999999998501, -0.4327037364945373 
1.519999999999849, -0.4323107608996586 
1.529999999999848, -0.4319158097309862 
1.5399999999998468, -0.4315103960781405 
1.5499999999998457, -0.4310924522926566 
1.5599999999998446, -0.4306654589090507 
1.5699999999998435, -0.4302384994989915 
1.5799999999998424, -0.42982792259575675 
1.5899999999998413, -0.42946093462724455 
1.5999999999998402, -0.4291810447051955 
1.6099999999998391, -0.429054019792812 
1.619999999999838, -0.4291692001111003 
1.629999999999837, -0.42962211097009134 
1.6399999999998358, -0.43045068958943755 
1.6499999999998347, -0.43149913701277337 
1.6599999999998336, -0.43226401735207653 
1.6699999999998325, -0.4319650654093781 
1.6799999999998314, -0.43006620428712045 
1.6899999999998303, -0.4268362772118682 
1.6999999999998292, -0.4231796890552074 
1.709999999999828, -0.41993275869603963 
1.719999999999827, -0.4174675972213347 
1.729999999999826, -0.41577596168150305 
1.7399999999998248, -0.4146898565657537 
1.7499999999998237, -0.41402497371174524 
1.7599999999998226, -0.41363428180609707 
1.7699999999998215, -0.4134150032654055 
1.7799999999998204, -0.4133000637489273 
1.7899999999998193, -0.413247585684664 
1.7999999999998182, -0.41323263022912693 
1.809999999999817, -0.41324181708533675 
1.819999999999816, -0.41327042192522423 
1.8299999999998149, -0.413321310717393 
1.8399999999998138, -0.4134048654920631 
1.8499999999998127, -0.41353868600900395 
1.8599999999998116, -0.413745536663275 
1.8699999999998105, -0.4140482352320549 
1.8799999999998094, -0.4144613041973666 
1.8899999999998083, -0.4149811528264492 
1.8999999999998072, -0.41557886282718215 
1.909999999999806, -0.4162009677738049 
1.919999999999805, -0.4167812144248055 
1.9299999999998039, -0.41725918512780263 
1.9399999999998028, -0.41759548663749413 
1.9499999999998017, -0.41777553783763244 
1.9599999999998006, -0.4178027414652231 
1.9699999999997995, -0.4176875117468894 
1.9799999999997984, -0.41743750127622026 
1.9899999999997973, -0.4170504171300182 
1.9999999999997962, -0.41650804941354247 
2.0099999999998173, -0.41576920255764593 
2.0199999999998384, -0.41475937901832427 
2.0299999999998595, -0.41335649284848486 
2.0399999999998806, -0.41137697316425986 
2.0499999999999017, -0.40857970085413475 
2.059999999999923, -0.4047245858927814 
2.069999999999944, -0.3997170050053835 
2.079999999999965, -0.39378063533889496 
2.089999999999986, -0.38747855524711017 
2.100000000000007, -0.3814836599565249 
2.1100000000000283, -0.3762836521255533 
2.1200000000000494, -0.3720646404660213 
2.1300000000000705, -0.36878268719135376 
2.1400000000000916, -0.3662879388418828 
2.1500000000001127, -0.3644127876226365 
2.160000000000134, -0.3630126326471518 
2.170000000000155, -0.3619771233024546 
2.180000000000176, -0.3612285812276007 
2.190000000000197, -0.36071683995830434 
2.2000000000002182, -0.36041446855044434 
2.2100000000002393, -0.36031375971083673 
2.2200000000002604, -0.36042585336670874 
2.2300000000002815, -0.3607820569807804 
2.2400000000003026, -0.36143728482576576 
2.2500000000003237, -0.36247514813759224 
2.260000000000345, -0.364013002629032 
2.270000000000366, -0.366202229352281 
2.280000000000387, -0.3692131025505669 
2.290000000000408, -0.3731860629260254 
2.3000000000004293, -0.3781331994400935 
2.3100000000004504, -0.38381241563732804 
2.3200000000004715, -0.3896803895502209 
2.3300000000004926, -0.3950532766645717 
2.3400000000005137, -0.399416911901673 
2.3500000000005348, -0.4026174136396638 
2.360000000000556, -0.40479481314841853 
2.370000000000577, -0.40620126983230886 
2.380000000000598, -0.4070713035574064 
2.390000000000619, -0.4075771490179892 
2.4000000000006403, -0.4078310367418162 
2.4100000000006614, -0.4079004142135029 
2.4200000000006825, -0.4078218628171073 
2.4300000000007036, -0.4076108743599585 
2.4400000000007247, -0.4072687077803615 
2.450000000000746, -0.40678855209552545 
2.460000000000767, -0.40616309902039804 
2.470000000000788, -0.40539431084778305 
2.480000000000809, -0.404503139577194 
2.49000000000083, -0.4035335835101711 
2.5000000000008513, -0.40254595530478765 
2.5100000000008724, -0.40160087217692586 
2.5200000000008935, -0.4007426987365463 
2.5300000000009146, -0.3999910331869368 
2.5400000000009357, -0.39934224001662766 
2.550000000000957, -0.39877738983127575 
2.560000000000978, -0.39827172187937376 
2.570000000000999, -0.39780218332433503 
2.58000000000102, -0.3973516431279028 
2.5900000000010412, -0.3969101435360402 
2.6000000000010624, -0.39647455732270537 
2.6100000000010835, -0.3960481272452395 
2.6200000000011046, -0.3956409483184537 
2.6300000000011257, -0.3952719937263049 
2.6400000000011468, -0.3949729157033438 
2.650000000001168, -0.3947931984388039 
2.660000000001189, -0.3948042386190146 
2.67000000000121, -0.39509444673975674 
2.680000000001231, -0.39573590439372763 
2.6900000000012523, -0.3966897607525544 
2.7000000000012734, -0.39763835555666355 
2.7100000000012945, -0.3978684801611714 
2.7200000000013156, -0.396530781633763 
2.7300000000013367, -0.3933491628980329 
2.740000000001358, -0.3890152077339811 
2.750000000001379, -0.3846460342986641 
2.7600000000014, -0.3810134129365886 
2.770000000001421, -0.3783400420802898 
2.780000000001442, -0.37651426514627906 
2.7900000000014633, -0.3753231399901279 
2.8000000000014844, -0.3745698069920777 
2.8100000000015055, -0.3741067716635765 
2.8200000000015266, -0.37383370359311774 
2.8300000000015477, -0.3736860861636364 
2.840000000001569, -0.3736244762984227 
2.85000000000159, -0.3736267889914477 
2.860000000001611, -0.37368356777964257 
2.870000000001632, -0.3737955970082998 
2.8800000000016532, -0.3739730645947613 
2.8900000000016743, -0.37423526813545643 
2.9000000000016954, -0.3746094844027844 
2.9100000000017165, -0.37512729681830853 
2.9200000000017377, -0.3758167837951393 
2.9300000000017588, -0.3766900424795065 
2.94000000000178, -0.37772833253474214 
2.950000000001801, -0.3788718745595995 
2.960000000001822, -0.38002463606101866 
2.970000000001843, -0.38107874667989783 
2.9800000000018643, -0.3819475960011566 
2.9900000000018854, -0.38258697632637056 
3.0000000000019065, -0.38299369477031847 
3.0100000000019276, -0.3831889811698127 
3.0200000000019487, -0.38320010028524865 
3.03000000000197, -0.38304748549300144 
3.040000000001991, -0.3827374880558319 
3.050000000002012, -0.3822579260060498 
3.060000000002033, -0.38157400037820854 
3.070000000002054, -0.3806240573035274 
3.0800000000020753, -0.3793180008363152 
3.0900000000020964, -0.3775464491409825 
3.1000000000021175, -0.3752133199157983 
3.1100000000021386, -0.37229709194600796 
3.1200000000021597, -0.36891373652545767 
3.130000000002181, -0.36532035198747015 
3.140000000002202, -0.3618287314510842 
3.150000000002223, -0.35868739625440543 
3.160000000002244, -0.35601941904540746 
3.1700000000022652, -0.3538355333926901 
3.1800000000022863, -0.35208169773040676 
3.1900000000023074, -0.3506820417988609 
3.2000000000023285, -0.34956429445419956 
3.2100000000023496, -0.3486707310826832 
3.2200000000023707, -0.3479610624084553 
3.230000000002392, -0.3474121219507302 
3.240000000002413, -0.3470171791389741 
3.250000000002434, -0.34678639757660223 
3.260000000002455, -0.346749351390588 
3.2700000000024763, -0.3469603544841017 
3.2800000000024974, -0.347507350793658 
3.2900000000025185, -0.34852476482977557 
3.3000000000025396, -0.3502088862124895 
3.3100000000025607, -0.35282847686290786 
3.3200000000025818, -0.35670893113947444 
3.330000000002603, -0.362144269504364 
3.340000000002624, -0.3691832771965424 
3.350000000002645, -0.37733303862934187 
3.360000000002666, -0.38547749763920325 
3.3700000000026873, -0.3923583842671919 
3.3800000000027084, -0.39731406063390223 
3.3900000000027295, -0.4004798928333019 
3.4000000000027506, -0.4023803724813148 
3.4100000000027717, -0.4035117004964473 
3.420000000002793, -0.4042002743467127 
3.430000000002814, -0.4046284619294007 
3.440000000002835, -0.40489207160499896 
3.450000000002856, -0.40504123504624545 
3.460000000002877, -0.40510255747053964 
3.4700000000028983, -0.4050899984757236 
3.4800000000029194, -0.40501035755090964 
3.4900000000029405, -0.404866727183023 
3.5000000000029616, -0.4046616983467361 
3.5100000000029827, -0.40440104659319853 
3.520000000003004, -0.4040974958497955 
3.530000000003025, -0.4037729083522076 
3.540000000003046, -0.4034567420326569 
3.550000000003067, -0.40317992361461547 
3.5600000000030882, -0.4029659871650718 
3.5700000000031094, -0.402823269231238 
3.5800000000031305, -0.4027416551465226 
3.5900000000031516, -0.4026954145983318 
3.6000000000031727, -0.4026510822809078 
3.6100000000031938, -0.4025768990580179 
3.620000000003215, -0.40244954446009507 
3.630000000003236, -0.4022558306285108 
3.640000000003257, -0.4019901323119631 
3.650000000003278, -0.40164994677027 
3.6600000000032993, -0.40123144976855796 
3.6700000000033204, -0.400725466569153 
3.6800000000033415, -0.40011297583215155 
3.6900000000033626, -0.39935815404691855 
3.7000000000033837, -0.39839555369431134 
3.710000000003405, -0.39710625766643537 
3.720000000003426, -0.3952785250840929 
3.730000000003447, -0.3925625314214829 
3.740000000003468, -0.38847695776791236 
3.750000000003489, -0.38259224241095413 
3.7600000000035103, -0.3749359804822406 
3.7700000000035314, -0.3662841474696944 
3.7800000000035525, -0.3578546203252218 
3.7900000000035736, -0.3506221176043528 
3.8000000000035947, -0.34496229191983635 
3.810000000003616, -0.3407809754960802 
3.820000000003637, -0.3377876796846452 
3.830000000003658, -0.3356776541084314 
3.840000000003679, -0.334203044484343 
3.8500000000037002, -0.3331836992928924 
3.8600000000037213, -0.3324966327276337 
3.8700000000037424, -0.3320621142028708 
3.8800000000037635, -0.3318323607057337 
3.8900000000037847, -0.33178397327846276 
3.9000000000038058, -0.33191378662230153 
3.910000000003827, -0.33223754151785634 
3.920000000003848, -0.332790783825136 
3.930000000003869, -0.3336311642198389 
3.94000000000389, -0.3348404446390853 
3.9500000000039113, -0.3365224719142585 
3.9600000000039324, -0.3387897611425018 
3.9700000000039535, -0.34172760542632113 
3.9800000000039746, -0.3453283748699676 
3.9900000000039957, -0.3494149097818749 
4.000000000004016, -0.3536194324812216 
4.010000000003993, -0.35748855800078855 
4.02000000000397, -0.3606735768915539 
4.030000000003946, -0.36305113447463055 
4.040000000003923, -0.36469252708576516 
4.0500000000039, -0.3657556439438857 
4.0600000000038765, -0.3663985972116125 
4.070000000003853, -0.3667433015280154 
4.08000000000383, -0.36687125258807113 
4.090000000003807, -0.3668308435074226 
4.100000000003783, -0.3666458775550776 
4.11000000000376, -0.366322526338713 
4.120000000003737, -0.365855445595182 
4.130000000003713, -0.36523495723965277 
4.14000000000369, -0.36445685716266263 
4.150000000003667, -0.3635340071816067 
4.1600000000036434, -0.36250472774685544 
4.17000000000362, -0.361430851229796 
4.180000000003597, -0.360383101306124 
4.1900000000035735, -0.3594210189588031 
4.20000000000355, -0.35857876158534735 
4.210000000003527, -0.35786242955735686 
4.220000000003504, -0.3572565679690494 
4.23000000000348, -0.35673432413117456 
4.240000000003457, -0.3562668252493808 
4.250000000003434, -0.3558294689261027 
4.26000000000341, -0.3554046644955215 
4.270000000003387, -0.3549818999832258 
4.280000000003364, -0.3545565763765294 
4.2900000000033405, -0.35412884211699003 
4.300000000003317, -0.3537030643732845 
4.310000000003294, -0.353287906645802 
4.320000000003271, -0.3528960950709341 
4.330000000003247, -0.3525410779641308 
4.340000000003224, -0.35222344338465433 
4.350000000003201, -0.3518918945991262 
4.360000000003177, -0.35135720080557953 
4.370000000003154, -0.350164929393982 
4.380000000003131, -0.34755994568785437 
4.390000000003107, -0.3428372698494139 
4.400000000003084, -0.3360748803605879 
4.410000000003061, -0.32840508005603847 
4.4200000000030375, -0.32125691282828306 
4.430000000003014, -0.3154814327526462 
4.440000000002991, -0.3112197827747051 
4.450000000002968, -0.30823132281519583 
4.460000000002944, -0.30618867141954476 
4.470000000002921, -0.30481051416852667 
4.480000000002898, -0.30389147860603394 
4.490000000002874, -0.3032930389730343 
4.500000000002851, -0.3029265785344374 
4.510000000002828, -0.30273901074280635 
4.520000000002804, -0.30270299535617917 
4.530000000002781, -0.30281129078339664 
4.540000000002758, -0.30307435464898225 
4.5500000000027345, -0.3035203523507054 
4.560000000002711, -0.30419662500986056 
4.570000000002688, -0.3051710376924273 
4.580000000002665, -0.3065300961666428 
4.590000000002641, -0.3083680261983063 
4.600000000002618, -0.31075825138238217 
4.610000000002595, -0.31370149725253116 
4.620000000002571, -0.317064317622507 
4.630000000002548, -0.3205580430941594 
4.640000000002525, -0.3238144912475126 
4.6500000000025015, -0.3265345332677005 
4.660000000002478, -0.3285933580771967 
4.670000000002455, -0.3300290590645644 
4.6800000000024315, -0.33096125529398235 
4.690000000002408, -0.3315184688834304 
4.700000000002385, -0.3318034371755156 
4.710000000002362, -0.3318860891207104 
4.720000000002338, -0.3318079256001749 
4.730000000002315, -0.33158867964097927 
4.740000000002292, -0.33123249941147354 
4.750000000002268, -0.3307341432596121 
4.760000000002245, -0.33008678405238595 
4.770000000002222, -0.3292923112749293 
4.7800000000021985, -0.32837213699076895 
4.790000000002175, -0.32737267229415434 
4.800000000002152, -0.3263593384812316 
4.810000000002129, -0.32539967126143643 
4.820000000002105, -0.3245446146626164 
4.830000000002082, -0.3238179373680304 
4.840000000002059, -0.32321661827158865 
4.850000000002035, -0.3227185734293552 
4.860000000002012, -0.3222927075849602 
