t, s[1].omega / s[0].omega 
0, -1.3699973240056214 
0.009999999999999995, -1.369630336463983 
0.019999999999999934, -1.3690709359894557 
0.029999999999999874, -1.3683334725481064 
0.04000000000000012, -1.3674463002030397 
0.050000000000000405, -1.366458042838947 
0.06000000000000069, -1.365443013999991 
0.07000000000000098, -1.3644988665600204 
0.08000000000000126, -1.3637269682076951 
0.09000000000000155, -1.3631932792082218 
0.10000000000000184, -1.3628916389246892 
0.11000000000000212, -1.3627456368032043 
0.12000000000000241, -1.3626505551055226 
0.130000000000002, -1.3625137398431586 
0.1400000000000009, -1.362263917915224 
0.1499999999999998, -1.3618360137741536 
0.1599999999999987, -1.3611484718382947 
0.1699999999999976, -1.360083092200217 
0.1799999999999965, -1.3584756972476506 
0.1899999999999954, -1.356136509397314 
0.1999999999999943, -1.3529354556575928 
0.2099999999999932, -1.3489793780834698 
0.2199999999999921, -1.3448083173230383 
0.229999999999991, -1.3413440514194028 
0.2399999999999899, -1.3393670034589975 
0.2499999999999888, -1.3389249455240881 
0.2599999999999877, -1.3394061361333631 
0.2699999999999866, -1.3401285055716046 
0.2799999999999855, -1.3407063012707119 
0.2899999999999844, -1.341024549889561 
0.2999999999999833, -1.3410927346586112 
0.3099999999999822, -1.3409463417863494 
0.3199999999999811, -1.340608074026305 
0.32999999999998, -1.340082466985809 
0.3399999999999789, -1.3393725508265397 
0.3499999999999778, -1.3385264042072262 
0.35999999999997667, -1.3377219444432384 
0.36999999999997557, -1.3373429146892315 
0.37999999999997447, -1.337893769990467 
0.38999999999997337, -1.3396613935152535 
0.39999999999997227, -1.342411459199861 
0.40999999999997117, -1.3455141264739878 
0.41999999999997006, -1.348352195753159 
0.42999999999996896, -1.350580347017233 
0.43999999999996786, -1.3521239248240433 
0.44999999999996676, -1.3530639493631715 
0.45999999999996566, -1.353532770384121 
0.46999999999996456, -1.3536560556451094 
0.47999999999996346, -1.353532837357021 
0.48999999999996235, -1.3532376820164977 
0.49999999999996125, -1.3528335261926587 
0.5099999999999602, -1.3523872703055777 
0.519999999999959, -1.3519784284278624 
0.529999999999958, -1.3516892402310903 
0.5399999999999568, -1.3515761026150037 
0.5499999999999557, -1.351644206391382 
0.5599999999999546, -1.3518481254374037 
0.5699999999999535, -1.3521144669457674 
0.5799999999999524, -1.3523668173172543 
0.5899999999999513, -1.3525408604556763 
0.5999999999999502, -1.3525886151131679 
0.6099999999999491, -1.3524760358241301 
0.619999999999948, -1.3521791284987865 
0.6299999999999469, -1.3516818473692473 
0.6399999999999458, -1.3509767075588914 
0.6499999999999447, -1.3500680754010914 
0.6599999999999436, -1.348978278466387 
0.6699999999999425, -1.3477564099432202 
0.6799999999999414, -1.3464871089399326 
0.6899999999999403, -1.3452906836029332 
0.6999999999999392, -1.344300140701734 
0.7099999999999381, -1.3436093181030213 
0.719999999999937, -1.343221047316451 
0.7299999999999359, -1.3430463651839608 
0.7399999999999348, -1.3429591047188487 
0.7499999999999337, -1.3428504504579162 
0.7599999999999326, -1.3426436771540509 
0.7699999999999315, -1.3422776683308497 
0.7799999999999304, -1.3416812712760522 
0.7899999999999293, -1.340749633092578 
0.7999999999999282, -1.3393281572286964 
0.8099999999999271, -1.3372190474771708 
0.819999999999926, -1.3342465619214816 
0.8299999999999249, -1.330426007862089 
0.8399999999999238, -1.3262036034180882 
0.8499999999999227, -1.3225120470581313 
0.8599999999999216, -1.3203035716387048 
0.8699999999999205, -1.3198201760121322 
0.8799999999999194, -1.3204788910260676 
0.8899999999999183, -1.3214831243419896 
0.8999999999999172, -1.3223336081643837 
0.9099999999999161, -1.3228681124446633 
0.919999999999915, -1.3230974760660787 
0.9299999999999139, -1.323076953101523 
0.9399999999999128, -1.3228513811307638 
0.9499999999999117, -1.3224434354556422 
0.9599999999999106, -1.3218634062607293 
0.9699999999999095, -1.321139495939142 
0.9799999999999084, -1.3203774071367975 
0.9899999999999073, -1.3198354941079795 
0.9999999999999062, -1.319927524251031 
1.0099999999999052, -1.3210296341435177 
1.019999999999904, -1.32317144430674 
1.029999999999903, -1.325950048079684 
1.039999999999902, -1.3287864164944223 
1.0499999999999008, -1.3312317912057217 
1.0599999999998997, -1.333080862964283 
1.0699999999998986, -1.3343222639377121 
1.0799999999998975, -1.3350446267515488 
1.0899999999998964, -1.3353640696025149 
1.0999999999998953, -1.3353861394933921 
1.1099999999998942, -1.335194303697545 
1.119999999999893, -1.3348543703539717 
1.129999999999892, -1.3344267948583382 
1.1399999999998909, -1.3339795719180516 
1.1499999999998898, -1.3335916786495443 
1.1599999999998887, -1.3333380080803772 
1.1699999999998876, -1.3332613825172257 
1.1799999999998865, -1.3333542760557096 
1.1899999999998854, -1.3335653719987322 
1.1999999999998843, -1.3338221498836078 
1.2099999999998832, -1.334052548542139 
1.219999999999882, -1.3341971198499292 
1.229999999999881, -1.3342116984604178 
1.2399999999998799, -1.3340647917385942 
1.2499999999998788, -1.333734309644439 
1.2599999999998777, -1.333206219490846 
1.2699999999998766, -1.3324756544537846 
1.2799999999998755, -1.331550354194254 
1.2899999999998744, -1.3304565479593453 
1.2999999999998733, -1.3292469155392843 
1.3099999999998722, -1.3280075194206917 
1.319999999999871, -1.326855236052454 
1.32999999999987, -1.3259132598320171 
1.3399999999998689, -1.325262465735929 
1.3499999999998678, -1.3248974144435615 
1.3599999999998666, -1.3247303135158952 
1.3699999999998655, -1.324641943572854 
1.3799999999998644, -1.3245297675258194 
1.3899999999998633, -1.3243201059283345 
1.3999999999998622, -1.3239527311891255 
1.4099999999998611, -1.3233572709217991 
1.41999999999986, -1.322431524908871 
1.429999999999859, -1.3210272281362196 
1.4399999999998578, -1.3189566230782945 
1.4499999999998567, -1.3160500436475564 
1.4599999999998556, -1.3123007437401069 
1.4699999999998545, -1.3080729969306226 
1.4799999999998534, -1.3041783533268474 
1.4899999999998523, -1.3015321944440483 
1.4999999999998512, -1.3005144817536356 
1.5099999999998501, -1.3007354808539706 
1.519999999999849, -1.3014788547898852 
1.529999999999848, -1.3022117281916885 
1.5399999999998468, -1.3027095720069533 
1.5499999999998457, -1.3029389907802005 
1.5599999999998446, -1.3029325121004165 
1.5699999999998435, -1.302724412017449 
1.5799999999998424, -1.3023302329496507 
1.5899999999998413, -1.3017488134359332 
1.5999999999998402, -1.3009833267241788 
1.6099999999998391, -1.3000926245666102 
1.619999999999838, -1.2992783522474105 
1.629999999999837, -1.2989519956934397 
1.6399999999998358, -1.2996292989560383 
1.6499999999998347, -1.3015823352720362 
1.6599999999998336, -1.3045477642073215 
1.6699999999998325, -1.3078640022944736 
1.6799999999998314, -1.3108858448456684 
1.6899999999998303, -1.3132530118508399 
1.6999999999998292, -1.3148922648744077 
1.709999999999828, -1.3158958828256195 
1.719999999999827, -1.3164087983244341 
1.729999999999826, -1.316565963168412 
1.7399999999998248, -1.3164714808526796 
1.7499999999998237, -1.316201337388205 
1.7599999999998226, -1.3158170954732278 
1.7699999999998215, -1.315383280329926 
1.7799999999998204, -1.3149802976070057 
1.7899999999998193, -1.3147002168175175 
1.7999999999998182, -1.3146184711206237 
1.809999999999817, -1.3147585020111294 
1.819999999999816, -1.3150809019020366 
1.8299999999998149, -1.3155051516793155 
1.8399999999998138, -1.3159420184684316 
1.8499999999998127, -1.3163156380651402 
1.8599999999998116, -1.316571158048522 
1.8699999999998105, -1.3166732693682346 
1.8799999999998094, -1.3166017341002725 
1.8899999999998083, -1.3163475716137873 
1.8999999999998072, -1.3159110927553503 
1.909999999999806, -1.3153018013663125 
1.919999999999805, -1.3145401501384613 
1.9299999999998039, -1.313661118262988 
1.9399999999998028, -1.3127184519919475 
1.9499999999998017, -1.3117860425296781 
1.9599999999998006, -1.3109506665970077 
1.9699999999997995, -1.310291124169526 
1.9799999999997984, -1.3098474262739745 
1.9899999999997973, -1.3095992858849281 
1.9999999999997962, -1.3094750568708577 
2.0099999999998173, -1.309385018230102 
2.0199999999998384, -1.3092494758355464 
2.0299999999998595, -1.3090041861019783 
2.0399999999998806, -1.308588754432968 
2.0499999999999017, -1.3079302727079423 
2.059999999999923, -1.3069304677908673 
2.069999999999944, -1.3054632512410633 
2.079999999999965, -1.3033935965355816 
2.089999999999986, -1.3006327246008644 
2.100000000000007, -1.2972362927615742 
2.1100000000000283, -1.2935127875382655 
2.1200000000000494, -1.2900362695577483 
2.1300000000000705, -1.2874361872817377 
2.1400000000000916, -1.2860292381736884 
2.1500000000001127, -1.2856396475472978 
2.160000000000134, -1.2858084108960308 
2.170000000000155, -1.2861222812802329 
2.180000000000176, -1.2863538186915355 
2.190000000000197, -1.2864222078720666 
2.2000000000002182, -1.2863125530995216 
2.2100000000002393, -1.2860213775063332 
2.2200000000002604, -1.2855309456150876 
2.2300000000002815, -1.2848015802855555 
2.2400000000003026, -1.2837818928281557 
2.2500000000003237, -1.2824545404924852 
2.260000000000345, -1.2809445850102728 
2.270000000000366, -1.2796694095749872 
2.280000000000387, -1.2793508817397863 
2.290000000000408, -1.2806320354202223 
2.3000000000004293, -1.2834828503768825 
2.3100000000004504, -1.2871154265394817 
2.3200000000004715, -1.2905731513929741 
2.3300000000004926, -1.2932819329922107 
2.3400000000005137, -1.2951217049733195 
2.3500000000005348, -1.296224177926652 
2.360000000000556, -1.2967836995873878 
2.370000000000577, -1.296966482971601 
2.380000000000598, -1.2968893970581685 
2.390000000000619, -1.2966291837552082 
2.4000000000006403, -1.2962422176838433 
2.4100000000006614, -1.2957890555188125 
2.4200000000006825, -1.2953595924551027 
2.4300000000007036, -1.295083660243781 
2.4400000000007247, -1.2951023083921265 
2.450000000000746, -1.2954994702183262 
2.460000000000767, -1.2962472744747369 
2.470000000000788, -1.2972193185867034 
2.480000000000809, -1.2982545070139442 
2.49000000000083, -1.299213982324557 
2.5000000000008513, -1.3000042001193104 
2.5100000000008724, -1.3005751843519295 
2.5200000000008935, -1.3009099856796302 
2.5300000000009146, -1.3010140589192805 
2.5400000000009357, -1.300906948008889 
2.550000000000957, -1.300616525335082 
2.560000000000978, -1.3001761648812147 
2.570000000000999, -1.2996252263650763 
2.58000000000102, -1.299011758189796 
2.5900000000010412, -1.2983937767049594 
2.6000000000010624, -1.297834340777349 
2.6100000000010835, -1.2973887877493642 
2.6200000000011046, -1.297088488452107 
2.6300000000011257, -1.2969291797509341 
2.6400000000011468, -1.2968712308824923 
2.650000000001168, -1.2968531599703097 
2.660000000001189, -1.29680973107804 
2.67000000000121, -1.2966828177955019 
2.680000000001231, -1.2964214839157653 
2.6900000000012523, -1.295976493895688 
2.7000000000012734, -1.2952961271504884 
2.7100000000012945, -1.2943277031387823 
2.7200000000013156, -1.2930266512507642 
2.7300000000013367, -1.2913732313753996 
2.740000000001358, -1.2893957450384523 
2.750000000001379, -1.2871964170189796 
2.7600000000014, -1.2849676535442405 
2.770000000001421, -1.2829715695686628 
2.780000000001442, -1.281455944651079 
2.7900000000014633, -1.2805331215678923 
2.8000000000014844, -1.280122431813041 
2.8100000000015055, -1.2800199974035953 
2.8200000000015266, -1.2800217834321193 
2.8300000000015477, -1.2799911968274618 
2.840000000001569, -1.279854564152346 
2.85000000000159, -1.2795673820121896 
2.860000000001611, -1.2790823713829906 
2.870000000001632, -1.2783259786839132 
2.8800000000016532, -1.2771826348134718 
2.8900000000016743, -1.275494552269342 
2.9000000000016954, -1.273105111520437 
2.9100000000017165, -1.269991941319224 
2.9200000000017377, -1.266490968525201 
2.9300000000017588, -1.2634204526774566 
2.94000000000178, -1.2617465571806428 
2.950000000001801, -1.2618545604415399 
2.960000000001822, -1.2632393785470324 
2.970000000001843, -1.2650168638968482 
2.9800000000018643, -1.2665522211722628 
2.9900000000018854, -1.2676165876397074 
3.0000000000019065, -1.2682285909784927 
3.0100000000019276, -1.2684849965718916 
3.0200000000019487, -1.2684763267170287 
3.03000000000197, -1.2682630932498933 
3.040000000001991, -1.267878759564737 
3.050000000002012, -1.2673451300520442 
3.060000000002033, -1.266701355621452 
3.070000000002054, -1.2660516627514 
3.0800000000020753, -1.265617526451628 
3.0900000000020964, -1.2657316850376994 
3.1000000000021175, -1.2666975911381742 
3.1100000000021386, -1.2685692830340032 
3.1200000000021597, -1.271067665385666 
3.130000000002181, -1.2737336753465924 
3.140000000002202, -1.2761565789828317 
3.150000000002223, -1.2780971882953427 
3.160000000002244, -1.27948640797648 
3.1700000000022652, -1.2803660027399226 
3.1800000000022863, -1.2808266574992495 
3.1900000000023074, -1.2809657339089708 
3.2000000000023285, -1.2808670931784127 
3.2100000000023496, -1.2805976653811562 
3.2200000000023707, -1.2802144292050257 
3.230000000002392, -1.279776156564373 
3.240000000002413, -1.2793529307652567 
3.250000000002434, -1.2790237850058896 
3.260000000002455, -1.2788568644983012 
3.2700000000024763, -1.2788823792962314 
3.2800000000024974, -1.2790800751227245 
3.2900000000025185, -1.2793905422390854 
3.3000000000025396, -1.279738721194756 
3.3100000000025607, -1.2800539686255537 
3.3200000000025818, -1.280280208467469 
3.330000000002603, -1.280377640153971 
3.340000000002624, -1.2803203257623754 
3.350000000002645, -1.2800933280805082 
3.360000000002666, -1.2796910854766996 
3.3700000000026873, -1.2791172533019677 
3.3800000000027084, -1.2783859177193704 
3.3900000000027295, -1.2775242350437723 
3.4000000000027506, -1.2765760941220923 
3.4100000000027717, -1.27560474519761 
3.420000000002793, -1.2746900646567292 
3.430000000002814, -1.2739152349887317 
3.440000000002835, -1.2733415962779422 
3.450000000002856, -1.2729818952024212 
3.460000000002877, -1.272792370760196 
3.4700000000028983, -1.2726932238149669 
3.4800000000029194, -1.2726002470105613 
3.4900000000029405, -1.2724430441467294 
3.5000000000029616, -1.2721634082515048 
3.5100000000029827, -1.2717028327048563 
3.520000000003004, -1.270989128945001 
3.530000000003025, -1.2699285870925259 
3.540000000003046, -1.2684098540513944 
3.550000000003067, -1.2663279552209041 
3.5600000000030882, -1.2636361957655997 
3.5700000000031094, -1.2604224011665812 
3.5800000000031305, -1.2569768358922004 
3.5900000000031516, -1.2537785896232392 
3.6000000000031727, -1.2513290419586272 
3.6100000000031938, -1.2498886674023497 
3.620000000003215, -1.2493430354048969 
3.630000000003236, -1.249337936884563 
3.640000000003257, -1.2495229305289306 
3.650000000003278, -1.2496802281438 
3.6600000000032993, -1.2497144747275983 
3.6700000000033204, -1.2495939075506954 
3.6800000000033415, -1.2493023244210542 
3.6900000000033626, -1.2488115940499653 
3.7000000000033837, -1.2480677906471598 
3.710000000003405, -1.2469888515284462 
3.720000000003426, -1.2454859081870275 
3.730000000003447, -1.243537893302348 
3.740000000003468, -1.2413427150485457 
3.750000000003489, -1.2394694739024836 
3.7600000000035103, -1.2387507779979934 
3.7700000000035314, -1.2397372620809919 
3.7800000000035525, -1.2421698883261454 
3.7900000000035736, -1.2451612726441779 
3.8000000000035947, -1.2478681002458032 
3.810000000003616, -1.2498869926660638 
3.820000000003637, -1.2511925937069477 
3.830000000003658, -1.2519248825779858 
3.840000000003679, -1.2522431644188936 
3.8500000000037002, -1.2522703163111775 
3.8600000000037213, -1.2520863756660972 
3.8700000000037424, -1.2517406240273465 
3.8800000000037635, -1.2512713117301866 
3.8900000000037847, -1.2507334834884858 
3.9000000000038058, -1.2502345276918971 
3.910000000003827, -1.249959285698017 
3.920000000003848, -1.250141189139975 
3.930000000003869, -1.2509538296996694 
3.94000000000389, -1.2523897806297262 
3.9500000000039113, -1.2542447470294835 
3.9600000000039324, -1.2562218639936875 
3.9700000000039535, -1.2580550877685077 
3.9800000000039746, -1.2595729150487038 
3.9900000000039957, -1.2607021736710768 
4.000000000004016, -1.2614431211307793 
4.010000000003993, -1.2618389804029158 
4.02000000000397, -1.2619504305280778 
4.030000000003946, -1.2618390341809929 
4.040000000003923, -1.2615603873519936 
4.0500000000039, -1.2611656049800835 
4.0600000000038765, -1.2607079382454007 
4.070000000003853, -1.2602490387125398 
4.08000000000383, -1.2598573616882167 
4.090000000003807, -1.2595941263304544 
4.100000000003783, -1.259492919067164 
4.11000000000376, -1.259547500134242 
4.120000000003737, -1.2597161701641117 
4.130000000003713, -1.259937631276264 
4.14000000000369, -1.2601479949647287 
4.150000000003667, -1.260291970215292 
4.1600000000036434, -1.2603267444992317 
4.17000000000362, -1.260221122865917 
4.180000000003597, -1.25995353575056 
4.1900000000035735, -1.2595110960731148 
4.20000000000355, -1.2588901305950992 
4.210000000003527, -1.2580979320562125 
4.220000000003504, -1.2571556713247731 
4.23000000000348, -1.2561023914214864 
4.240000000003457, -1.254998815892019 
4.250000000003434, -1.2539272516204103 
4.26000000000341, -1.2529815869019347 
4.270000000003387, -1.2522431154773266 
4.280000000003364, -1.2517485629353626 
4.2900000000033405, -1.2514715062740798 
4.300000000003317, -1.2513353580355937 
4.310000000003294, -1.2512479617225047 
4.320000000003271, -1.2511291989454179 
4.330000000003247, -1.2509166103468423 
4.340000000003224, -1.2505549719251436 
4.350000000003201, -1.2499812674744935 
4.360000000003177, -1.249112473650126 
4.370000000003154, -1.247841406906343 
4.380000000003131, -1.2460480733602948 
4.390000000003107, -1.24363652083761 
4.400000000003084, -1.2406026381455029 
4.410000000003061, -1.2371177939942444 
4.4200000000030375, -1.2335741236873854 
4.430000000003014, -1.2305065820913799 
4.440000000002991, -1.2283615568142152 
4.450000000002968, -1.2272544297843608 
4.460000000002944, -1.226945798172835 
4.470000000002921, -1.2270514539593331 
4.480000000002898, -1.22725883215379 
4.490000000002874, -1.2273967840896878 
4.500000000002851, -1.2273980163428493 
4.510000000002828, -1.2272411044275342 
4.520000000002804, -1.2269102321023377 
4.530000000002781, -1.2263731031194323 
4.540000000002758, -1.2255697801725518 
4.5500000000027345, -1.224412412083058 
4.560000000002711, -1.2228099122975207 
4.570000000002688, -1.2207470543973957 
4.580000000002665, -1.2184354088136218 
4.590000000002641, -1.216450717092418 
4.600000000002618, -1.2156048261986487 
4.610000000002595, -1.2164149298778582 
4.620000000002571, -1.2186250593281518 
4.630000000002548, -1.2213952447745444 
4.640000000002525, -1.2239275770492548 
4.6500000000025015, -1.2258319707109018 
4.660000000002478, -1.2270725041915096 
4.670000000002455, -1.2277723689973787 
4.6800000000024315, -1.2280770583989657 
4.690000000002408, -1.2281001713019117 
4.700000000002385, -1.2279154842002968 
4.710000000002362, -1.2275667916245374 
4.720000000002338, -1.2270852546870281 
4.730000000002315, -1.2265153916706537 
4.740000000002292, -1.225952369715695 
4.750000000002268, -1.2255786378344105 
4.760000000002245, -1.2256571004181194 
4.770000000002222, -1.226432622687999 
4.7800000000021985, -1.2279764189002547 
4.790000000002175, -1.230110263520192 
4.800000000002152, -1.2324902805735702 
4.810000000002129, -1.2347663225476877 
4.820000000002105, -1.236693407239773 
4.830000000002082, -1.2381588262354097 
4.840000000002059, -1.2391554467890322 
4.850000000002035, -1.2397383211304005 
4.860000000002012, -1.2399863063280518 
4.870000000001989, -1.2399772677281597 
4.880000000001965, -1.2397775952403394 
4.890000000001942, -1.2394429731279037 
4.900000000001919, -1.2390262617153533 
4.9100000000018955, -1.2385875139151596 
4.920000000001872, -1.2381987742252325 
4.930000000001849, -1.2379353672336086 
