t, s[1].omega / s[0].omega 
0, -0.769997663908622 
0.009999999999999995, -0.7697383958755107 
0.019999999999999934, -0.7694272014780899 
0.029999999999999874, -0.7690620428389836 
0.04000000000000012, -0.7686430273799449 
0.050000000000000405, -0.7681752884741302 
0.06000000000000069, -0.7676705361943068 
0.07000000000000098, -0.7671475925475396 
0.08000000000000126, -0.7666328494657174 
0.09000000000000155, -0.7661611146903532 
0.10000000000000184, -0.765776406200009 
0.11000000000000212, -0.7655316215525634 
0.12000000000000241, -0.7654860188286597 
0.130000000000002, -0.7657001594110742 
0.1400000000000009, -0.7662290481031674 
0.1499999999999998, -0.7671149515910136 
0.1599999999999987, -0.7683811291601531 
0.1699999999999976, -0.7700265161756386 
0.1799999999999965, -0.7720202191138434 
0.1899999999999954, -0.7742949576032897 
0.1999999999999943, -0.7767414223646575 
0.2099999999999932, -0.7792102029319617 
0.2199999999999921, -0.7815300319128542 
0.229999999999991, -0.7835438170220139 
0.2399999999999899, -0.785147998628352 
0.2499999999999888, -0.7863121470423086 
0.2599999999999877, -0.78706847559659 
0.2699999999999866, -0.7874828250579663 
0.2799999999999855, -0.7876263578937628 
0.2899999999999844, -0.7875585260578418 
0.2999999999999833, -0.7873212291560275 
0.3099999999999822, -0.7869399575310686 
0.3199999999999811, -0.7864287450818958 
0.32999999999998, -0.7857983728420026 
0.3399999999999789, -0.7850696629704281 
0.3499999999999778, -0.7842951427980851 
0.35999999999997667, -0.7835913605306007 
0.36999999999997557, -0.7831772907411412 
0.37999999999997447, -0.7833975360239716 
0.38999999999997337, -0.7846856774359365 
0.39999999999997227, -0.7874194057809615 
0.40999999999997117, -0.7916843294697875 
0.41999999999997006, -0.7970984819075425 
0.42999999999996896, -0.8028989178019963 
0.43999999999996786, -0.8082834398688006 
0.44999999999996676, -0.8127332797011058 
0.45999999999996566, -0.8160949990889538 
0.46999999999996456, -0.8184669250639465 
0.47999999999996346, -0.820048758270377 
0.48999999999996235, -0.8210427771056976 
0.49999999999996125, -0.8216119022180679 
0.5099999999999602, -0.8218711440320549 
0.519999999999959, -0.8218921210341538 
0.529999999999958, -0.8217095424622508 
0.5399999999999568, -0.8213248364341839 
0.5499999999999557, -0.8207050863188566 
0.5599999999999546, -0.8197767483915704 
0.5699999999999535, -0.8184151058465977 
0.5799999999999524, -0.8164342868411794 
0.5899999999999513, -0.813591318463436 
0.5999999999999502, -0.8096297578465249 
0.6099999999999491, -0.8043887049274762 
0.619999999999948, -0.797960230913362 
0.6299999999999469, -0.7907929090151526 
0.6399999999999458, -0.7836128635232273 
0.6499999999999447, -0.7771674959661237 
0.6599999999999436, -0.7719650862274625 
0.6699999999999425, -0.7681702077443244 
0.6799999999999414, -0.7656625527992987 
0.6899999999999403, -0.7641679448317202 
0.6999999999999392, -0.7633781829734932 
0.7099999999999381, -0.7630245202419221 
0.719999999999937, -0.7629057565453886 
0.7299999999999359, -0.7628865696097112 
0.7399999999999348, -0.7628822668943681 
0.7499999999999337, -0.7628409288497128 
0.7599999999999326, -0.7627282908873425 
0.7699999999999315, -0.7625170298602574 
0.7799999999999304, -0.7621806326835319 
0.7899999999999293, -0.7616919553610527 
0.7999999999999282, -0.7610267333040107 
0.8099999999999271, -0.7601713508359496 
0.819999999999926, -0.7591315863385675 
0.8299999999999249, -0.757936703916781 
0.8399999999999238, -0.756634833252876 
0.8499999999999227, -0.7552815190395764 
0.8599999999999216, -0.7539281753928081 
0.8699999999999205, -0.7526160712170878 
0.8799999999999194, -0.7513765057327363 
0.8899999999999183, -0.7502342407996407 
0.8999999999999172, -0.7492109531227755 
0.9099999999999161, -0.748326939656947 
0.919999999999915, -0.7476007716727604 
0.9299999999999139, -0.7470474549232163 
0.9399999999999128, -0.7466760520331314 
0.9499999999999117, -0.7464878115584936 
0.9599999999999106, -0.7464756187532341 
0.9699999999999095, -0.7466250560232586 
0.9799999999999084, -0.7469167290118225 
0.9899999999999073, -0.7473290568402889 
0.9999999999999062, -0.747840597691872 
1.0099999999999052, -0.7484311173778228 
1.019999999999904, -0.7490808690024415 
1.029999999999903, -0.7497679895447698 
1.039999999999902, -0.7504648113938541 
1.0499999999999008, -0.7511352354507489 
1.0599999999998997, -0.7517361234879062 
1.0699999999998986, -0.7522242302476799 
1.0799999999998975, -0.7525662791764984 
1.0899999999998964, -0.752746571890103 
1.0999999999998953, -0.7527678692900326 
1.1099999999998942, -0.7526462598013385 
1.119999999999893, -0.752404337282002 
1.129999999999892, -0.7520667274864189 
1.1399999999998909, -0.7516597813394607 
1.1499999999998898, -0.751215655452164 
1.1599999999998887, -0.750780566129534 
1.1699999999998876, -0.7504268628302113 
1.1799999999998865, -0.7502676561578474 
1.1899999999998854, -0.7504703575673561 
1.1999999999998843, -0.751261666845621 
1.2099999999998832, -0.7529124930837554 
1.219999999999882, -0.7556898275620931 
1.229999999999881, -0.7597685100785158 
1.2399999999998799, -0.7651159853975753 
1.2499999999998788, -0.7714006221844879 
1.2599999999998777, -0.7780072692496922 
1.2699999999998766, -0.7842118357085515 
1.2799999999998755, -0.7894408826922263 
1.2899999999998744, -0.7934416390420431 
1.2999999999998733, -0.7962641008049282 
1.3099999999998722, -0.7981239329051069 
1.319999999999871, -0.7992693563832552 
1.32999999999987, -0.7999091950653957 
1.3399999999998689, -0.800192822128641 
1.3499999999998678, -0.8002148390091666 
1.3599999999998666, -0.8000256406397325 
1.3699999999998655, -0.7996395467155419 
1.3799999999998644, -0.7990379693086106 
1.3899999999998633, -0.7981673030044968 
1.3999999999998622, -0.7969321843062339 
1.4099999999998611, -0.7951864431150598 
1.41999999999986, -0.7927285328832353 
1.429999999999859, -0.7893174662690806 
1.4399999999998578, -0.7847370330766517 
1.4499999999998567, -0.7789320346538389 
1.4599999999998556, -0.7721817949071834 
1.4699999999998545, -0.7651664087599553 
1.4799999999998534, -0.7587710326203678 
1.4899999999998523, -0.7537038368823017 
1.4999999999998512, -0.7502274931559977 
1.5099999999998501, -0.7481808043017316 
1.519999999999849, -0.7471839669369792 
1.529999999999848, -0.746837887873732 
1.5399999999998468, -0.7468290897583107 
1.5499999999998457, -0.7469512455505884 
1.5599999999998446, -0.7470849605705095 
1.5699999999998435, -0.7471673951229624 
1.5799999999998424, -0.7471662557143609 
1.5899999999998413, -0.7470615888004166 
1.5999999999998402, -0.7468342503317567 
1.6099999999998391, -0.7464592486742785 
1.619999999999838, -0.7459032328401538 
1.629999999999837, -0.7451269370585296 
1.6399999999998358, -0.7440941033976554 
1.6499999999998347, -0.742786495312127 
1.6599999999998336, -0.7412194581046834 
1.6699999999998325, -0.7394480593229725 
1.6799999999998314, -0.7375572825618033 
1.6899999999998303, -0.7356409686629555 
1.6999999999998292, -0.7337819733470662 
1.709999999999828, -0.7320424734925635 
1.719999999999827, -0.7304643497008693 
1.729999999999826, -0.7290743584095972 
1.7399999999998248, -0.7278892142508758 
1.7499999999998237, -0.7269184041770449 
1.7599999999998226, -0.7261647834391359 
1.7699999999998215, -0.7256240529429843 
1.7799999999998204, -0.7252843651641865 
1.7899999999998193, -0.7251269187886609 
1.7999999999998182, -0.725127766305512 
1.809999999999817, -0.7252604566829236 
1.819999999999816, -0.7254988134788232 
1.8299999999998149, -0.7258191790948803 
1.8399999999998138, -0.7262016808278474 
1.8499999999998127, -0.7266302458708231 
1.8599999999998116, -0.7270911320557323 
1.8699999999998105, -0.7275699149416904 
1.8799999999998094, -0.7280476096596767 
1.8899999999998083, -0.7284978605412842 
1.8999999999998072, -0.728887807827016 
1.909999999999806, -0.7291838112475013 
1.919999999999805, -0.7293597926867746 
1.9299999999998039, -0.7294034874251876 
1.9399999999998028, -0.7293172948615594 
1.9499999999998017, -0.7291144989153078 
1.9599999999998006, -0.728814373599618 
1.9699999999997995, -0.7284393883436815 
1.9799999999997984, -0.7280160108883817 
1.9899999999997973, -0.7275793650118484 
1.9999999999997962, -0.7271815581514268 
2.0099999999998173, -0.7269031432401957 
2.0199999999998384, -0.726866113131066 
2.0299999999998595, -0.7272445796251874 
2.0399999999998806, -0.7282659696309384 
2.0499999999999017, -0.7301921260845601 
2.059999999999923, -0.7332684120125906 
2.069999999999944, -0.7376346122953916 
2.079999999999965, -0.7432123014321483 
2.089999999999986, -0.7496231507705343 
2.100000000000007, -0.7562244748741398 
2.1100000000000283, -0.7623039416485213 
2.1200000000000494, -0.7673378633745295 
2.1300000000000705, -0.7711335065378778 
2.1400000000000916, -0.7737821037241464 
2.1500000000001127, -0.7755136322228298 
2.160000000000134, -0.7765725256794811 
2.170000000000155, -0.7771570553394663 
2.180000000000176, -0.7774059420637189 
2.190000000000197, -0.7774052371114869 
2.2000000000002182, -0.7771987665468119 
2.2100000000002393, -0.7767952652063285 
2.2200000000002604, -0.7761701922661486 
2.2300000000002815, -0.7752618974081764 
2.2400000000003026, -0.7739626041404375 
2.2500000000003237, -0.7721066965025805 
2.260000000000345, -0.769464635565441 
2.270000000000366, -0.7657628341895067 
2.280000000000387, -0.7607630386152063 
2.290000000000408, -0.7544217777623217 
2.3000000000004293, -0.7470695509591763 
2.3100000000004504, -0.7394401550366813 
2.3200000000004715, -0.7324298833218666 
2.3300000000004926, -0.7267270649571783 
2.3400000000005137, -0.7225952944955641 
2.3500000000005348, -0.7199146106213783 
2.360000000000556, -0.7183604474738347 
2.370000000000577, -0.7175710812129614 
2.380000000000598, -0.7172417109031611 
2.390000000000619, -0.7171530669297426 
2.4000000000006403, -0.7171634245734284 
2.4100000000006614, -0.7171876286491485 
2.4200000000006825, -0.7171759417892036 
2.4300000000007036, -0.7170974958774664 
2.4400000000007247, -0.7169290279391254 
2.450000000000746, -0.7166483032997564 
2.460000000000767, -0.7162318329342731 
2.470000000000788, -0.7156570222548921 
2.480000000000809, -0.7149085941000193 
2.49000000000083, -0.7139871716209096 
2.5000000000008513, -0.7129151701918499 
2.5100000000008724, -0.7117349469210056 
2.5200000000008935, -0.7104988023876363 
2.5300000000009146, -0.709256461087942 
2.5400000000009357, -0.7080468759108023 
2.550000000000957, -0.7068969490209038 
2.560000000000978, -0.7058250724919453 
2.570000000000999, -0.704845912358193 
2.58000000000102, -0.7039740048726981 
2.5900000000010412, -0.703225380721776 
2.6000000000010624, -0.7026174224586913 
2.6100000000010835, -0.7021675050153228 
2.6200000000011046, -0.7018910537365127 
2.6300000000011257, -0.7017996794491286 
2.6400000000011468, -0.7018999785003209 
2.650000000001168, -0.702193331612214 
2.660000000001189, -0.7026766156158637 
2.67000000000121, -0.7033432787941634 
2.680000000001231, -0.7041838611332267 
2.6900000000012523, -0.705184879251947 
2.7000000000012734, -0.7063252348032804 
2.7100000000012945, -0.7075703349835182 
2.7200000000013156, -0.7088662625237939 
2.7300000000013367, -0.7101388726299175 
2.740000000001358, -0.7113028530201119 
2.750000000001379, -0.7122804841552501 
2.7600000000014, -0.7130212891657335 
2.770000000001421, -0.7135109229790004 
2.780000000001442, -0.713765348269511 
2.7900000000014633, -0.7138165992029755 
2.8000000000014844, -0.7136991902317364 
2.8100000000015055, -0.7134420201037159 
2.8200000000015266, -0.7130660035767697 
2.8300000000015477, -0.7125860105663271 
2.840000000001569, -0.7120163371438227 
2.85000000000159, -0.7113803065194247 
2.860000000001611, -0.7107256239485309 
2.870000000001632, -0.7101467041737373 
2.8800000000016532, -0.7098113702736006 
2.8900000000016743, -0.7099792721203275 
2.9000000000016954, -0.7109830301586932 
2.9100000000017165, -0.7131336266073237 
2.9200000000017377, -0.7165448300311317 
2.9300000000017588, -0.7209718958483228 
2.94000000000178, -0.7258365322434419 
2.950000000001801, -0.7304820768609396 
2.960000000001822, -0.7344516026694142 
2.970000000001843, -0.7375758546647169 
2.9800000000018643, -0.7398923797827341 
2.9900000000018854, -0.741531241558077 
3.0000000000019065, -0.7426394165990275 
3.0100000000019276, -0.7433457600408742 
3.0200000000019487, -0.7437496057150833 
3.03000000000197, -0.7439199976432829 
3.040000000001991, -0.7438983367410295 
3.050000000002012, -0.7437008058046943 
3.060000000002033, -0.7433188912273567 
3.070000000002054, -0.7427175324262903 
3.0800000000020753, -0.7418317581527943 
3.0900000000020964, -0.7405650629668236 
3.1000000000021175, -0.738796701323241 
3.1100000000021386, -0.7364083113488611 
3.1200000000021597, -0.7333352104065917 
3.130000000002181, -0.7296264508816965 
3.140000000002202, -0.7254723962822766 
3.150000000002223, -0.721166472947966 
3.160000000002244, -0.7170183465682716 
3.1700000000022652, -0.7132738472583235 
3.1800000000022863, -0.7100794894777039 
3.1900000000023074, -0.7074883356844991 
3.2000000000023285, -0.7054845982251987 
3.2100000000023496, -0.70400943813911 
3.2200000000023707, -0.7029813587907052 
3.230000000002392, -0.7023109291740572 
3.240000000002413, -0.7019111030478827 
3.250000000002434, -0.7017039600119044 
3.260000000002455, -0.7016242429508296 
3.2700000000024763, -0.7016201477239855 
3.2800000000024974, -0.7016521817843263 
3.2900000000025185, -0.7016911599107102 
3.3000000000025396, -0.7017163423997512 
3.3100000000025607, -0.7017143046642038 
3.3200000000025818, -0.7016784083991565 
3.330000000002603, -0.7016079815927768 
3.340000000002624, -0.7015061180567322 
3.350000000002645, -0.7013759426563229 
3.360000000002666, -0.7012168407992025 
3.3700000000026873, -0.7010229786626261 
3.3800000000027084, -0.7007852910800368 
3.3900000000027295, -0.7004957676015989 
3.4000000000027506, -0.7001514704875733 
3.4100000000027717, -0.6997565043054741 
3.420000000002793, -0.6993221337983462 
3.430000000002814, -0.6988665392586528 
3.440000000002835, -0.6984156111394241 
3.450000000002856, -0.6980053422816483 
3.460000000002877, -0.697685518109282 
3.4700000000028983, -0.6975237639823251 
3.4800000000029194, -0.6976085338853464 
3.4900000000029405, -0.6980493015163217 
3.5000000000029616, -0.6989720682828603 
3.5100000000029827, -0.7005082127099168 
3.520000000003004, -0.7027744457260998 
3.530000000003025, -0.7058415601470532 
3.540000000003046, -0.7096919792687941 
3.550000000003067, -0.7141751334192398 
3.5600000000030882, -0.718986810354597 
3.5700000000031094, -0.7237097725302226 
3.5800000000031305, -0.7279272710643931 
3.5900000000031516, -0.7313560250904942 
3.6000000000031727, -0.7339111365583308 
3.6100000000031938, -0.7356712333060799 
3.620000000003215, -0.7367930188304564 
3.630000000003236, -0.737438268930423 
3.640000000003257, -0.737737038418184 
3.650000000003278, -0.7377785881527826 
3.6600000000032993, -0.7376146191610569 
3.6700000000033204, -0.7372645908384636 
3.6800000000033415, -0.7367185195259025 
3.6900000000033626, -0.7359356543226347 
3.7000000000033837, -0.7348386582068335 
3.710000000003405, -0.7333039568455451 
3.720000000003426, -0.731151663505212 
3.730000000003447, -0.7281456605000667 
3.740000000003468, -0.7240278348357896 
3.750000000003489, -0.718620934725801 
3.7600000000035103, -0.7120048579716556 
3.7700000000035314, -0.7046650433304766 
3.7800000000035525, -0.6974246507557439 
3.7900000000035736, -0.6911177048048647 
3.8000000000035947, -0.6862468634576548 
3.810000000003616, -0.6828821153407397 
3.820000000003637, -0.6807900269259194 
3.830000000003658, -0.6796235773984155 
3.840000000003679, -0.6790547202688101 
3.8500000000037002, -0.6788303009311943 
3.8600000000037213, -0.6787776581503303 
3.8700000000037424, -0.6787884519051768 
3.8800000000037635, -0.6787980312499207 
3.8900000000037847, -0.6787677808119106 
3.9000000000038058, -0.6786723681329077 
3.910000000003827, -0.6784916370978095 
3.920000000003848, -0.6782065622562932 
3.930000000003869, -0.6777990396718461 
3.94000000000389, -0.6772553823749179 
3.9500000000039113, -0.6765723948260702 
3.9600000000039324, -0.6757628706643912 
3.9700000000039535, -0.6748562032862824 
3.9800000000039746, -0.6738920718029252 
3.9900000000039957, -0.6729101285227823 
4.000000000004016, -0.6719415515054521 
4.010000000003993, -0.6710063319768926 
4.02000000000397, -0.6701158482715147 
4.030000000003946, -0.6692777305924383 
4.040000000003923, -0.6685002977779849 
4.0500000000039, -0.6677954078919695 
4.0600000000038765, -0.667179784736711 
4.070000000003853, -0.6666752649130795 
4.08000000000383, -0.6663082910098803 
4.090000000003807, -0.6661088155246251 
4.100000000003783, -0.6661087763648984 
4.11000000000376, -0.6663403948325406 
4.120000000003737, -0.6668345503068005 
4.130000000003713, -0.6676192438619142 
4.14000000000369, -0.6687176300389158 
4.150000000003667, -0.6701443951398575 
4.1600000000036434, -0.6718987755411647 
4.17000000000362, -0.6739530658580403 
4.180000000003597, -0.6762383288057692 
4.1900000000035735, -0.6786347182118028 
4.20000000000355, -0.6809789783089631 
4.210000000003527, -0.6830973722067402 
4.220000000003504, -0.6848536258882897 
4.23000000000348, -0.6861837536373127 
4.240000000003457, -0.687096964229035 
4.250000000003434, -0.6876489329750842 
4.26000000000341, -0.6879095479924905 
4.270000000003387, -0.6879406703793964 
4.280000000003364, -0.6877861405841375 
4.2900000000033405, -0.6874694379163995 
4.300000000003317, -0.6869941437660733 
4.310000000003294, -0.6863443160858098 
4.320000000003271, -0.685483564854111 
4.330000000003247, -0.6843525837723995 
4.340000000003224, -0.6828654650566868 
4.350000000003201, -0.6809059450095798 
4.360000000003177, -0.6783274896626457 
4.370000000003154, -0.6749696367206878 
4.380000000003131, -0.6707179983860397 
4.390000000003107, -0.6656309688229596 
4.400000000003084, -0.6600749277689256 
4.410000000003061, -0.6546957681467035 
4.4200000000030375, -0.6501473510203974 
4.430000000003014, -0.6467904017937192 
4.440000000002991, -0.6446171213731249 
4.450000000002968, -0.6433859488882554 
4.460000000002944, -0.642793462559042 
4.470000000002921, -0.6425785032081589 
4.480000000002898, -0.6425546653411227 
4.490000000002874, -0.6426035660274364 
4.500000000002851, -0.6426555738914079 
4.510000000002828, -0.6426710765035254 
4.520000000002804, -0.6426263756356584 
4.530000000002781, -0.6425043865841904 
4.540000000002758, -0.6422893383496595 
4.5500000000027345, -0.6419649485339158 
4.560000000002711, -0.6415160302850674 
4.570000000002688, -0.6409333293080899 
4.580000000002665, -0.6402199779694089 
4.590000000002641, -0.6393958649127363 
4.600000000002618, -0.6384958772963001 
4.610000000002595, -0.637561413873985 
4.620000000002571, -0.6366295841914724 
4.630000000002548, -0.6357260649490651 
4.640000000002525, -0.6348643331566203 
4.6500000000025015, -0.6340497000789521 
4.660000000002478, -0.6332848009439318 
4.670000000002455, -0.6325740814144697 
4.6800000000024315, -0.6319265528872963 
4.690000000002408, -0.6313572203696951 
4.700000000002385, -0.6308878149018169 
4.710000000002362, -0.6305471959563678 
4.720000000002338, -0.6303714875364903 
4.730000000002315, -0.630403874589658 
4.740000000002292, -0.6306939784585058 
4.750000000002268, -0.6312966935283824 
4.760000000002245, -0.6322701047981737 
4.770000000002222, -0.6336714596043027 
4.7800000000021985, -0.6355491669585163 
4.790000000002175, -0.6379279978341384 
4.800000000002152, -0.6407856886160995 
4.810000000002129, -0.644024821855625 
4.820000000002105, -0.6474553990040361 
4.830000000002082, -0.6508128948932048 
4.840000000002059, -0.6538239912091645 
4.850000000002035, -0.6562918614239679 
4.860000000002012, -0.6581453650080148 
4.870000000001989, -0.6594248164020178 
4.880000000001965, -0.6602295231785672 
4.890000000001942, -0.6606679164571859 
4.900000000001919, -0.6608294137100517 
4.9100000000018955, -0.6607750885572903 
4.920000000001872, -0.6605375069946248 
