t, s[1].omega / s[0].omega 
0, -0.5699977363426851 
0.009999999999999995, -0.569775904167974 
0.019999999999999934, -0.5695581981481367 
0.029999999999999874, -0.5693322952037599 
0.04000000000000012, -0.56908358950699 
0.050000000000000405, -0.5688004862841078 
0.06000000000000069, -0.568477448076285 
0.07000000000000098, -0.5681154188136005 
0.08000000000000126, -0.5677209141402575 
0.09000000000000155, -0.5673054422856552 
0.10000000000000184, -0.5668864236426727 
0.11000000000000212, -0.5664902298856973 
0.12000000000000241, -0.5661577201501025 
0.130000000000002, -0.5659525523478883 
0.1400000000000009, -0.5659721332644915 
0.1499999999999998, -0.5663595903324461 
0.1599999999999987, -0.567311418565999 
0.1699999999999976, -0.5690682523470758 
0.1799999999999965, -0.5718670324446479 
0.1899999999999954, -0.5758335410990415 
0.1999999999999943, -0.5808329732741773 
0.2099999999999932, -0.5863844635627131 
0.2199999999999921, -0.591786158587009 
0.229999999999991, -0.5964295013677018 
0.2399999999999899, -0.6000409440804014 
0.2499999999999888, -0.6026654085775479 
0.2599999999999877, -0.6044983861305531 
0.2699999999999866, -0.6057477567692284 
0.2799999999999855, -0.6065784602926263 
0.2899999999999844, -0.6071071490197493 
0.2999999999999833, -0.6074121180269265 
0.3099999999999822, -0.6075435283006844 
0.3199999999999811, -0.6075304830921973 
0.32999999999998, -0.6073852029914948 
0.3399999999999789, -0.6071052523825707 
0.3499999999999778, -0.6066749804697416 
0.35999999999997667, -0.6060678199015941 
0.36999999999997557, -0.6052517447209802 
0.37999999999997447, -0.6042000516242024 
0.38999999999997337, -0.6029069355876947 
0.39999999999997227, -0.6014016578956449 
0.40999999999997117, -0.5997510200129251 
0.41999999999997006, -0.5980447785543415 
0.42999999999996896, -0.5963712336998619 
0.43999999999996786, -0.5947973781954327 
0.44999999999996676, -0.5933622338267531 
0.45999999999996566, -0.5920815465897074 
0.46999999999996456, -0.5909570801883488 
0.47999999999996346, -0.5899851171619916 
0.48999999999996235, -0.5891620592495903 
0.49999999999996125, -0.5884872658890166 
0.5099999999999602, -0.587964060464133 
0.519999999999959, -0.5875997918850127 
0.529999999999958, -0.5874055556533615 
0.5399999999999568, -0.587395925279002 
0.5499999999999557, -0.5875888556402821 
0.5599999999999546, -0.5880057281697078 
0.5699999999999535, -0.5886712277799317 
0.5799999999999524, -0.5896123021887043 
0.5899999999999513, -0.59085485116266 
0.5999999999999502, -0.5924162455992888 
0.6099999999999491, -0.5942920389649405 
0.619999999999948, -0.5964378081394062 
0.6299999999999469, -0.5987532288079784 
0.6399999999999458, -0.6010826678154266 
0.6499999999999447, -0.6032448165773847 
0.6599999999999436, -0.6050844984769044 
0.6699999999999425, -0.6065164982008865 
0.6799999999999414, -0.6075341745826806 
0.6899999999999403, -0.6081851250212587 
0.6999999999999392, -0.6085372323063081 
0.7099999999999381, -0.6086536810866884 
0.719999999999937, -0.6085808555321115 
0.7299999999999359, -0.6083446344500946 
0.7399999999999348, -0.6079496713104988 
0.7499999999999337, -0.6073780420301673 
0.7599999999999326, -0.6065852699329957 
0.7699999999999315, -0.6054928375553729 
0.7799999999999304, -0.6039779505606282 
0.7899999999999293, -0.6018657405845225 
0.7999999999999282, -0.5989388465319359 
0.8099999999999271, -0.5949914228046381 
0.819999999999926, -0.5899470007440034 
0.8299999999999249, -0.5839973535337742 
0.8399999999999238, -0.5776351297531004 
0.8499999999999227, -0.5714934264108413 
0.8599999999999216, -0.5660960347140794 
0.8699999999999205, -0.5617096018321359 
0.8799999999999194, -0.5583572815217918 
0.8899999999999183, -0.5559149499801698 
0.8999999999999172, -0.5542037766374243 
0.9099999999999161, -0.5530468188259098 
0.919999999999915, -0.552293731154734 
0.9299999999999139, -0.5518267264134259 
0.9399999999999128, -0.551558002487363 
0.9499999999999117, -0.5514243301445615 
0.9599999999999106, -0.5513814427897246 
0.9699999999999095, -0.5513992833955508 
0.9799999999999084, -0.5514584471261279 
0.9899999999999073, -0.5515478248230697 
0.9999999999999062, -0.5516631928980924 
1.0099999999999052, -0.5518061521462075 
1.019999999999904, -0.5519824517410543 
1.029999999999903, -0.5521986961416377 
1.039999999999902, -0.5524571809812366 
1.0499999999999008, -0.5527501755921438 
1.0599999999998997, -0.5530565339019937 
1.0699999999998986, -0.5533435828582287 
1.0799999999998975, -0.5535747545217127 
1.0899999999998964, -0.5537194967395622 
1.0999999999998953, -0.5537600903938281 
1.1099999999998942, -0.5536923542762555 
1.119999999999893, -0.5535214945553892 
1.129999999999892, -0.5532565347005567 
1.1399999999998909, -0.5529059740563192 
1.1499999999998898, -0.5524755406894302 
1.1599999999998887, -0.5519677798351926 
1.1699999999998876, -0.5513829375770576 
1.1799999999998865, -0.5507205986428303 
1.1899999999998854, -0.5499811501625955 
1.1999999999998843, -0.5491646940846147 
1.2099999999998832, -0.5482621792599629 
1.219999999999882, -0.5472314688724753 
1.229999999999881, -0.5459596620903565 
1.2399999999998799, -0.5442480982330189 
1.2499999999998788, -0.5418982527224627 
1.2599999999998777, -0.5389132945799721 
1.2699999999998766, -0.5356254441382546 
1.2799999999998755, -0.5325429545790386 
1.2899999999998744, -0.5300532466927848 
1.2999999999998733, -0.5282792882216067 
1.3099999999998722, -0.5271396847447165 
1.319999999999871, -0.5264712527023627 
1.32999999999987, -0.5261132899961474 
1.3399999999998689, -0.525940733402803 
1.3499999999998678, -0.5258672610492066 
1.3599999999998666, -0.5258371798997628 
1.3699999999998655, -0.5258157019811017 
1.3799999999998644, -0.5257810540421038 
1.3899999999998633, -0.5257191271987454 
1.3999999999998622, -0.5256205128508251 
1.4099999999998611, -0.5254796203556693 
1.41999999999986, -0.5252954469974715 
1.429999999999859, -0.525073122973525 
1.4399999999998578, -0.5248246862988503 
1.4499999999998567, -0.5245673688700686 
1.4599999999998556, -0.5243188111658112 
1.4699999999998545, -0.5240907827293728 
1.4799999999998534, -0.5238845111943634 
1.4899999999998523, -0.5236901949637838 
1.4999999999998512, -0.5234909696801184 
1.5099999999998501, -0.5232691122783808 
1.519999999999849, -0.5230113098602743 
1.529999999999848, -0.5227110015707754 
1.5399999999998468, -0.5223679797569958 
1.5499999999998457, -0.5219868460712651 
1.5599999999998446, -0.5215759581266193 
1.5699999999998435, -0.5211478596608934 
1.5799999999998424, -0.5207216637113853 
1.5899999999998413, -0.5203276752587117 
1.5999999999998402, -0.5200144204845375 
1.6099999999998391, -0.5198575810693739 
1.619999999999838, -0.5199680532265271 
1.629999999999837, -0.5204909438944939 
1.6399999999998358, -0.521578500204341 
1.6499999999998347, -0.5233155414540838 
1.6599999999998336, -0.5256023397089977 
1.6699999999998325, -0.5280823566787105 
1.6799999999998314, -0.5302615953610433 
1.6899999999998303, -0.5318046546053022 
1.6999999999998292, -0.5327158424861909 
1.709999999999828, -0.5332213357315407 
1.719999999999827, -0.5335464349758731 
1.729999999999826, -0.5338128242728832 
1.7399999999998248, -0.534055491430368 
1.7499999999998237, -0.5342697031473624 
1.7599999999998226, -0.5344418130749926 
1.7699999999998215, -0.5345609854167647 
1.7799999999998204, -0.5346207256940482 
1.7899999999998193, -0.5346169489625366 
1.7999999999998182, -0.53454571469357 
1.809999999999817, -0.5344017814140926 
1.819999999999816, -0.5341784701595943 
1.8299999999998149, -0.5338692050364132 
1.8399999999998138, -0.5334708524114227 
1.8499999999998127, -0.5329881051185233 
1.8599999999998116, -0.5324367563340504 
1.8699999999998105, -0.5318430303306736 
1.8799999999998094, -0.5312377845581719 
1.8899999999998083, -0.530647890493813 
1.8999999999998072, -0.5300893321766188 
1.909999999999806, -0.529565331032495 
1.919999999999805, -0.529069494348038 
1.9299999999998039, -0.5285914517074771 
1.9399999999998028, -0.5281220676274617 
1.9499999999998017, -0.5276566331942247 
1.9599999999998006, -0.5271961402973088 
1.9699999999997995, -0.5267477478798506 
1.9799999999997984, -0.5263256492336703 
1.9899999999997973, -0.5259531986066873 
1.9999999999997962, -0.5256668225585733 
2.0099999999998173, -0.5255220528395697 
2.0199999999998384, -0.525601783805477 
2.0299999999998595, -0.5260261317023491 
2.0399999999998806, -0.526961252249506 
2.0499999999999017, -0.5286199232444062 
2.059999999999923, -0.5312388054683671 
2.069999999999944, -0.535009727687131 
2.079999999999965, -0.5399521112630731 
2.089999999999986, -0.5457707131770634 
2.100000000000007, -0.551834477876684 
2.1100000000000283, -0.5573957542522319 
2.1200000000000494, -0.5619306299932687 
2.1300000000000705, -0.5653039060826104 
2.1400000000000916, -0.5676665776217185 
2.1500000000001127, -0.56926536070853 
2.160000000000134, -0.5703229085889968 
2.170000000000155, -0.5710026954500318 
2.180000000000176, -0.5714144113649037 
2.190000000000197, -0.5716282281880913 
2.2000000000002182, -0.5716865759101011 
2.2100000000002393, -0.5716117208202947 
2.2200000000002604, -0.5714101402758655 
2.2300000000002815, -0.5710751185481423 
2.2400000000003026, -0.5705891678649727 
2.2500000000003237, -0.5699282476398724 
2.260000000000345, -0.5690697997428923 
2.270000000000366, -0.5680050321361608 
2.280000000000387, -0.566751750758773 
2.290000000000408, -0.5653597238013142 
2.3000000000004293, -0.5639020964368203 
2.3100000000004504, -0.5624557621916972 
2.3200000000004715, -0.5610821422130703 
2.3300000000004926, -0.5598181353429439 
2.3400000000005137, -0.5586782438565063 
2.3500000000005348, -0.5576626574565473 
2.360000000000556, -0.5567658005060949 
2.370000000000577, -0.5559825571965674 
2.380000000000598, -0.5553118466354603 
2.390000000000619, -0.5547583549253373 
2.4000000000006403, -0.5543333556024266 
2.4100000000006614, -0.5540552618730233 
2.4200000000006825, -0.553950242672643 
2.4300000000007036, -0.5540530172911676 
2.4400000000007247, -0.5544077659695462 
2.450000000000746, -0.5550688204323684 
2.460000000000767, -0.5561002508186684 
2.470000000000788, -0.5575724693812013 
2.480000000000809, -0.5595525468116929 
2.49000000000083, -0.5620838747652128 
2.5000000000008513, -0.5651527060000412 
2.5100000000008724, -0.5686484821322674 
2.5200000000008935, -0.5723426595690151 
2.5300000000009146, -0.5759211358422033 
2.5400000000009357, -0.5790778793576565 
2.550000000000957, -0.5816176526356229 
2.560000000000978, -0.5834961811909717 
2.570000000000999, -0.5847838141029198 
2.58000000000102, -0.5855992794151011 
2.5900000000010412, -0.5860589755053113 
2.6000000000010624, -0.5862536564397279 
2.6100000000010835, -0.5862435317092421 
2.6200000000011046, -0.5860605994796316 
2.6300000000011257, -0.5857115427758653 
2.6400000000011468, -0.5851784356781417 
2.650000000001168, -0.5844167446367624 
2.660000000001189, -0.5833519050028082 
2.67000000000121, -0.5818786775864496 
2.680000000001231, -0.5798722378381477 
2.6900000000012523, -0.5772232784759738 
2.7000000000012734, -0.5739005450788492 
2.7100000000012945, -0.5700139219339184 
2.7200000000013156, -0.5658225700030923 
2.7300000000013367, -0.5616593103164915 
2.740000000001358, -0.5578178469574475 
2.750000000001379, -0.554479729760676 
2.7600000000014, -0.5517087931606272 
2.770000000001421, -0.5494863355403303 
2.780000000001442, -0.547751787301725 
2.7900000000014633, -0.5464316758927319 
2.8000000000014844, -0.5454552791537468 
2.8100000000015055, -0.5447611562111477 
2.8200000000015266, -0.5442988334736041 
2.8300000000015477, -0.5440284242367307 
2.840000000001569, -0.5439196274386005 
2.85000000000159, -0.5439507339093789 
2.860000000001611, -0.544107845640357 
2.870000000001632, -0.5443842877092301 
2.8800000000016532, -0.5447799952620632 
2.8900000000016743, -0.5453003785163562 
2.9000000000016954, -0.5459538108019699 
2.9100000000017165, -0.5467466754679048 
2.9200000000017377, -0.5476753756427908 
2.9300000000017588, -0.5487165098525385 
2.94000000000178, -0.5498195445301761 
2.950000000001801, -0.5509086969500296 
2.960000000001822, -0.5518981132181705 
2.970000000001843, -0.5527152409942391 
2.9800000000018643, -0.5533191128857611 
2.9900000000018854, -0.5537033840263554 
3.0000000000019065, -0.5538858005114943 
3.0100000000019276, -0.5538933356383064 
3.0200000000019487, -0.5537503679263406 
3.03000000000197, -0.5534717578490317 
3.040000000001991, -0.5530591831598995 
3.050000000002012, -0.5524982931170708 
3.060000000002033, -0.5517545877619765 
3.070000000002054, -0.5507663466367265 
3.0800000000020753, -0.5494334924651972 
3.0900000000020964, -0.5476034733080292 
3.1000000000021175, -0.5450626620101271 
3.1100000000021386, -0.5415581607291069 
3.1200000000021597, -0.5368903560396194 
3.130000000002181, -0.5310846575345144 
3.140000000002202, -0.5245327507742534 
3.150000000002223, -0.5179188759598315 
3.160000000002244, -0.5119270357783354 
3.1700000000022652, -0.5069757219635718 
3.1800000000022863, -0.5031648249667308 
3.1900000000023074, -0.5003804017832183 
3.2000000000023285, -0.49842228726765336 
3.2100000000023496, -0.49708663407487796 
3.2200000000023707, -0.496201660192951 
3.230000000002392, -0.49563560389167394 
3.240000000002413, -0.4952927145420148 
3.250000000002434, -0.4951058672025212 
3.260000000002455, -0.49502944638887253 
3.2700000000024763, -0.4950336867538934 
3.2800000000024974, -0.495100647725625 
3.2900000000025185, -0.4952216250561855 
3.3000000000025396, -0.4953955998715217 
3.3100000000025607, -0.49562806669381604 
3.3200000000025818, -0.4959292500648231 
3.330000000002603, -0.49631055905620414 
3.340000000002624, -0.4967785886468613 
3.350000000002645, -0.4973274073232109 
3.360000000002666, -0.4979320444759955 
3.3700000000026873, -0.4985476953037627 
3.3800000000027084, -0.49911784148196786 
3.3900000000027295, -0.4995891267593883 
3.4000000000027506, -0.4999251414846775 
3.4100000000027717, -0.5001115985800134 
3.420000000002793, -0.5001519580123025 
3.430000000002814, -0.5000583349679506 
3.440000000002835, -0.499842844668255 
3.450000000002856, -0.4995115073556928 
3.460000000002877, -0.4990601759986446 
3.4700000000028983, -0.4984708443783183 
3.4800000000029194, -0.49770649245345255 
3.4900000000029405, -0.4967026285322248 
3.5000000000029616, -0.49535407814512 
3.5100000000029827, -0.4934982306103534 
3.520000000003004, -0.49090547559656006 
3.530000000003025, -0.48730800676223096 
3.540000000003046, -0.4825133472096167 
3.550000000003067, -0.47659768904041505 
3.5600000000030882, -0.4700297796464151 
3.5700000000031094, -0.46353447041545737 
3.5800000000031305, -0.45776189852988025 
3.5900000000031516, -0.4530543061772674 
3.6000000000031727, -0.4494471629126922 
3.6100000000031938, -0.44679768992363433 
3.620000000003215, -0.4449064233986175 
3.630000000003236, -0.44358519649047085 
3.640000000003257, -0.44268192132333056 
3.650000000003278, -0.4420830595522086 
3.6600000000032993, -0.4417078642472549 
3.6700000000033204, -0.44150114367847404 
3.6800000000033415, -0.4414270636551742 
3.6900000000033626, -0.44146461065765036 
3.7000000000033837, -0.4416046257990539 
3.710000000003405, -0.44184805566583274 
3.720000000003426, -0.4422048633748286 
3.730000000003447, -0.4426927221491347 
3.740000000003468, -0.4433341743700338 
3.750000000003489, -0.4441506306538055 
3.7600000000035103, -0.44515200775701536 
3.7700000000035314, -0.4463229034861995 
3.7800000000035525, -0.447610542137852 
3.7900000000035736, -0.4489241527308604 
3.8000000000035947, -0.4501534052342965 
3.810000000003616, -0.4512006147423836 
3.820000000003637, -0.45200778018112037 
3.830000000003658, -0.4525626030788321 
3.840000000003679, -0.45288514419951487 
3.8500000000037002, -0.45300830911802115 
3.8600000000037213, -0.45296257510546994 
3.8700000000037424, -0.4527673745999786 
3.8800000000037635, -0.45242683371911785 
3.8900000000037847, -0.45192684075107303 
3.9000000000038058, -0.451231456991915 
3.910000000003827, -0.4502783295852204 
3.920000000003848, -0.44897547526963144 
3.930000000003869, -0.4472065826286986 
3.94000000000389, -0.44485744470628674 
3.9500000000039113, -0.44187303538878575 
3.9600000000039324, -0.4383281580599661 
3.9700000000039535, -0.4344549578264284 
3.9800000000039746, -0.430578908381546 
3.9900000000039957, -0.42699729643775053 
4.000000000004016, -0.423891098937213 
4.010000000003993, -0.4213150210115657 
4.02000000000397, -0.41923814357540107 
4.030000000003946, -0.4175911526234515 
4.040000000003923, -0.41629856092757783 
4.0500000000039, -0.4152946689649135 
4.0600000000038765, -0.41452907113021925 
4.070000000003853, -0.4139671542650848 
4.08000000000383, -0.41358894432073956 
4.090000000003807, -0.4133879913611868 
4.100000000003783, -0.4133710336966863 
4.11000000000376, -0.41355871409237616 
4.120000000003737, -0.41398734904919887 
4.130000000003713, -0.4147114033019312 
4.14000000000369, -0.4158055728020398 
4.150000000003667, -0.41736380493870195 
4.1600000000036434, -0.4194898406874706 
4.17000000000362, -0.4222707034676224 
4.180000000003597, -0.42572547031042357 
4.1900000000035735, -0.4297370294810475 
4.20000000000355, -0.434010181703594 
4.210000000003527, -0.43812300268799664 
4.220000000003504, -0.4416810786876869 
4.23000000000348, -0.4444685647850487 
4.240000000003457, -0.44647922816274993 
4.250000000003434, -0.44783768345485553 
4.26000000000341, -0.44870347366412816 
4.270000000003387, -0.44921501104310496 
4.280000000003364, -0.44947270319549143 
4.2900000000033405, -0.4495414263134359 
4.300000000003317, -0.44945804375704607 
4.310000000003294, -0.4492381133267978 
4.320000000003271, -0.44888073907427356 
4.330000000003247, -0.4483726332868129 
4.340000000003224, -0.44769343967452074 
4.350000000003201, -0.44682454774062086 
4.360000000003177, -0.44576199545628076 
4.370000000003154, -0.44452965740915984 
4.380000000003131, -0.4431841562965052 
4.390000000003107, -0.44180449359707746 
4.400000000003084, -0.4404698517383364 
4.410000000003061, -0.43923861468370823 
4.4200000000030375, -0.438139425186565 
4.430000000003014, -0.4371748802155901 
4.440000000002991, -0.4363315973855114 
4.450000000002968, -0.4355904163307075 
4.460000000002944, -0.43493366153003626 
4.470000000002921, -0.43434915533179363 
4.480000000002898, -0.4338320517502662 
4.490000000002874, -0.43338586240983973 
4.500000000002851, -0.43302381258924144 
4.510000000002828, -0.4327713356917717 
4.520000000002804, -0.43267029472305263 
4.530000000002781, -0.43278536955490743 
4.540000000002758, -0.4332126830872811 
4.5500000000027345, -0.43408950291419035 
4.560000000002711, -0.4356004560858307 
4.570000000002688, -0.4379682661640877 
4.580000000002665, -0.44140559419399805 
4.590000000002641, -0.4460005100494824 
4.600000000002618, -0.45154767342039903 
4.610000000002595, -0.4574506988977056 
4.620000000002571, -0.46289249327715787 
4.630000000002548, -0.4672459874943077 
4.640000000002525, -0.470349341571456 
4.6500000000025015, -0.47240941332242165 
4.660000000002478, -0.4737412205834864 
4.670000000002455, -0.4746036964844705 
4.6800000000024315, -0.4751651976438162 
4.690000000002408, -0.475525101029585 
4.700000000002385, -0.4757406688977185 
4.710000000002362, -0.4758449063634102 
4.720000000002338, -0.4758562835583763 
4.730000000002315, -0.47578372876284264 
4.740000000002292, -0.4756294691955555 
4.750000000002268, -0.47539138829837835 
4.760000000002245, -0.47506603123737845 
4.770000000002222, -0.47465282746688936 
4.7800000000021985, -0.4741590113328732 
4.790000000002175, -0.4736031645600498 
4.800000000002152, -0.4730145171987964 
4.810000000002129, -0.472426776633274 
4.820000000002105, -0.4718688562703683 
4.830000000002082, -0.4713572478032071 
4.840000000002059, -0.47089362072976887 
4.850000000002035, -0.4704679091590678 
4.860000000002012, -0.4700644610212092 
4.870000000001989, -0.4696681115377338 
4.880000000001965, -0.4692680688971264 
4.890000000001942, -0.46885926793742916 
4.900000000001919, -0.4684421957841513 
