t, s[1].omega / s[0].omega 
0, -0.3499977910192539 
0.009999999999999995, -0.34980405794105396 
0.019999999999999934, -0.3496575822796172 
0.029999999999999874, -0.3495409488289395 
0.04000000000000012, -0.34943116570386445 
0.050000000000000405, -0.3493058133723732 
0.06000000000000069, -0.3491474540063747 
0.07000000000000098, -0.3489449252096123 
0.08000000000000126, -0.34869190045946935 
0.09000000000000155, -0.34838403850654187 
0.10000000000000184, -0.34801581642161844 
0.11000000000000212, -0.34757735551850966 
0.12000000000000241, -0.347050828219567 
0.130000000000002, -0.3464055935314589 
0.1400000000000009, -0.3455911625719446 
0.1499999999999998, -0.34452805928245184 
0.1599999999999987, -0.34310032856906714 
0.1699999999999976, -0.3411619377747392 
0.1799999999999965, -0.3385788572848144 
0.1899999999999954, -0.3353177582394701 
0.1999999999999943, -0.33153610542325906 
0.2099999999999932, -0.3275749242321372 
0.2199999999999921, -0.3238217797694917 
0.229999999999991, -0.3205535902516805 
0.2399999999999899, -0.3178781411642535 
0.2499999999999888, -0.3157729834520722 
0.2599999999999877, -0.31415283924679527 
0.2699999999999866, -0.3129195431080379 
0.2799999999999855, -0.3119867985282081 
0.2899999999999844, -0.311288163908922 
0.2999999999999833, -0.3107771854997929 
0.3099999999999822, -0.31042504954721867 
0.3199999999999811, -0.3102182725108989 
0.32999999999998, -0.31015741296075006 
0.3399999999999789, -0.3102571045626402 
0.3499999999999778, -0.31054738578033153 
0.35999999999997667, -0.31107595798495746 
0.36999999999997557, -0.3119102550973969 
0.37999999999997447, -0.3131365664605611 
0.38999999999997337, -0.31485052808619424 
0.39999999999997227, -0.31713002642070753 
0.40999999999997117, -0.31998335872612316 
0.41999999999997006, -0.32328406892683137 
0.42999999999996896, -0.3267422072556581 
0.43999999999996786, -0.32997598013028623 
0.44999999999996676, -0.3326696764744136 
0.45999999999996566, -0.33469425318433155 
0.46999999999996456, -0.33609866043160397 
0.47999999999996346, -0.3370182981669798 
0.48999999999996235, -0.3375935491182119 
0.49999999999996125, -0.33793382648447134 
0.5099999999999602, -0.33811357163504885 
0.519999999999959, -0.3381799443307433 
0.529999999999958, -0.3381615204673102 
0.5399999999999568, -0.3380749217904059 
0.5499999999999557, -0.33792947208875457 
0.5599999999999546, -0.3377307579286734 
0.5699999999999535, -0.337483862494783 
0.5799999999999524, -0.33719654434515955 
0.5899999999999513, -0.33688187233220773 
0.5999999999999502, -0.3365591147088052 
0.6099999999999491, -0.33625169018889933 
0.619999999999948, -0.33598217098284744 
0.6299999999999469, -0.33576605310842345 
0.6399999999999458, -0.33560692123188374 
0.6499999999999447, -0.3354951099922115 
0.6599999999999436, -0.33541049204302914 
0.6699999999999425, -0.33532827299987894 
0.6799999999999414, -0.3352252852681497 
0.6899999999999403, -0.33508415117258894 
0.6999999999999392, -0.33489410621077864 
0.7099999999999381, -0.3346490933393031 
0.719999999999937, -0.33434456420840986 
0.7299999999999359, -0.33397404809421927 
0.7399999999999348, -0.333525698503603 
0.7499999999999337, -0.332978334034069 
0.7599999999999326, -0.33229617676430145 
0.7699999999999315, -0.3314217772875042 
0.7799999999999304, -0.3302683255416366 
0.7899999999999293, -0.3287173521246267 
0.7999999999999282, -0.32663618008156975 
0.8099999999999271, -0.3239329522997663 
0.819999999999926, -0.32064275144082627 
0.8299999999999249, -0.31698189247395037 
0.8399999999999238, -0.31329323379147606 
0.8499999999999227, -0.30990348295168857 
0.8599999999999216, -0.3070092279887284 
0.8699999999999205, -0.30466108615257653 
0.8799999999999194, -0.3028136088505943 
0.8899999999999183, -0.30138236052259637 
0.8999999999999172, -0.30028067494722155 
0.9099999999999161, -0.299436091129701 
0.919999999999915, -0.29879477196245574 
0.9299999999999139, -0.2983207997154177 
0.9399999999999128, -0.2979942009365609 
0.9499999999999117, -0.29780946264601 
0.9599999999999106, -0.2977752451909709 
0.9699999999999095, -0.29791553189744724 
0.9799999999999084, -0.2982721711180503 
0.9899999999999073, -0.29890827388054086 
0.9999999999999062, -0.29991070847379786 
1.0099999999999052, -0.3013872504888171 
1.019999999999904, -0.30344941872272135 
1.029999999999903, -0.3061682430552255 
1.039999999999902, -0.30949819303646586 
1.0499999999999008, -0.3132019638107091 
1.0599999999998997, -0.3168618418886254 
1.0699999999998986, -0.32003712551359215 
1.0799999999998975, -0.32246922431284747 
1.0899999999998964, -0.32415119795715036 
1.0999999999998953, -0.32523440044193525 
1.1099999999998942, -0.32590173519081533 
1.119999999999893, -0.3262994902271935 
1.129999999999892, -0.3265250884949935 
1.1399999999998909, -0.32663797133812994 
1.1499999999998898, -0.3266731262992705 
1.1599999999998887, -0.3266509887986891 
1.1699999999998876, -0.3265836726147499 
1.1799999999998865, -0.32647890947095604 
1.1899999999998854, -0.3263429086200619 
1.1999999999998843, -0.32618284042919116 
1.2099999999998832, -0.3260090561173027 
1.219999999999882, -0.325836524537379 
1.229999999999881, -0.3256845359646553 
1.2399999999998799, -0.3255739152371842 
1.2499999999998788, -0.3255219556049792 
1.2599999999998777, -0.32553654691605816 
1.2699999999998766, -0.32561179090473924 
1.2799999999998755, -0.32572735939701436 
1.2899999999998744, -0.325852701866514 
1.2999999999998733, -0.32595487895882025 
1.3099999999998722, -0.326006481378178 
1.319999999999871, -0.32598996970950433 
1.32999999999987, -0.3258972357050583 
1.3399999999998689, -0.32572588769268673 
1.3499999999998678, -0.32547454580922625 
1.3599999999998666, -0.32513851360130036 
1.3699999999998655, -0.32470597067158236 
1.3799999999998644, -0.32415417605799635 
1.3899999999998633, -0.323445271384314 
1.3999999999998622, -0.3225223052732912 
1.4099999999998611, -0.3213086012206398 
1.41999999999986, -0.3197176408986241 
1.429999999999859, -0.3176828153927069 
1.4399999999998578, -0.3152068737889413 
1.4499999999998567, -0.3124038361882472 
1.4599999999998556, -0.30948778137094135 
1.4699999999998545, -0.3066979484264903 
1.4799999999998534, -0.3042131282635048 
1.4899999999998523, -0.30211426869991215 
1.4999999999998512, -0.3004002472979511 
1.5099999999998501, -0.29902464818134067 
1.519999999999849, -0.297927029011054 
1.529999999999848, -0.29705094048423647 
1.5399999999998468, -0.2963514792858081 
1.5499999999998457, -0.2957971354494189 
1.5599999999998446, -0.29536942476863504 
1.5699999999998435, -0.2950622802032904 
1.5799999999998424, -0.29488219834626067 
1.5899999999998413, -0.2948496318371391 
1.5999999999998402, -0.2950018277001998 
1.6099999999998391, -0.29539690144568265 
1.619999999999838, -0.296117881321237 
1.629999999999837, -0.297272867274002 
1.6399999999998358, -0.2989823234334269 
1.6499999999998347, -0.30133805316009193 
1.6599999999998336, -0.3043209932908214 
1.6699999999998325, -0.3077018505370096 
1.6799999999998314, -0.3110249271825888 
1.6899999999998303, -0.31378306392492605 
1.6999999999998292, -0.31569320499292824 
1.709999999999828, -0.3168025349544468 
1.719999999999827, -0.31734964980937247 
1.729999999999826, -0.3175780716492018 
1.7399999999998248, -0.3176518273124818 
1.7499999999998237, -0.31765815783074053 
1.7599999999998226, -0.31763654217707604 
1.7699999999998215, -0.31760272825615404 
1.7799999999998204, -0.31756247071784827 
1.7899999999998193, -0.3175181533244005 
1.7999999999998182, -0.3174717967307734 
1.809999999999817, -0.31742660455861094 
1.819999999999816, -0.3173881088892728 
1.8299999999998149, -0.3173652759228863 
1.8399999999998138, -0.31737141205060426 
1.8499999999998127, -0.3174242666785648 
1.8599999999998116, -0.31754446712012674 
1.8699999999998105, -0.3177515727357959 
1.8799999999998094, -0.31805776002856734 
1.8899999999998083, -0.31846045188509814 
1.8999999999998072, -0.31893686922480907 
1.909999999999806, -0.3194445179185 
1.919999999999805, -0.3199299500560597 
1.9299999999998039, -0.3203430011672053 
1.9399999999998028, -0.32064904689471063 
1.9499999999998017, -0.3208330753851417 
1.9599999999998006, -0.3208955246471498 
1.9699999999997995, -0.3208443813007655 
1.9799999999997984, -0.32068781384322803 
1.9899999999997973, -0.32042900457484613 
1.9999999999997962, -0.3200628725278962 
2.0099999999998173, -0.3195738940314969 
2.0199999999998384, -0.31893482636044623 
2.0299999999998595, -0.3181074462363794 
2.0399999999998806, -0.31704811553316187 
2.0499999999999017, -0.31572179180039195 
2.059999999999923, -0.3141247973415889 
2.069999999999944, -0.3123068821971554 
2.079999999999965, -0.31037387638718517 
2.089999999999986, -0.30846000446235705 
2.100000000000007, -0.3066842958894124 
2.1100000000000283, -0.30511961077517313 
2.1200000000000494, -0.30378825896083067 
2.1300000000000705, -0.3026762884053063 
2.1400000000000916, -0.3017519324192107 
2.1500000000001127, -0.3009796487863771 
2.160000000000134, -0.30032806932389516 
2.170000000000155, -0.2997733978238257 
2.180000000000176, -0.2993003197040735 
2.190000000000197, -0.298902022428747 
2.2000000000002182, -0.29858034248811954 
2.2100000000002393, -0.2983466081172078 
2.2200000000002604, -0.2982234105230594 
2.2300000000002815, -0.2982471082580279 
2.2400000000003026, -0.29846992216223933 
2.2500000000003237, -0.29895825579390073 
2.260000000000345, -0.2997795462410783 
2.270000000000366, -0.3009647209752323 
2.280000000000387, -0.3024370737747927 
2.290000000000408, -0.3039353487621573 
2.3000000000004293, -0.3050329758695223 
2.3100000000004504, -0.30535064755558644 
2.3200000000004715, -0.30482980136880794 
2.3300000000004926, -0.3037584426163245 
2.3400000000005137, -0.3025272482688401 
2.3500000000005348, -0.301408438678113 
2.360000000000556, -0.300511560888619 
2.370000000000577, -0.29984111557717036 
2.380000000000598, -0.2993591330371684 
2.390000000000619, -0.29902103071690134 
2.4000000000006403, -0.29878980835239 
2.4100000000006614, -0.2986393399520668 
2.4200000000006825, -0.29855368113454434 
2.4300000000007036, -0.29852559765182274 
2.4400000000007247, -0.29855549745910454 
2.450000000000746, -0.298651030094638 
2.460000000000767, -0.2988271612198954 
2.470000000000788, -0.29910616516015265 
2.480000000000809, -0.29951655351443074 
2.49000000000083, -0.3000895081604663 
2.5000000000008513, -0.3008512002315833 
2.5100000000008724, -0.3018102117125291 
2.5200000000008935, -0.30294238112674443 
2.5300000000009146, -0.30418094540429647 
2.5400000000009357, -0.30542329073390856 
2.550000000000957, -0.3065583283812178 
2.560000000000978, -0.30750116030219743 
2.570000000000999, -0.30821305583115566 
2.58000000000102, -0.30869765525065135 
2.5900000000010412, -0.30898298959499754 
2.6000000000010624, -0.3091034669313473 
2.6100000000010835, -0.30908867603092827 
2.6200000000011046, -0.3089586870428861 
2.6300000000011257, -0.30872315863015776 
2.6400000000011468, -0.308382218304309 
2.650000000001168, -0.3079284730703435 
2.660000000001189, -0.3073506356257666 
2.67000000000121, -0.306639672896828 
2.680000000001231, -0.305797462664138 
2.6900000000012523, -0.3048452814419516 
2.7000000000012734, -0.3038266236870168 
2.7100000000012945, -0.30279986248554525 
2.7200000000013156, -0.3018227858099169 
2.7300000000013367, -0.30093744259703614 
2.740000000001358, -0.3001629264506047 
2.750000000001379, -0.29949725249681436 
2.7600000000014, -0.29892447919085835 
2.770000000001421, -0.29842265261946216 
2.780000000001442, -0.29796992556500396 
2.7900000000014633, -0.2975480177496076 
2.8000000000014844, -0.29714333415022726 
2.8100000000015055, -0.296746569009818 
2.8200000000015266, -0.29635161462128456 
2.8300000000015477, -0.2959542523677321 
2.840000000001569, -0.2955506162912644 
2.85000000000159, -0.2951348272800514 
2.860000000001611, -0.29469435990130594 
2.870000000001632, -0.2942005022501786 
2.8800000000016532, -0.29359035031172076 
2.8900000000016743, -0.29273959042184733 
2.9000000000016954, -0.29144038886715495 
2.9100000000017165, -0.28943077232202047 
2.9200000000017377, -0.28653195847254664 
2.9300000000017588, -0.28284550114231 
2.94000000000178, -0.2787993465106485 
2.950000000001801, -0.2749306447917019 
2.960000000001822, -0.2716158566637568 
2.970000000001843, -0.268983124099369 
2.9800000000018643, -0.26698619214435315 
2.9900000000018854, -0.2655081097815307 
3.0000000000019065, -0.2644269776839655 
3.0100000000019276, -0.26364272523779403 
3.0200000000019487, -0.263082453245085 
3.03000000000197, -0.26269765231874553 
3.040000000001991, -0.2624598508970257 
3.050000000002012, -0.26235719019001846 
3.060000000002033, -0.2623926309748201 
3.070000000002054, -0.2625838333228265 
3.0800000000020753, -0.2629644539086847 
3.0900000000020964, -0.26358619146367757 
3.1000000000021175, -0.2645199308309304 
3.1100000000021386, -0.26585228724540844 
3.1200000000021597, -0.2676706412104702 
3.130000000002181, -0.27002765268602574 
3.140000000002202, -0.2728833810905679 
3.150000000002223, -0.2760507263903431 
3.160000000002244, -0.2792051100471944 
3.1700000000022652, -0.281997870336575 
3.1800000000022863, -0.28420598411455433 
3.1900000000023074, -0.2857928935507787 
3.2000000000023285, -0.28685344034481963 
3.2100000000023496, -0.2875238916748401 
3.2200000000023707, -0.2879247748371414 
3.230000000002392, -0.28814344292635796 
3.240000000002413, -0.2882371805999318 
3.250000000002434, -0.28824163890150417 
3.260000000002455, -0.2881784114737732 
3.2700000000024763, -0.2880606110150932 
3.2800000000024974, -0.287897000597677 
3.2900000000025185, -0.28769542432490225 
3.3000000000025396, -0.28746588840138426 
3.3100000000025607, -0.287222985650197 
3.3200000000025818, -0.28698673285931886 
3.330000000002603, -0.28678081739489375 
3.340000000002624, -0.2866280874500985 
3.350000000002645, -0.28654447488943163 
3.360000000002666, -0.2865334912763151 
3.3700000000026873, -0.2865835255871041 
3.3800000000027084, -0.2866695030917999 
3.3900000000027295, -0.2867589334801363 
3.4000000000027506, -0.28682010717241524 
3.4100000000027717, -0.28682872454172537 
3.420000000002793, -0.286770250108604 
3.430000000002814, -0.28663801215630813 
3.440000000002835, -0.28642900668021803 
3.450000000002856, -0.28613934129204177 
3.460000000002877, -0.28576015035457336 
3.4700000000028983, -0.28527387336309434 
3.4800000000029194, -0.28465057561628343 
3.4900000000029405, -0.2838446787554625 
3.5000000000029616, -0.282794344480674 
3.5100000000029827, -0.2814288310100466 
3.520000000003004, -0.2796910861279981 
3.530000000003025, -0.27757662170762043 
3.540000000003046, -0.2751698222595654 
3.550000000003067, -0.2726417468939421 
3.5600000000030882, -0.27019466777519296 
3.5700000000031094, -0.2679895220084602 
3.5800000000031305, -0.2661071085190988 
3.5900000000031516, -0.2645550522963859 
3.6000000000031727, -0.2632971751986037 
3.6100000000031938, -0.262281323278761 
3.620000000003215, -0.26145664231151705 
3.630000000003236, -0.260781445613623 
3.640000000003257, -0.2602255129816841 
3.650000000003278, -0.25976996876989183 
3.6600000000032993, -0.25940664775450484 
3.6700000000033204, -0.2591379577539198 
3.6800000000033415, -0.2589777189849011 
3.6900000000033626, -0.2589530887265007 
3.7000000000033837, -0.25910711889178845 
3.710000000003405, -0.25950013872940736 
3.720000000003426, -0.26020501149947795 
3.730000000003447, -0.26128561096556513 
3.740000000003468, -0.2627428405962746 
3.750000000003489, -0.2644251551460249 
3.7600000000035103, -0.265961659233067 
3.7700000000035314, -0.2668572494477708 
3.7800000000035525, -0.266797949937973 
3.7900000000035736, -0.2658922942901095 
3.8000000000035947, -0.2645524447280799 
3.810000000003616, -0.2631824885525299 
3.820000000003637, -0.26200779723189643 
3.830000000003658, -0.26109171870169245 
3.840000000003679, -0.26041316991588925 
3.8500000000037002, -0.2599249890000648 
3.8600000000037213, -0.25958179943076953 
3.8700000000037424, -0.2593491578160184 
3.8800000000037635, -0.25920468377275907 
3.8900000000037847, -0.25913682305968416 
3.9000000000038058, -0.25914357042191166 
3.910000000003827, -0.2592318956444635 
3.920000000003848, -0.2594179192003113 
3.930000000003869, -0.2597274659320409 
3.94000000000389, -0.26019614768510685 
3.9500000000039113, -0.2608674152340585 
3.9600000000039324, -0.26178611371893934 
3.9700000000039535, -0.2629846210586465 
3.9800000000039746, -0.2644606595239013 
3.9900000000039957, -0.26615330353496736 
4.000000000004016, -0.26793503002829483 
4.010000000003993, -0.26963876598156505 
4.02000000000397, -0.2711143051552497 
4.030000000003946, -0.27227703062198794 
4.040000000003923, -0.2731169162526813 
4.0500000000039, -0.2736733642879904 
4.0600000000038765, -0.2740030425998154 
4.070000000003853, -0.2741586248947166 
4.08000000000383, -0.2741802276082678 
4.090000000003807, -0.2740944793673418 
4.100000000003783, -0.2739166866357326 
4.11000000000376, -0.27365391917253923 
4.120000000003737, -0.2733085533130001 
4.130000000003713, -0.27288251966048443 
4.14000000000369, -0.27238227097157963 
4.150000000003667, -0.2718234157407606 
4.1600000000036434, -0.2712327133733983 
4.17000000000362, -0.2706452027769804 
4.180000000003597, -0.27009661983484345 
4.1900000000035735, -0.26961438875616456 
4.20000000000355, -0.26921134826555077 
4.210000000003527, -0.26888437876014304 
4.220000000003504, -0.26861750071845236 
4.23000000000348, -0.26838758825848463 
4.240000000003457, -0.26817046100127284 
4.250000000003434, -0.2679453673556092 
4.26000000000341, -0.26769678050742785 
4.270000000003387, -0.26741366002824485 
4.280000000003364, -0.2670871061527081 
4.2900000000033405, -0.2667072769758276 
4.300000000003317, -0.26625985612851777 
4.310000000003294, -0.26572173309718466 
4.320000000003271, -0.26505521644153085 
4.330000000003247, -0.2642004458362388 
4.340000000003224, -0.26306774183514636 
4.350000000003201, -0.2615372035790008 
4.360000000003177, -0.25948154052527805 
4.370000000003154, -0.25682844069113653 
4.380000000003131, -0.25364627778689464 
4.390000000003107, -0.2501794757409055 
4.400000000003084, -0.24676795262236131 
4.410000000003061, -0.24370123535570917 
4.4200000000030375, -0.2411278208802426 
4.430000000003014, -0.23906274257101606 
4.440000000002991, -0.23744432112085728 
4.450000000002968, -0.2361863155779822 
4.460000000002944, -0.23520751456354558 
4.470000000002921, -0.23444320670059354 
4.480000000002898, -0.2338471671804918 
4.490000000002874, -0.23339015956358553 
4.500000000002851, -0.23305802871122583 
4.510000000002828, -0.23285073412870635 
4.520000000002804, -0.2327828743540726 
4.530000000002781, -0.23288588149439748 
4.540000000002758, -0.23321164359725205 
4.5500000000027345, -0.23383619984103116 
4.560000000002711, -0.23485925057645698 
4.570000000002688, -0.23638913713063894 
4.580000000002665, -0.23849479453741296 
4.590000000002641, -0.24110937981527378 
4.600000000002618, -0.24392013780453553 
4.610000000002595, -0.24638204483792464 
4.620000000002571, -0.24798277368038302 
4.630000000002548, -0.24857855016847466 
4.640000000002525, -0.24842509763799026 
4.6500000000025015, -0.24790950436824594 
4.660000000002478, -0.24731950930590546 
4.670000000002455, -0.2467952195999384 
4.6800000000024315, -0.24637773617883907 
4.690000000002408, -0.24606312147996431 
4.700000000002385, -0.24583420260042682 
4.710000000002362, -0.2456744622291574 
4.720000000002338, -0.24557274109068566 
4.730000000002315, -0.24552435176816076 
4.740000000002292, -0.2455312718223976 
4.750000000002268, -0.2456024591906087 
4.760000000002245, -0.24575452151587712 
4.770000000002222, -0.2460124625635105 
4.7800000000021985, -0.24640972261406863 
4.790000000002175, -0.2469860948930389 
4.800000000002152, -0.24778141095259412 
4.810000000002129, -0.2488227479609113 
4.820000000002105, -0.2501050295096673 
4.830000000002082, -0.25157145535400427 
4.840000000002059, -0.2531090722015993 
4.850000000002035, -0.25457389196036095 
4.860000000002012, -0.2558385820161063 
