t, s[1].omega / s[0].omega 
0, -0.649997710050344 
0.009999999999999995, -0.6497630736348107 
0.019999999999999934, -0.6495131782275523 
0.029999999999999874, -0.6492379845081511 
0.04000000000000012, -0.6489266348247875 
0.050000000000000405, -0.6485725008567189 
0.06000000000000069, -0.648175944944273 
0.07000000000000098, -0.6477447940634391 
0.08000000000000126, -0.6472940873612193 
0.09000000000000155, -0.6468467624969946 
0.10000000000000184, -0.6464362142817082 
0.11000000000000212, -0.6461109070081112 
0.12000000000000241, -0.6459406901579564 
0.130000000000002, -0.6460239742273604 
0.1400000000000009, -0.6464942062175587 
0.1499999999999998, -0.6475228923702561 
0.1599999999999987, -0.6493144401652765 
0.1699999999999976, -0.6520851297948422 
0.1799999999999965, -0.6560156636517656 
0.1899999999999954, -0.6611693365129148 
0.1999999999999943, -0.66738790751137 
0.2099999999999932, -0.6742224890033001 
0.2199999999999921, -0.680993101070055 
0.229999999999991, -0.6870107655659888 
0.2399999999999899, -0.6918346611167884 
0.2499999999999888, -0.6953725819968013 
0.2599999999999877, -0.6977881005281776 
0.2699999999999866, -0.6993412163158451 
0.2799999999999855, -0.700276498926053 
0.2899999999999844, -0.7007795762422823 
0.2999999999999833, -0.7009743008406546 
0.3099999999999822, -0.7009334843075414 
0.3199999999999811, -0.7006894396302477 
0.32999999999998, -0.700239583925491 
0.3399999999999789, -0.6995460279532908 
0.3499999999999778, -0.6985293062506877 
0.35999999999997667, -0.6970578878976355 
0.36999999999997557, -0.6949395725060908 
0.37999999999997447, -0.6919307676644456 
0.38999999999997337, -0.687791587398688 
0.39999999999997227, -0.6824072858257255 
0.40999999999997117, -0.675936966337865 
0.41999999999997006, -0.6688668962412484 
0.42999999999996896, -0.6618721821863633 
0.43999999999996786, -0.6555656262833447 
0.44999999999996676, -0.6503180948477226 
0.45999999999996566, -0.6462347483975437 
0.46999999999996456, -0.6432325252506249 
0.47999999999996346, -0.6411348623431732 
0.48999999999996235, -0.6397409573979598 
0.49999999999996125, -0.6388642903755648 
0.5099999999999602, -0.6383490619381521 
0.519999999999959, -0.6380737690675595 
0.529999999999958, -0.6379482410389714 
0.5399999999999568, -0.6379079390470281 
0.5499999999999557, -0.6379077462394679 
0.5599999999999546, -0.6379165492540582 
0.5699999999999535, -0.6379133359149467 
0.5799999999999524, -0.6378850735792406 
0.5899999999999513, -0.6378260698196666 
0.5999999999999502, -0.6377377762128807 
0.6099999999999491, -0.6376274475888613 
0.619999999999948, -0.6375045030961101 
0.6299999999999469, -0.6373751764456144 
0.6399999999999458, -0.6372379909211089 
0.6499999999999447, -0.6370828876703195 
0.6599999999999436, -0.636894814636776 
0.6699999999999425, -0.6366597181307764 
0.6799999999999414, -0.6363695843059367 
0.6899999999999403, -0.636024502763021 
0.6999999999999392, -0.6356322342284922 
0.7099999999999381, -0.6352072643055954 
0.719999999999937, -0.634771203896999 
0.7299999999999359, -0.6343555580625936 
0.7399999999999348, -0.6340072075486763 
0.7499999999999337, -0.6337965640548594 
0.7599999999999326, -0.633827928111672 
0.7699999999999315, -0.6342506297130275 
0.7799999999999304, -0.6352675347763241 
0.7899999999999293, -0.6371338122732961 
0.7999999999999282, -0.6401331569611078 
0.8099999999999271, -0.6445131889859386 
0.819999999999926, -0.6503666746821972 
0.8299999999999249, -0.6574816292885965 
0.8399999999999238, -0.6652584263145267 
0.8499999999999227, -0.6728312999045769 
0.8599999999999216, -0.679398421600853 
0.8699999999999205, -0.6845286081830373 
0.8799999999999194, -0.6882124190981769 
0.8899999999999183, -0.6906955157649252 
0.8999999999999172, -0.692287349771765 
0.9099999999999161, -0.6932539695919508 
0.919999999999915, -0.6937879948279198 
0.9299999999999139, -0.6940149572395096 
0.9399999999999128, -0.6940081983529124 
0.9499999999999117, -0.6938009351561856 
0.9599999999999106, -0.6933925368669768 
0.9699999999999095, -0.6927489650021834 
0.9799999999999084, -0.6917983741293507 
0.9899999999999073, -0.6904246385140456 
0.9999999999999062, -0.6884661252154549 
1.0099999999999052, -0.6857347685381194 
1.019999999999904, -0.6820745708333398 
1.029999999999903, -0.6774601485998528 
1.039999999999902, -0.6720848244079052 
1.0499999999999008, -0.6663531156231521 
1.0599999999998997, -0.6607526631071063 
1.0699999999998986, -0.6556921319962512 
1.0799999999998975, -0.6514104216148954 
1.0899999999998964, -0.6479792045208286 
1.0999999999998953, -0.6453543433770339 
1.1099999999998942, -0.6434308650182137 
1.119999999999893, -0.6420823193169479 
1.129999999999892, -0.641183749757727 
1.1399999999998909, -0.6406232842829778 
1.1499999999998898, -0.6403069277555753 
1.1599999999998887, -0.6401594364896062 
1.1699999999998876, -0.6401229534238674 
1.1799999999998865, -0.6401545137974621 
1.1899999999998854, -0.6402232865789144 
1.1999999999998843, -0.6403082213904517 
1.2099999999998832, -0.6403964543187322 
1.219999999999882, -0.6404823014844652 
1.229999999999881, -0.6405660266504272 
1.2399999999998799, -0.6406512478998437 
1.2499999999998788, -0.6407404814914348 
1.2599999999998777, -0.6408299785320392 
1.2699999999998766, -0.6409065711087215 
1.2799999999998755, -0.6409490392793502 
1.2899999999998744, -0.6409339972296618 
1.2999999999998733, -0.6408431771463413 
1.3099999999998722, -0.6406681244258529 
1.319999999999871, -0.64041062574224 
1.32999999999987, -0.6400803353192116 
1.3399999999998689, -0.6396923720803493 
1.3499999999998678, -0.6392670002886485 
1.3599999999998666, -0.6388323876149723 
1.3699999999998655, -0.6384308513281286 
1.3799999999998644, -0.6381288888228549 
1.3899999999998633, -0.6380310516858242 
1.3999999999998622, -0.638296601732758 
1.4099999999998611, -0.6391548995221845 
1.41999999999986, -0.6409093876447269 
1.429999999999859, -0.64391036722386 
1.4399999999998578, -0.648468108521195 
1.4499999999998567, -0.6546888974041163 
1.4599999999998556, -0.662280491912157 
1.4699999999998545, -0.6704830226554357 
1.4799999999998534, -0.6782908625623633 
1.4899999999998523, -0.6848824236803719 
1.4999999999998512, -0.689912671831028 
1.5099999999998501, -0.6934713739395332 
1.519999999999849, -0.695858094852863 
1.529999999999848, -0.6973936156366516 
1.5399999999998468, -0.6983360654682143 
1.5499999999998457, -0.6988669162857708 
1.5599999999998446, -0.6991032281987264 
1.5699999999998435, -0.6991133122150327 
1.5799999999998424, -0.6989281025012806 
1.5899999999998413, -0.6985468447280362 
1.5999999999998402, -0.6979376257260397 
1.6099999999998391, -0.6970341506758843 
1.619999999999838, -0.695732076141656 
1.629999999999837, -0.6938924605196678 
1.6399999999998358, -0.6913654599116438 
1.6499999999998347, -0.6880463779261972 
1.6599999999998336, -0.6839544576932758 
1.6699999999998325, -0.6792857353547669 
1.6799999999998314, -0.6743828559698841 
1.6899999999998303, -0.6696262122600959 
1.6999999999998292, -0.6653205716194535 
1.709999999999828, -0.661641839148283 
1.719999999999827, -0.6586461716229793 
1.729999999999826, -0.6563073702102983 
1.7399999999998248, -0.6545539944078742 
1.7499999999998237, -0.6532955804304679 
1.7599999999998226, -0.6524384216686218 
1.7699999999998215, -0.651894397557615 
1.7799999999998204, -0.6515856817810924 
1.7899999999998193, -0.6514468946765657 
1.7999999999998182, -0.651425492705574 
1.809999999999817, -0.6514809556613511 
1.819999999999816, -0.6515833500727257 
1.8299999999998149, -0.6517118343246671 
1.8399999999998138, -0.6518534506440663 
1.8499999999998127, -0.6520020665058224 
1.8599999999998116, -0.6521567452716776 
1.8699999999998105, -0.6523186342723992 
1.8799999999998094, -0.6524862372823748 
1.8899999999998083, -0.6526506024952587 
1.8999999999998072, -0.6527932635309118 
1.909999999999806, -0.652889088030557 
1.919999999999805, -0.6529132546428082 
1.9299999999998039, -0.6528485621549897 
1.9399999999998028, -0.6526891432507499 
1.9499999999998017, -0.652439652393741 
1.9599999999998006, -0.6521121137062867 
1.9699999999997995, -0.6517234053926246 
1.9799999999997984, -0.6512953224440924 
1.9899999999997973, -0.6508580102833681 
1.9999999999997962, -0.650457096132109 
2.0099999999998173, -0.6501647831230648 
2.0199999999998384, -0.6500948170228446 
2.0299999999998595, -0.6504197649637862 
2.0399999999998806, -0.6513854420846745 
2.0499999999999017, -0.6533104832244908 
2.059999999999923, -0.6565492336941002 
2.069999999999944, -0.6613899604300917 
2.079999999999965, -0.6678794840273927 
2.089999999999986, -0.675639889651638 
2.100000000000007, -0.6838454640782039 
2.1100000000000283, -0.6914947770733664 
2.1200000000000494, -0.6978371917424797 
2.1300000000000705, -0.7026094352654165 
2.1400000000000916, -0.705949285507291 
2.1500000000001127, -0.7081682194600685 
2.160000000000134, -0.7095802108364174 
2.170000000000155, -0.7104316792632219 
2.180000000000176, -0.7108932835317169 
2.190000000000197, -0.7110733343593976 
2.2000000000002182, -0.7110329175901214 
2.2100000000002393, -0.7107962501265168 
2.2200000000002604, -0.7103551790962888 
2.2300000000002815, -0.7096683390524364 
2.2400000000003026, -0.7086563997111058 
2.2500000000003237, -0.7071971492716645 
2.260000000000345, -0.7051293653201206 
2.270000000000366, -0.702281199457532 
2.280000000000387, -0.6985372856506342 
2.290000000000408, -0.6939316619081111 
2.3000000000004293, -0.6887063618112723 
2.3100000000004504, -0.683268703896572 
2.3200000000004715, -0.6780581373665407 
2.3300000000004926, -0.6734145069361438 
2.3400000000005137, -0.6695213811924703 
2.3500000000005348, -0.6664220338200633 
2.360000000000556, -0.6640660948085804 
2.370000000000577, -0.6623541852010795 
2.380000000000598, -0.6611692063316867 
2.390000000000619, -0.6603951638784482 
2.4000000000006403, -0.6599274238977316 
2.4100000000006614, -0.6596775181295899 
2.4200000000006825, -0.6595744013383076 
2.4300000000007036, -0.6595634060127418 
2.4400000000007247, -0.6596039308796326 
2.450000000000746, -0.6596668129784324 
2.460000000000767, -0.6597321473869091 
2.470000000000788, -0.6597879210869171 
2.480000000000809, -0.6598291877235293 
2.49000000000083, -0.6598568201770203 
2.5000000000008513, -0.6598747069596134 
2.5100000000008724, -0.6598852089181458 
2.5200000000008935, -0.6598844891430214 
2.5300000000009146, -0.6598604836053096 
2.5400000000009357, -0.6597953186992622 
2.550000000000957, -0.6596711832886688 
2.560000000000978, -0.6594763077897705 
2.570000000000999, -0.6592080173100747 
2.58000000000102, -0.6588724277475777 
2.5900000000010412, -0.6584826920340007 
2.6000000000010624, -0.6580581483489866 
2.6100000000010835, -0.6576258554656956 
2.6200000000011046, -0.6572250683505829 
2.6300000000011257, -0.6569146828980268 
2.6400000000011468, -0.6567832826900503 
2.650000000001168, -0.6569606499226335 
2.660000000001189, -0.6576279854417498 
2.67000000000121, -0.6590211757887907 
2.680000000001231, -0.661416956926565 
2.6900000000012523, -0.6650867082931898 
2.7000000000012734, -0.670202506318301 
2.7100000000012945, -0.6766999072227894 
2.7200000000013156, -0.6841577655579713 
2.7300000000013367, -0.69181831769838 
2.740000000001358, -0.6988274836068707 
2.750000000001379, -0.7045720700940443 
2.7600000000014, -0.708856411476159 
2.770000000001421, -0.7118238386806575 
2.780000000001442, -0.7137644202099536 
2.7900000000014633, -0.7149671548051387 
2.8000000000014844, -0.7156575386818178 
2.8100000000015055, -0.7159897885783778 
2.8200000000015266, -0.7160589009909819 
2.8300000000015477, -0.7159141993563973 
2.840000000001569, -0.7155679876636827 
2.85000000000159, -0.7149979652152194 
2.860000000001611, -0.7141435784512088 
2.870000000001632, -0.7128974960780032 
2.8800000000016532, -0.7110964018815052 
2.8900000000016743, -0.7085227461370334 
2.9000000000016954, -0.7049402427277138 
2.9100000000017165, -0.7001872184113116 
2.9200000000017377, -0.6943141284412209 
2.9300000000017588, -0.6876747643238958 
2.94000000000178, -0.680860566401976 
2.950000000001801, -0.6744911847059324 
2.960000000001822, -0.6690124335430148 
2.970000000001843, -0.6646214130994145 
2.9800000000018643, -0.6613080160197102 
2.9900000000018854, -0.6589389574719335 
3.0000000000019065, -0.6573312535180744 
3.0100000000019276, -0.6562993081521911 
3.0200000000019487, -0.655679187471947 
3.03000000000197, -0.6553378492167428 
3.040000000001991, -0.6551736426678282 
3.050000000002012, -0.6551123081803116 
3.060000000002033, -0.6551012216356118 
3.070000000002054, -0.6551036662125826 
3.0800000000020753, -0.6550942502248973 
3.0900000000020964, -0.6550560679997937 
3.1000000000021175, -0.6549796417011519 
3.1100000000021386, -0.6548629271568882 
3.1200000000021597, -0.654710884419714 
3.130000000002181, -0.6545330280145368 
3.140000000002202, -0.6543386831154863 
3.150000000002223, -0.654131825846226 
3.160000000002244, -0.6539084905127388 
3.1700000000022652, -0.653658464329517 
3.1800000000022863, -0.6533702291188747 
3.1900000000023074, -0.6530361942258102 
3.2000000000023285, -0.6526557602868596 
3.2100000000023496, -0.6522359200665032 
3.2200000000023707, -0.6517908772831744 
3.230000000002392, -0.6513424520111307 
3.240000000002413, -0.6509223414999408 
3.250000000002434, -0.6505765046211596 
3.260000000002455, -0.6503713669809821 
3.2700000000024763, -0.6504010461097257 
3.2800000000024974, -0.650794105244028 
3.2900000000025185, -0.6517172254559227 
3.3000000000025396, -0.6533713711141391 
3.3100000000025607, -0.6559732912561219 
3.3200000000025818, -0.6597123177644262 
3.330000000002603, -0.6646738071250852 
3.340000000002624, -0.6707370989943007 
3.350000000002645, -0.6774972318529274 
3.360000000002666, -0.6843009172885599 
3.3700000000026873, -0.6904467417322563 
3.3800000000027084, -0.6954475870460964 
3.3900000000027295, -0.6991611917537615 
3.4000000000027506, -0.7017215088854114 
3.4100000000027717, -0.7033814618997151 
3.420000000002793, -0.704391159760709 
3.430000000002814, -0.704945365633826 
3.440000000002835, -0.7051763540207205 
3.450000000002856, -0.705163619726296 
3.460000000002877, -0.7049448002594275 
3.4700000000028983, -0.7045220608132392 
3.4800000000029194, -0.7038624907441826 
3.4900000000029405, -0.7028924558582391 
3.5000000000029616, -0.7014870840675347 
3.5100000000029827, -0.6994598346043421 
3.520000000003004, -0.6965662443483903 
3.530000000003025, -0.6925491378421331 
3.540000000003046, -0.6872520529060362 
3.550000000003067, -0.6807773784994154 
3.5600000000030882, -0.6735734862656503 
3.5700000000031094, -0.6663280825473012 
3.5800000000031305, -0.6597111190447935 
3.5900000000031516, -0.6541588965601741 
3.6000000000031727, -0.6498204488445929 
3.6100000000031938, -0.646628549646671 
3.620000000003215, -0.6444027268481621 
3.630000000003236, -0.6429291836539706 
3.640000000003257, -0.6420067256366607 
3.650000000003278, -0.641466886309386 
3.6600000000032993, -0.6411786791007484 
3.6700000000033204, -0.6410454921469227 
3.6800000000033415, -0.6409987135553232 
3.6900000000033626, -0.6409907393628178 
3.7000000000033837, -0.6409888579737517 
3.710000000003405, -0.6409708095432078 
3.720000000003426, -0.6409223311495522 
3.730000000003447, -0.6408364611226578 
3.740000000003468, -0.6407136327717426 
3.750000000003489, -0.6405609124000169 
3.7600000000035103, -0.6403889334755614 
3.7700000000035314, -0.6402066882925583 
3.7800000000035525, -0.6400164729147809 
3.7900000000035736, -0.6398119878779117 
3.8000000000035947, -0.6395809073852606 
3.810000000003616, -0.6393103762902449 
3.820000000003637, -0.6389922595311248 
3.830000000003658, -0.638625847759408 
3.840000000003679, -0.638218054016193 
3.8500000000037002, -0.637782801512408 
3.8600000000037213, -0.6373414210350338 
3.8700000000037424, -0.6369251278010836 
3.8800000000037635, -0.6365799179850727 
3.8900000000037847, -0.6363737588392534 
3.9000000000038058, -0.6364054982906524 
3.910000000003827, -0.6368141159485028 
3.920000000003848, -0.6377853782453596 
3.930000000003869, -0.6395501649995733 
3.94000000000389, -0.6423643755884262 
3.9500000000039113, -0.6464557588563922 
3.9600000000039324, -0.6519253348986214 
3.9700000000039535, -0.6586166858255027 
3.9800000000039746, -0.6660262980021172 
3.9900000000039957, -0.6733755651440565 
4.000000000004016, -0.6798828982393192 
4.010000000003993, -0.6850666619419539 
4.02000000000397, -0.6888464976775965 
4.030000000003946, -0.6914202214267368 
4.040000000003923, -0.6930795029540494 
4.0500000000039, -0.6940902866197146 
4.0600000000038765, -0.6946510522757994 
4.070000000003853, -0.6948934659432494 
4.08000000000383, -0.6948956539621278 
4.090000000003807, -0.6946943057784069 
4.100000000003783, -0.6942913800989496 
4.11000000000376, -0.6936548266788979 
4.120000000003737, -0.6927139406143155 
4.130000000003713, -0.691351502436736 
4.14000000000369, -0.6893991017687554 
4.150000000003667, -0.6866503965513948 
4.1600000000036434, -0.6829147058485215 
4.17000000000362, -0.6781210849866952 
4.180000000003597, -0.6724306083140615 
4.1900000000035735, -0.6662590568524429 
4.20000000000355, -0.6601536393192672 
4.210000000003527, -0.6546009933505383 
4.220000000003504, -0.6499001364015121 
4.23000000000348, -0.6461494361917421 
4.240000000003457, -0.6433031619128899 
4.250000000003434, -0.6412390861669903 
4.26000000000341, -0.6398086351799706 
4.270000000003387, -0.6388662451352309 
4.280000000003364, -0.6382836877420275 
4.2900000000033405, -0.637955350278697 
4.300000000003317, -0.6377984664743206 
4.310000000003294, -0.6377506930928731 
4.320000000003271, -0.6377665490620977 
4.330000000003247, -0.6378137802643131 
4.340000000003224, -0.6378703971853773 
4.350000000003201, -0.6379227716823765 
4.360000000003177, -0.6379646500890035 
4.370000000003154, -0.6379962632570872 
4.380000000003131, -0.6380222670768138 
4.390000000003107, -0.6380477019388807 
4.400000000003084, -0.6380727515502627 
4.410000000003061, -0.6380888287879063 
4.4200000000030375, -0.6380787089634061 
4.430000000003014, -0.6380213051478568 
4.440000000002991, -0.6378985955064658 
4.450000000002968, -0.637700860638481 
4.460000000002944, -0.6374280832206722 
4.470000000002921, -0.6370883617629999 
4.480000000002898, -0.6366958301769333 
4.490000000002874, -0.6362702552655086 
4.500000000002851, -0.6358394470589277 
4.510000000002828, -0.6354449395219264 
4.520000000002804, -0.635151178573398 
4.530000000002781, -0.635058202670687 
4.540000000002758, -0.6353168479884139 
4.5500000000027345, -0.6361430198880766 
4.560000000002711, -0.6378224798287413 
4.570000000002688, -0.6406892573708909 
4.580000000002665, -0.6450522141145157 
4.590000000002641, -0.6510498770167752 
4.600000000002618, -0.6584631486760368 
4.610000000002595, -0.666616012094203 
4.620000000002571, -0.67453594637336 
4.630000000002548, -0.68135400034519 
4.640000000002525, -0.6866391541707999 
4.6500000000025015, -0.6904173855887179 
4.660000000002478, -0.6929663503160415 
4.670000000002455, -0.6946120270113025 
4.6800000000024315, -0.6956264625055215 
4.690000000002408, -0.6962042769432821 
4.700000000002385, -0.6964723759618924 
4.710000000002362, -0.6965059762071626 
4.720000000002338, -0.6963410228241531 
4.730000000002315, -0.6959808394847891 
4.740000000002292, -0.6953973333825216 
4.750000000002268, -0.694527996086893 
4.760000000002245, -0.693271599355475 
4.770000000002222, -0.6914894589916648 
4.7800000000021985, -0.6890251082969066 
4.790000000002175, -0.6857565143787508 
4.800000000002152, -0.6816768216041061 
4.810000000002129, -0.6769591695143355 
4.820000000002105, -0.6719416749685447 
4.830000000002082, -0.667022394458224 
4.840000000002059, -0.6625349155220659 
4.850000000002035, -0.6586808401785194 
4.860000000002012, -0.655531791359346 
4.870000000001989, -0.6530672229077437 
4.880000000001965, -0.6512150561631984 
4.890000000001942, -0.6498812471250887 
4.900000000001919, -0.6489676958616555 
4.9100000000018955, -0.6483821232027724 
4.920000000001872, -0.6480431669557344 
