t, s[1].omega / s[0].omega 
0, -1.1499974714536088 
0.009999999999999995, -1.1496841710051904 
0.019999999999999934, -1.1492551210657416 
0.029999999999999874, -1.1487221004594717 
0.04000000000000012, -1.148105031088387 
0.050000000000000405, -1.1474325251126025 
0.06000000000000069, -1.1467419995084573 
0.07000000000000098, -1.1460778956172082 
0.08000000000000126, -1.145486335162429 
0.09000000000000155, -1.145005922799721 
0.10000000000000184, -1.144657244002023 
0.11000000000000212, -1.1444360375997245 
0.12000000000000241, -1.1443143531539053 
0.130000000000002, -1.1442494160250436 
0.1400000000000009, -1.1441948806352626 
0.1499999999999998, -1.144108546854604 
0.1599999999999987, -1.1439545191151932 
0.1699999999999976, -1.14370179504982 
0.1799999999999965, -1.14332251322134 
0.1899999999999954, -1.1427921626998208 
0.1999999999999943, -1.1420924681343199 
0.2099999999999932, -1.1412162480954875 
0.2199999999999921, -1.140172751730651 
0.229999999999991, -1.1389920107901959 
0.2399999999999899, -1.1377270969910025 
0.2499999999999888, -1.1364528602976638 
0.2599999999999877, -1.1352586158590239 
0.2699999999999866, -1.1342322159779323 
0.2799999999999855, -1.1334369537019913 
0.2899999999999844, -1.1328906621262314 
0.2999999999999833, -1.132560586786597 
0.3099999999999822, -1.1323791286972476 
0.3199999999999811, -1.1322697601174654 
0.32999999999998, -1.1321666314710073 
0.3399999999999789, -1.1320203023707776 
0.3499999999999778, -1.1317929289797153 
0.35999999999997667, -1.1314496131292366 
0.36999999999997557, -1.1309506344359217 
0.37999999999997447, -1.1302471688860622 
0.38999999999997337, -1.1292827929018663 
0.39999999999997227, -1.1280035495231466 
0.40999999999997117, -1.1263783285731745 
0.41999999999997006, -1.1244268142760867 
0.42999999999996896, -1.122244688025795 
0.43999999999996786, -1.1200091545988244 
0.44999999999996676, -1.1179487001499226 
0.45999999999996566, -1.1162758037789886 
0.46999999999996456, -1.1151095640574549 
0.47999999999996346, -1.1144358747932832 
0.48999999999996235, -1.1141336588154547 
0.49999999999996125, -1.1140438796472876 
0.5099999999999602, -1.1140301282265388 
0.519999999999959, -1.114002180938977 
0.529999999999958, -1.1139093546035386 
0.5399999999999568, -1.1137227548815685 
0.5499999999999557, -1.1134186440271878 
0.5599999999999546, -1.1129662097450004 
0.5699999999999535, -1.112319201367423 
0.5799999999999524, -1.1114115768069508 
0.5899999999999513, -1.1101606611050472 
0.5999999999999502, -1.1084856460839536 
0.6099999999999491, -1.1063502098780658 
0.619999999999948, -1.103826344640456 
0.6299999999999469, -1.1011456727524254 
0.6399999999999458, -1.0986751230440248 
0.6499999999999447, -1.0967817839631797 
0.6599999999999436, -1.0956560119487535 
0.6699999999999425, -1.0952338471989882 
0.6799999999999414, -1.0952775316350736 
0.6899999999999403, -1.0955242935325602 
0.6999999999999392, -1.0957849465363187 
0.7099999999999381, -1.0959609059916966 
0.719999999999937, -1.0960164849196827 
0.7299999999999359, -1.0959455995745049 
0.7399999999999348, -1.0957486495333277 
0.7499999999999337, -1.0954196689527649 
0.7599999999999326, -1.0949397253935635 
0.7699999999999315, -1.0942740626047733 
0.7799999999999304, -1.0933739047162603 
0.7899999999999293, -1.092188102704013 
0.7999999999999282, -1.0906931627038947 
0.8099999999999271, -1.088945893437655 
0.819999999999926, -1.087139297524717 
0.8299999999999249, -1.0856026441925226 
0.8399999999999238, -1.0846843206446803 
0.8499999999999227, -1.0845569677965035 
0.8599999999999216, -1.0851086476804799 
0.8699999999999205, -1.0860287001750475 
0.8799999999999194, -1.086995359197927 
0.8899999999999183, -1.087801349812869 
0.8999999999999172, -1.0883670165064845 
0.9099999999999161, -1.0886938099861188 
0.919999999999915, -1.088815461927582 
0.9299999999999139, -1.0887681273483198 
0.9399999999999128, -1.0885773641737493 
0.9499999999999117, -1.0882545547596938 
0.9599999999999106, -1.0877979243997538 
0.9699999999999095, -1.0871972131740248 
0.9799999999999084, -1.0864445922918315 
0.9899999999999073, -1.085556720071741 
0.9999999999999062, -1.084610326290115 
1.0099999999999052, -1.0837792339828032 
1.019999999999904, -1.0833336514631737 
1.029999999999903, -1.0835530273151015 
1.039999999999902, -1.084565061282313 
1.0499999999999008, -1.0862310775024184 
1.0599999999998997, -1.0881993057715271 
1.0699999999998986, -1.0900882418525817 
1.0799999999998975, -1.0916429590190575 
1.0899999999998964, -1.0927725857810076 
1.0999999999998953, -1.0935009539897502 
1.1099999999998942, -1.0939006359396901 
1.119999999999893, -1.0940484325936448 
1.129999999999892, -1.0940057224531023 
1.1399999999998909, -1.093814325443655 
1.1499999999998898, -1.0934996431395259 
1.1599999999998887, -1.0930774312072251 
1.1699999999998876, -1.0925643751934218 
1.1799999999998865, -1.0919945282718282 
1.1899999999998854, -1.0914419461579452 
1.1999999999998843, -1.091041505730439 
1.2099999999998832, -1.0909859103384494 
1.219999999999882, -1.0914729762193365 
1.229999999999881, -1.0926082066411102 
1.2399999999998799, -1.0943226166453328 
1.2499999999998788, -1.096377474247784 
1.2599999999998777, -1.0984608758444614 
1.2699999999998766, -1.1003065477698335 
1.2799999999998755, -1.1017628991319244 
1.2899999999998744, -1.1027941485101662 
1.2999999999998733, -1.1034408624643413 
1.3099999999998722, -1.1037751448440731 
1.319999999999871, -1.1038698743928355 
1.32999999999987, -1.103784648228947 
1.3399999999998689, -1.1035634886585046 
1.3499999999998678, -1.103239187384367 
1.3599999999998666, -1.1028416077979395 
1.3699999999998655, -1.1024090384074452 
1.3799999999998644, -1.1020009367381725 
1.3899999999998633, -1.1017063421624003 
1.3999999999998622, -1.1016373939254063 
1.4099999999998611, -1.1018999237593448 
1.41999999999986, -1.102549347880782 
1.429999999999859, -1.1035583634305624 
1.4399999999998578, -1.104819478296735 
1.4499999999998567, -1.1061797805788993 
1.4599999999998556, -1.1074855473979324 
1.4699999999998545, -1.1086162979159422 
1.4799999999998534, -1.1095005770189532 
1.4899999999998523, -1.1101151862762193 
1.4999999999998512, -1.1104735265464203 
1.5099999999998501, -1.110609837062014 
1.519999999999849, -1.110565303323259 
1.529999999999848, -1.110379496213721 
1.5399999999998468, -1.1100877983317785 
1.5499999999998457, -1.1097237406529026 
1.5599999999998446, -1.1093244251575656 
1.5699999999998435, -1.1089363433812025 
1.5799999999998424, -1.1086174106378008 
1.5899999999998413, -1.1084305710983708 
1.5999999999998402, -1.1084280605746923 
1.6099999999998391, -1.1086331103448026 
1.619999999999838, -1.1090302835602435 
1.629999999999837, -1.1095702931040694 
1.6399999999998358, -1.1101850072404726 
1.6499999999998347, -1.1108036857219106 
1.6599999999998336, -1.1113644512330867 
1.6699999999998325, -1.1118200602964166 
1.6799999999998314, -1.1121397207176196 
1.6899999999998303, -1.1123086963661126 
1.6999999999998292, -1.1123264613200035 
1.709999999999828, -1.1122037055961622 
1.719999999999827, -1.1119588678176802 
1.729999999999826, -1.1116153741566928 
1.7399999999998248, -1.1112006063484645 
1.7499999999998237, -1.1107466442378526 
1.7599999999998226, -1.110291415234642 
1.7699999999998215, -1.1098777478840023 
1.7799999999998204, -1.109548104085973 
1.7899999999998193, -1.1093353292814268 
1.7999999999998182, -1.1092533554163537 
1.809999999999817, -1.109292995413559 
1.819999999999816, -1.109425072537166 
1.8299999999998149, -1.109608727336504 
1.8399999999998138, -1.109800566596923 
1.8499999999998127, -1.109961305210721 
1.8599999999998116, -1.1100590066740388 
1.8699999999998105, -1.1100698930826975 
1.8799999999998094, -1.1099781371326622 
1.8899999999998083, -1.109775527249952 
1.8999999999998072, -1.109461253975954 
1.909999999999806, -1.109041766009827 
1.919999999999805, -1.1085306819413951 
1.9299999999998039, -1.1079488603169574 
1.9399999999998028, -1.107324595867551 
1.9499999999998017, -1.1066933464732378 
1.9599999999998006, -1.1060957029663423 
1.9699999999997995, -1.1055723178251593 
1.9799999999997984, -1.1051559107414612 
1.9899999999997973, -1.1048628106012444 
1.9999999999997962, -1.1046879908034875 
2.0099999999998173, -1.1046064770509212 
2.0199999999998384, -1.1045805227710055 
2.0299999999998595, -1.1045686430433421 
2.0399999999998806, -1.104532298807483 
2.0499999999999017, -1.1044386336703826 
2.059999999999923, -1.104260470874492 
2.069999999999944, -1.103975761910776 
2.079999999999965, -1.1035679805108922 
2.089999999999986, -1.1030276907967704 
2.100000000000007, -1.1023546114786127 
2.1100000000000283, -1.101559367815344 
2.1200000000000494, -1.1006645714042955 
2.1300000000000705, -1.0997052132569034 
2.1400000000000916, -1.0987280395982453 
2.1500000000001127, -1.097788743029947 
2.160000000000134, -1.096945331851297 
2.170000000000155, -1.0962471228801194 
2.180000000000176, -1.095721905915658 
2.190000000000197, -1.0953672261617922 
2.2000000000002182, -1.095151527800096 
2.2100000000002393, -1.0950251888930462 
2.2200000000002604, -1.0949347755072987 
2.2300000000002815, -1.094832855145574 
2.2400000000003026, -1.0946805344404331 
2.2500000000003237, -1.0944448610019482 
2.260000000000345, -1.0940948713734033 
2.270000000000366, -1.0935993179752757 
2.280000000000387, -1.0929278463741352 
2.290000000000408, -1.0920561488178373 
2.3000000000004293, -1.0909741300838849 
2.3100000000004504, -1.0896946300796269 
2.3200000000004715, -1.0882596441097108 
2.3300000000004926, -1.0867415510059917 
2.3400000000005137, -1.085237602523651 
2.3500000000005348, -1.0838561809174152 
2.360000000000556, -1.0826947112138423 
2.370000000000577, -1.0818140375176162 
2.380000000000598, -1.081220666229955 
2.390000000000619, -1.08086841051119 
2.4000000000006403, -1.0806795919520251 
2.4100000000006614, -1.080572335617067 
2.4200000000006825, -1.0804789062750622 
2.4300000000007036, -1.0803500574367297 
2.4400000000007247, -1.08014970869227 
2.450000000000746, -1.0798463636925608 
2.460000000000767, -1.0794054420792616 
2.470000000000788, -1.0787846152176523 
2.480000000000809, -1.0779338501583116 
2.49000000000083, -1.0768023303370176 
2.5000000000008513, -1.0753538645251548 
2.5100000000008724, -1.0735891322654543 
2.5200000000008935, -1.0715674779845215 
2.5300000000009146, -1.0694163555276768 
2.5400000000009357, -1.0673172242044853 
2.550000000000957, -1.0654646176371814 
2.560000000000978, -1.0640092282883657 
2.570000000000999, -1.0630105271098962 
2.58000000000102, -1.0624261755153097 
2.5900000000010412, -1.0621441790616113 
2.6000000000010624, -1.0620343566976487 
2.6100000000010835, -1.0619877229414518 
2.6200000000011046, -1.0619301302728066 
2.6300000000011257, -1.0618164702654729 
2.6400000000011468, -1.0616175805422605 
2.650000000001168, -1.0613076398908794 
2.660000000001189, -1.0608545189877503 
2.67000000000121, -1.0602133030723138 
2.680000000001231, -1.0593238039128259 
2.6900000000012523, -1.0581150461776558 
2.7000000000012734, -1.0565216291603141 
2.7100000000012945, -1.054515250628854 
2.7200000000013156, -1.0521457121837932 
2.7300000000013367, -1.049570573880759 
2.740000000001358, -1.0470435850335238 
2.750000000001379, -1.0448466199620676 
2.7600000000014, -1.0431892657762627 
2.770000000001421, -1.0421343459520815 
2.780000000001442, -1.0415967966409532 
2.7900000000014633, -1.041408522143583 
2.8000000000014844, -1.0413970821284781 
2.8100000000015055, -1.041433049307261 
2.8200000000015266, -1.0414383142909491 
2.8300000000015477, -1.0413722693490146 
2.840000000001569, -1.041213351867318 
2.85000000000159, -1.0409440943288941 
2.860000000001611, -1.040540751771465 
2.870000000001632, -1.0399662354032597 
2.8800000000016532, -1.0391658490742066 
2.8900000000016743, -1.038067779973764 
2.9000000000016954, -1.0365935127011614 
2.9100000000017165, -1.0346850543124735 
2.9200000000017377, -1.0323507746151024 
2.9300000000017588, -1.029714507005393 
2.94000000000178, -1.0270301222795797 
2.950000000001801, -1.0246238763776172 
2.960000000001822, -1.0227734273145352 
2.970000000001843, -1.021595686559892 
2.9800000000018643, -1.0210217541369742 
2.9900000000018854, -1.0208660481198786 
3.0000000000019065, -1.0209254626323079 
3.0100000000019276, -1.0210444118699884 
3.0200000000019487, -1.0211300683492448 
3.03000000000197, -1.0211375846298831 
3.040000000001991, -1.0210481925589439 
3.050000000002012, -1.020851499475827 
3.060000000002033, -1.0205337754727795 
3.070000000002054, -1.0200703925738155 
3.0800000000020753, -1.0194207078434443 
3.0900000000020964, -1.01852556113328 
3.1000000000021175, -1.0173104662967707 
3.1100000000021386, -1.0157007884501235 
3.1200000000021597, -1.0136557195429876 
3.130000000002181, -1.0112192445204404 
3.140000000002202, -1.0085644384824008 
3.150000000002223, -1.0059863011305905 
3.160000000002244, -1.003813535225812 
3.1700000000022652, -1.002274632937327 
3.1800000000022863, -1.0014091441311153 
3.1900000000023074, -1.0010850868926389 
3.2000000000023285, -1.0010932665478773 
3.2100000000023496, -1.0012408897559393 
3.2200000000023707, -1.0013965107540688 
3.230000000002392, -1.001489651108177 
3.240000000002413, -1.0014903181500314 
3.250000000002434, -1.001387632340562 
3.260000000002455, -1.00117447254341 
3.2700000000024763, -1.0008377997227498 
3.2800000000024974, -1.0003524003380906 
3.2900000000025185, -0.9996765964813022 
3.3000000000025396, -0.9987504804438233 
3.3100000000025607, -0.9975000599606098 
3.3200000000025818, -0.9958536103626257 
3.330000000002603, -0.9937763455694284 
3.340000000002624, -0.9913200213938138 
3.350000000002645, -0.988662609134243 
3.360000000002666, -0.9860954035808882 
3.3700000000026873, -0.9839341413406275 
3.3800000000027084, -0.9823930214208542 
3.3900000000027295, -0.9815062350126743 
3.4000000000027506, -0.9811478795487318 
3.4100000000027717, -0.9811199043868717 
3.420000000002793, -0.9812382165754864 
3.430000000002814, -0.9813748102488684 
3.440000000002835, -0.9814586886528609 
3.450000000002856, -0.9814577556988716 
3.460000000002877, -0.9813590915397103 
3.4700000000028983, -0.9811543163149802 
3.4800000000029194, -0.9808301014895789 
3.4900000000029405, -0.9803619216458996 
3.5000000000029616, -0.9797097189881002 
3.5100000000029827, -0.9788159090155719 
3.520000000003004, -0.9776086675140288 
3.530000000003025, -0.9760160023276448 
3.540000000003046, -0.9739960163628085 
3.550000000003067, -0.9715809529578987 
3.5600000000030882, -0.9689151221064707 
3.5700000000031094, -0.9662518486286398 
3.5800000000031305, -0.9638871776753046 
3.5900000000031516, -0.9620541467324403 
3.6000000000031727, -0.9608411913577921 
3.6100000000031938, -0.9601844729955756 
3.620000000003215, -0.9599269205178919 
3.630000000003236, -0.9598948115376087 
3.640000000003257, -0.9599488292396418 
3.650000000003278, -0.9599989881353357 
3.6600000000032993, -0.9599960553675835 
3.6700000000033204, -0.959915424735421 
3.6800000000033415, -0.9597425756848006 
3.6900000000033626, -0.9594625846347494 
3.7000000000033837, -0.9590530076774474 
3.710000000003405, -0.9584790802317418 
3.720000000003426, -0.957691309314834 
3.730000000003447, -0.9566274424443748 
3.740000000003468, -0.9552226849325246 
3.750000000003489, -0.9534318989433951 
3.7600000000035103, -0.9512621994637929 
3.7700000000035314, -0.9488032632851656 
3.7800000000035525, -0.9462334719949018 
3.7900000000035736, -0.9437859717090683 
3.8000000000035947, -0.9416824124742768 
3.810000000003616, -0.9400659180520634 
3.820000000003637, -0.9389674010021357 
3.830000000003658, -0.9383181414912147 
3.840000000003679, -0.9379940575587913 
3.8500000000037002, -0.9378638046381635 
3.8600000000037213, -0.9378198502103349 
3.8700000000037424, -0.9377880137979835 
3.8800000000037635, -0.9377224477360906 
3.8900000000037847, -0.9375950971210447 
3.9000000000038058, -0.9373853806106485 
3.910000000003827, -0.9370721962251221 
3.920000000003848, -0.9366285076782235 
3.930000000003869, -0.9360186422780788 
3.94000000000389, -0.9351992763743355 
3.9500000000039113, -0.9341259232486665 
3.9600000000039324, -0.9327661996701387 
3.9700000000039535, -0.9311179660707163 
3.9800000000039746, -0.9292254366499799 
3.9900000000039957, -0.9271837529781797 
4.000000000004016, -0.9251264197035871 
4.010000000003993, -0.9231985543220356 
4.02000000000397, -0.9215254704306588 
4.030000000003946, -0.920187078966212 
4.040000000003923, -0.9192056458053905 
4.0500000000039, -0.9185497524161548 
4.0600000000038765, -0.9181515247532802 
4.070000000003853, -0.9179291872624695 
4.08000000000383, -0.9178060069953634 
4.090000000003807, -0.9177204501515133 
4.100000000003783, -0.9176276659298166 
4.11000000000376, -0.9174956027706245 
4.120000000003737, -0.9172993432307504 
4.130000000003713, -0.917016071776698 
4.14000000000369, -0.9166219946714689 
4.150000000003667, -0.9160920269461744 
4.1600000000036434, -0.9154027768403445 
4.17000000000362, -0.9145385872881849 
4.180000000003597, -0.9134988570467591 
4.1900000000035735, -0.9123034413252373 
4.20000000000355, -0.9109932457933614 
4.210000000003527, -0.9096255396066836 
4.220000000003504, -0.9082660604560411 
4.23000000000348, -0.9069805259815888 
4.240000000003457, -0.9058269226768658 
4.250000000003434, -0.9048488092799423 
4.26000000000341, -0.9040699973623714 
4.270000000003387, -0.9034918231912524 
4.280000000003364, -0.9030944403542975 
4.2900000000033405, -0.9028423572104856 
4.300000000003317, -0.9026924736520966 
4.310000000003294, -0.9026017212582277 
4.320000000003271, -0.9025320007916496 
4.330000000003247, -0.9024518275994604 
4.340000000003224, -0.902335625720192 
4.350000000003201, -0.9021622239858056 
4.360000000003177, -0.9019139080433846 
4.370000000003154, -0.9015767467677662 
4.380000000003131, -0.9011420870764649 
4.390000000003107, -0.9006083429474003 
4.400000000003084, -0.8999819296946903 
4.410000000003061, -0.8992767299474955 
4.4200000000030375, -0.8985124591966352 
4.430000000003014, -0.8977128621782093 
4.440000000002991, -0.8969043946097489 
4.450000000002968, -0.8961153360311925 
4.460000000002944, -0.895374763199694 
4.470000000002921, -0.8947107574254772 
4.480000000002898, -0.8941475882711698 
4.490000000002874, -0.8937022644402146 
4.500000000002851, -0.8933814849977064 
4.510000000002828, -0.8931802343480145 
4.520000000002804, -0.8930827572440778 
4.530000000002781, -0.8930656291174499 
4.540000000002758, -0.8931017538610415 
4.5500000000027345, -0.8931639525858159 
4.560000000002711, -0.8932273570230255 
4.570000000002688, -0.8932705832343203 
4.580000000002665, -0.8932761168118597 
4.590000000002641, -0.8932303466854747 
4.600000000002618, -0.8931234660587324 
4.610000000002595, -0.8929493257912258 
4.620000000002571, -0.8927053589695862 
4.630000000002548, -0.8923926998309222 
4.640000000002525, -0.8920164525384863 
4.6500000000025015, -0.8915859029708768 
4.660000000002478, -0.8911145462464525 
4.670000000002455, -0.8906200178453973 
4.6800000000024315, -0.8901240366887142 
4.690000000002408, -0.8896521787026609 
4.700000000002385, -0.8892329392774027 
4.710000000002362, -0.8888954911606349 
4.720000000002338, -0.8886660249801377 
4.730000000002315, -0.8885634139710958 
4.740000000002292, -0.8885956136671768 
4.750000000002268, -0.8887581148591728 
4.760000000002245, -0.8890348744884642 
4.770000000002222, -0.8894010566499458 
4.7800000000021985, -0.8898263418460217 
4.790000000002175, -0.8902777642339803 
4.800000000002152, -0.8907217437331199 
4.810000000002129, -0.8911257128563346 
4.820000000002105, -0.8914600667870435 
4.830000000002082, -0.8917008182155914 
4.840000000002059, -0.8918324278135096 
4.850000000002035, -0.8918495252128886 
4.860000000002012, -0.8917564956099027 
4.870000000001989, -0.8915651480086251 
4.880000000001965, -0.8912918280524129 
4.890000000001942, -0.8909554964056581 
4.900000000001919, -0.890577605947698 
4.9100000000018955, -0.8901837279248165 
4.920000000001872, -0.8898061373587085 
4.930000000001849, -0.889485942372539 
