t, s[1].omega / s[0].omega 
0, -0.5599977395350437 
0.009999999999999995, -0.5597788600300969 
0.019999999999999934, -0.5595687641955945 
0.029999999999999874, -0.5593536584091191 
0.04000000000000012, -0.5591170306089592 
0.050000000000000405, -0.558845474605896 
0.06000000000000069, -0.5585320754181955 
0.07000000000000098, -0.5581768792185258 
0.08000000000000126, -0.5577858153064201 
0.09000000000000155, -0.5573698875094086 
0.10000000000000184, -0.5569459257634328 
0.11000000000000212, -0.556539597698263 
0.12000000000000241, -0.5561911420135904 
0.130000000000002, -0.5559642432602858 
0.1400000000000009, -0.5559581200150463 
0.1499999999999998, -0.5563213762608811 
0.1599999999999987, -0.557261997573758 
0.1699999999999976, -0.5590393135970182 
0.1799999999999965, -0.5619120578050113 
0.1899999999999954, -0.5660160595807298 
0.1999999999999943, -0.5711917963347644 
0.2099999999999932, -0.5768921498236506 
0.2199999999999921, -0.5823462814659346 
0.229999999999991, -0.586932014719852 
0.2399999999999899, -0.5904237267799634 
0.2499999999999888, -0.5929268742210232 
0.2599999999999877, -0.5946710635158864 
0.2699999999999866, -0.595870032652897 
0.2799999999999855, -0.5966807852299264 
0.2899999999999844, -0.597209614565776 
0.2999999999999833, -0.5975267243029854 
0.3099999999999822, -0.5976772459419153 
0.3199999999999811, -0.5976877832555314 
0.32999999999998, -0.5975699386358634 
0.3399999999999789, -0.5973221574421781 
0.3499999999999778, -0.5969310973375255 
0.35999999999997667, -0.5963740547918726 
0.36999999999997557, -0.5956244628833944 
0.37999999999997447, -0.5946620936476458 
0.38999999999997337, -0.5934868553670608 
0.39999999999997227, -0.5921300794177149 
0.40999999999997117, -0.5906544931852279 
0.41999999999997006, -0.5891395888078456 
0.42999999999996896, -0.5876600678569937 
0.43999999999996786, -0.5862698548171658 
0.44999999999996676, -0.5849980839264634 
0.45999999999996566, -0.5838545640491929 
0.46999999999996456, -0.5828386145953875 
0.47999999999996346, -0.5819467441533022 
0.48999999999996235, -0.5811775758058778 
0.49999999999996125, -0.5805343351708474 
0.5099999999999602, -0.5800258229474646 
0.519999999999959, -0.5796666678721952 
0.529999999999958, -0.5794773469287253 
0.5399999999999568, -0.5794842200707844 
0.5499999999999557, -0.5797196709086985 
0.5599999999999546, -0.5802222734359013 
0.5699999999999535, -0.5810365835080729 
0.5799999999999524, -0.5822115519833703 
0.5899999999999513, -0.5837956232131826 
0.5999999999999502, -0.5858255926711502 
0.6099999999999491, -0.5883064016850343 
0.619999999999948, -0.5911828162959127 
0.6299999999999469, -0.5943139858010085 
0.6399999999999458, -0.5974743033084342 
0.6499999999999447, -0.6004012059511911 
0.6599999999999436, -0.6028769227179301 
0.6699999999999425, -0.6047928704142377 
0.6799999999999414, -0.6061554227057087 
0.6899999999999403, -0.607043462919606 
0.6999999999999392, -0.6075575679656046 
0.7099999999999381, -0.6077868801501681 
0.719999999999937, -0.6077957025653233 
0.7299999999999359, -0.6076213079670452 
0.7399999999999348, -0.6072750702193191 
0.7499999999999337, -0.6067424312180741 
0.7599999999999326, -0.6059796676438468 
0.7699999999999315, -0.6049069459769544 
0.7799999999999304, -0.6033993111122297 
0.7899999999999293, -0.601282394513417 
0.7999999999999282, -0.598349331582573 
0.8099999999999271, -0.5944235240540543 
0.819999999999926, -0.5894745884079533 
0.8299999999999249, -0.5837300613644454 
0.8399999999999238, -0.5776687826470217 
0.8499999999999227, -0.5718544529136659 
0.8599999999999216, -0.5667279915915533 
0.8699999999999205, -0.5625060411388414 
0.8799999999999194, -0.5592068485764908 
0.8899999999999183, -0.5567311455114492 
0.8999999999999172, -0.5549346598073808 
0.9099999999999161, -0.5536718620527126 
0.919999999999915, -0.5528156549172302 
0.9299999999999139, -0.552263041390001 
0.9399999999999128, -0.5519342714621533 
0.9499999999999117, -0.5517696184934358 
0.9599999999999106, -0.5517257304833619 
0.9699999999999095, -0.5517723690320023 
0.9799999999999084, -0.5518898359173117 
0.9899999999999073, -0.5520671246588361 
0.9999999999999062, -0.552300583876135 
1.0099999999999052, -0.552592529510237 
1.019999999999904, -0.552948877959971 
1.029999999999903, -0.5533748456054729 
1.039999999999902, -0.5538685607910295 
1.0499999999999008, -0.5544142158001065 
1.0599999999998997, -0.5549783745578821 
1.0699999999998986, -0.5555133396379983 
1.0799999999998975, -0.555968204320856 
1.0899999999998964, -0.5563025831067347 
1.0999999999998953, -0.5564953146752252 
1.1099999999998942, -0.5565441803890254 
1.119999999999893, -0.5564590287258844 
1.129999999999892, -0.5562534498516387 
1.1399999999998909, -0.5559384737954568 
1.1499999999998898, -0.5555189877712174 
1.1599999999998887, -0.5549920062348298 
1.1699999999998876, -0.5543455940428814 
1.1799999999998865, -0.5535572731950422 
1.1899999999998854, -0.5525904114319107 
1.1999999999998843, -0.55138604019807 
1.2099999999998832, -0.5498464630132189 
1.219999999999882, -0.5478102744253873 
1.229999999999881, -0.545037449322463 
1.2399999999998799, -0.5412637342176436 
1.2499999999998788, -0.5363892522358344 
1.2599999999998777, -0.5307149288727813 
1.2699999999998766, -0.5249392634213109 
1.2799999999998755, -0.5198112283812091 
1.2899999999998744, -0.5157698043767096 
1.2999999999998733, -0.5128721747558259 
1.3099999999998722, -0.5109396755187915 
1.319999999999871, -0.5097222920370045 
1.32999999999987, -0.5089924539784246 
1.3399999999998689, -0.5085760657048376 
1.3499999999998678, -0.5083515758785544 
1.3599999999998666, -0.5082384767501003 
1.3699999999998655, -0.5081850603412514 
1.3799999999998644, -0.5081586776536042 
1.3899999999998633, -0.5081390092093179 
1.3999999999998622, -0.5081140096115011 
1.4099999999998611, -0.5080780189628665 
1.41999999999986, -0.5080314076351073 
1.429999999999859, -0.5079807729110797 
1.4399999999998578, -0.5079382702809371 
1.4499999999998567, -0.5079187063159154 
1.4599999999998556, -0.5079341060283513 
1.4699999999998545, -0.507987343440641 
1.4799999999998534, -0.5080678792523382 
1.4899999999998523, -0.5081524151712556 
1.4999999999998512, -0.5082109662714205 
1.5099999999998501, -0.5082155665850898 
1.519999999999849, -0.5081470859733029 
1.529999999999848, -0.507997216954905 
1.5399999999998468, -0.5077661024643572 
1.5499999999998457, -0.5074581901436963 
1.5599999999998446, -0.5070786375230038 
1.5699999999998435, -0.5066312528656522 
1.5799999999998424, -0.5061179214684485 
1.5899999999998413, -0.5055390222576893 
1.5999999999998402, -0.5048940286681654 
1.6099999999998391, -0.5041806016205579 
1.619999999999838, -0.5033882402350333 
1.629999999999837, -0.5024789193644243 
1.6399999999998358, -0.5013465558998458 
1.6499999999998347, -0.49976591653402486 
1.6599999999998336, -0.49739961359812906 
1.6699999999998325, -0.493976491062321 
1.6799999999998314, -0.48960264193777964 
1.6899999999998303, -0.48486303938580366 
1.6999999999998292, -0.480498376704346 
1.709999999999828, -0.4769925754235588 
1.719999999999827, -0.4744552286150038 
1.729999999999826, -0.47275330637627644 
1.7399999999998248, -0.4716745772355277 
1.7499999999998237, -0.4710216802371786 
1.7599999999998226, -0.4706434279467767 
1.7699999999998215, -0.47043471468243386 
1.7799999999998204, -0.4703263471237369 
1.7899999999998193, -0.4702742613542217 
1.7999999999998182, -0.4702511089599999 
1.809999999999817, -0.4702406124706962 
1.819999999999816, -0.47023432519885044 
1.8299999999998149, -0.47023025930227036 
1.8399999999998138, -0.4702326782772195 
1.8499999999998127, -0.47025199535796114 
1.8599999999998116, -0.47030338226728297 
1.8699999999998105, -0.4704029111865845 
1.8799999999998094, -0.4705612339843556 
1.8899999999998083, -0.4707766348045056 
1.8999999999998072, -0.47103075952515006 
1.909999999999806, -0.4712902125267873 
1.919999999999805, -0.4715146652396343 
1.9299999999998039, -0.47166797879081573 
1.9399999999998028, -0.47172648155229374 
1.9499999999998017, -0.47168068324525736 
1.9599999999998006, -0.4715312998821629 
1.9699999999997995, -0.47128308293852383 
1.9799999999997984, -0.4709392699162884 
1.9899999999997973, -0.4704974651480323 
1.9999999999997962, -0.4699462538714917 
2.0099999999998173, -0.469261106307694 
2.0199999999998384, -0.46839758554491484 
2.0299999999998595, -0.46727913805840143 
2.0399999999998806, -0.4657765152486344 
2.0499999999999017, -0.4636799926925228 
2.059999999999923, -0.4606836541868035 
2.069999999999944, -0.4564396192257953 
2.079999999999965, -0.4507551635165418 
2.089999999999986, -0.44387397479638446 
2.100000000000007, -0.43654493699619357 
2.1100000000000283, -0.429683828099766 
2.1200000000000494, -0.4239266072629645 
2.1300000000000705, -0.41947208378471634 
2.1400000000000916, -0.41620805095455937 
2.1500000000001127, -0.41389749007397797 
2.160000000000134, -0.4122983829975643 
2.170000000000155, -0.41121185044471575 
2.180000000000176, -0.4104902659971178 
2.190000000000197, -0.4100300995073959 
2.2000000000002182, -0.40976165715901464 
2.2100000000002393, -0.4096401862333125 
2.2200000000002604, -0.40963940755913447 
2.2300000000002815, -0.4097473365490939 
2.2400000000003026, -0.4099639122763293 
2.2500000000003237, -0.4102998114828617 
2.260000000000345, -0.41077557725929087 
2.270000000000366, -0.41141973869512755 
2.280000000000387, -0.41226404528276916 
2.290000000000408, -0.4133337351743487 
2.3000000000004293, -0.4146319218703888 
2.3100000000004504, -0.4161212421357421 
2.3200000000004715, -0.4177128797626682 
2.3300000000004926, -0.41927695349838956 
2.3400000000005137, -0.42067817595561047 
2.3500000000005348, -0.4218185075710787 
2.360000000000556, -0.42265911054319283 
2.370000000000577, -0.42321216502996045 
2.380000000000598, -0.42351650796735 
2.390000000000619, -0.4236149160954802 
2.4000000000006403, -0.4235404621242064 
2.4100000000006614, -0.4233104453734796 
2.4200000000006825, -0.42292387759985434 
2.4300000000007036, -0.42235958533113915 
2.4400000000007247, -0.42157402787356 
2.450000000000746, -0.4205004804775191 
2.460000000000767, -0.41905477650198664 
2.470000000000788, -0.41715618484813966 
2.480000000000809, -0.4147689987407953 
2.49000000000083, -0.4119520372277442 
2.5000000000008513, -0.4088774936119556 
2.5100000000008724, -0.4057865144201025 
2.5200000000008935, -0.40290330392303375 
2.5300000000009146, -0.40036956664748463 
2.5400000000009357, -0.3982333303570413 
2.550000000000957, -0.3964762076298515 
2.560000000000978, -0.3950482264673445 
2.570000000000999, -0.3938931507764648 
2.58000000000102, -0.392961962659803 
2.5900000000010412, -0.39221819165065536 
2.6000000000010624, -0.391639150451415 
2.6100000000010835, -0.39121585139449316 
2.6200000000011046, -0.39095318293736214 
2.6300000000011257, -0.39087119978379814 
2.6400000000011468, -0.39100803226376085 
2.650000000001168, -0.3914247339298691 
2.660000000001189, -0.3922120483004513 
2.67000000000121, -0.3934980342578086 
2.680000000001231, -0.3954527058413957 
2.6900000000012523, -0.3982797799773904 
2.7000000000012734, -0.40217600002705145 
2.7100000000012945, -0.40723341454967377 
2.7200000000013156, -0.4132877917049054 
2.7300000000013367, -0.4198081482637468 
2.740000000001358, -0.42600379932591786 
2.750000000001379, -0.43117822882564927 
2.7600000000014, -0.43503896745662257 
2.770000000001421, -0.4376923773951426 
2.780000000001442, -0.43942715190009274 
2.7900000000014633, -0.4405295606967248 
2.8000000000014844, -0.44121247936021746 
2.8100000000015055, -0.44161489816176686 
2.8200000000015266, -0.4418219265070028 
2.8300000000015477, -0.4418832958923155 
2.840000000001569, -0.44182582411540494 
2.85000000000159, -0.44166109838819934 
2.860000000001611, -0.4413906084838854 
2.870000000001632, -0.44101035012300216 
2.8800000000016532, -0.44051641468551583 
2.8900000000016743, -0.4399119569442285 
2.9000000000016954, -0.43921382966074374 
2.9100000000017165, -0.4384550721939015 
2.9200000000017377, -0.43767995127498105 
2.9300000000017588, -0.4369326176772444 
2.94000000000178, -0.4362451912494688 
2.950000000001801, -0.4356313119186326 
2.960000000001822, -0.4350870776941725 
2.970000000001843, -0.43459716179033 
2.9800000000018643, -0.43414238943043226 
2.9900000000018854, -0.43370577242798003 
3.0000000000019065, -0.4332757252428647 
3.0100000000019276, -0.43284686914052006 
3.0200000000019487, -0.43241972758047564 
3.03000000000197, -0.43200062849811316 
3.040000000001991, -0.4316027202432151 
3.050000000002012, -0.4312486356855971 
3.060000000002033, -0.43097508658613737 
3.070000000002054, -0.4308391941779338 
3.0800000000020753, -0.4309248020087558 
3.0900000000020964, -0.4313427483292346 
3.1000000000021175, -0.43221021436793794 
3.1100000000021386, -0.4335836633912697 
3.1200000000021597, -0.4353306716441002 
3.130000000002181, -0.43700998272843317 
3.140000000002202, -0.4379676289625226 
3.150000000002223, -0.4377625077588845 
3.160000000002244, -0.43654111992865297 
3.1700000000022652, -0.43487905533492055 
3.1800000000022863, -0.4333164935193328 
3.1900000000023074, -0.4321137846632824 
3.2000000000023285, -0.43129781959004376 
3.2100000000023496, -0.4307906346031526 
3.2200000000023707, -0.43049606912562693 
3.230000000002392, -0.43033463764872015 
3.240000000002413, -0.4302500685294864 
3.250000000002434, -0.4302055600858258 
3.260000000002455, -0.43017818725948664 
3.2700000000024763, -0.4301543764016138 
3.2800000000024974, -0.43012711003842385 
3.2900000000025185, -0.4300947772480651 
3.3000000000025396, -0.4300612782093813 
3.3100000000025607, -0.43003662714177626 
3.3200000000025818, -0.430036829166257 
3.330000000002603, -0.43008162004947376 
3.340000000002624, -0.43018929470754125 
3.350000000002645, -0.43036938735828123 
3.360000000002666, -0.43061574338032155 
3.3700000000026873, -0.43090356134232416 
3.3800000000027084, -0.43119324392544256 
3.3900000000027295, -0.43144064368764434 
3.4000000000027506, -0.4316089354589551 
3.4100000000027717, -0.43167590017497287 
3.420000000002793, -0.43163383938094874 
3.430000000002814, -0.43148416649475185 
3.440000000002835, -0.4312305178008029 
3.450000000002856, -0.4308727877009755 
3.460000000002877, -0.4304022884500819 
3.4700000000028983, -0.429796812769016 
3.4800000000029194, -0.42901370749214507 
3.4900000000029405, -0.42797874840683575 
3.5000000000029616, -0.4265691270599681 
3.5100000000029827, -0.4245930301518076 
3.520000000003004, -0.4217823771023278 
3.530000000003025, -0.41784208800765266 
3.540000000003046, -0.41260740397119433 
3.550000000003067, -0.40626692326165087 
3.5600000000030882, -0.39943367762825105 
3.5700000000031094, -0.3928966853326728 
3.5800000000031305, -0.3872503192387816 
3.5900000000031516, -0.3827283418010203 
3.6000000000031727, -0.3792813996145873 
3.6100000000031938, -0.3767293546321861 
3.620000000003215, -0.3748706694789884 
3.630000000003236, -0.37353213988606176 
3.640000000003257, -0.37258165016373307 
3.650000000003278, -0.37192520109247884 
3.6600000000032993, -0.3714996997803734 
3.6700000000033204, -0.37126620460878124 
3.6800000000033415, -0.37120505557505046 
3.6900000000033626, -0.37131306257835756 
3.7000000000033837, -0.37160251884147794 
3.710000000003405, -0.3721016231187918 
3.720000000003426, -0.37285556174942835 
3.730000000003447, -0.3739267101289073 
3.740000000003468, -0.37539087242935804 
3.750000000003489, -0.37732424063735814 
3.7600000000035103, -0.3797744278031211 
3.7700000000035314, -0.38271381042767355 
3.7800000000035525, -0.38599212166515146 
3.7900000000035736, -0.3893318769533691 
3.8000000000035947, -0.39240468897906194 
3.810000000003616, -0.39495672371138335 
3.820000000003637, -0.3968887311647361 
3.830000000003658, -0.39824032125005804 
3.840000000003679, -0.399120184371541 
3.8500000000037002, -0.399644626601132 
3.8600000000037213, -0.3999073961025351 
3.8700000000037424, -0.39997273164288627 
3.8800000000037635, -0.3998783235059831 
3.8900000000037847, -0.3996403225161686 
3.9000000000038058, -0.399257773713304 
3.910000000003827, -0.398716833011866 
3.920000000003848, -0.3979966729175695 
3.930000000003869, -0.397079362204011 
3.94000000000389, -0.39596413236794586 
3.9500000000039113, -0.39468137809965154 
3.9600000000039324, -0.3932965861974239 
3.9700000000039535, -0.39189697804689677 
3.9800000000039746, -0.39056610737905423 
3.9900000000039957, -0.3893616697924903 
4.000000000004016, -0.3883076427926989 
4.010000000003993, -0.38739995673997063 
4.02000000000397, -0.38661817054293823 
4.030000000003946, -0.3859365785007195 
4.040000000003923, -0.38533181141082967 
4.0500000000039, -0.3847867704400568 
4.0600000000038765, -0.3842920671110045 
4.070000000003853, -0.3838464605715789 
4.08000000000383, -0.38345756178484336 
4.090000000003807, -0.383143719363529 
4.100000000003783, -0.3829377462141854 
4.11000000000376, -0.3828929502103048 
4.120000000003737, -0.3830913982520373 
4.130000000003713, -0.3836524644602178 
4.14000000000369, -0.38473442024031335 
4.150000000003667, -0.38651037582675674 
4.1600000000036434, -0.3890848692310823 
4.17000000000362, -0.39232733124804764 
4.180000000003597, -0.3957030804832146 
4.1900000000035735, -0.3983663659356918 
4.20000000000355, -0.39967415157824887 
4.210000000003527, -0.39966174817282296 
4.220000000003504, -0.3988931702174662 
4.23000000000348, -0.397949597861153 
4.240000000003457, -0.3971504692160414 
4.250000000003434, -0.39658262196875954 
4.26000000000341, -0.39621919563459024 
4.270000000003387, -0.39600251221682 
4.280000000003364, -0.39587967394296875 
4.2900000000033405, -0.39581181190712994 
4.300000000003317, -0.395773248168765 
4.310000000003294, -0.39574828958265956 
4.320000000003271, -0.3957284740042218 
4.330000000003247, -0.39571103834356103 
4.340000000003224, -0.3956986137163022 
4.350000000003201, -0.3956997389000794 
4.360000000003177, -0.3957293318134333 
4.370000000003154, -0.3958078340774606 
4.380000000003131, -0.39595775817042883 
4.390000000003107, -0.39619720433614825 
4.400000000003084, -0.3965314946201387 
4.410000000003061, -0.3969458907703075 
4.4200000000030375, -0.3974035985310581 
4.430000000003014, -0.3978523148925211 
4.440000000002991, -0.3982380710751553 
4.450000000002968, -0.3985195064744431 
4.460000000002944, -0.3986749050573514 
4.470000000002921, -0.3986998601157622 
4.480000000002898, -0.3985993513339804 
4.490000000002874, -0.3983791370160018 
4.500000000002851, -0.3980388322521139 
4.510000000002828, -0.3975663687180878 
4.520000000002804, -0.3969322383590144 
4.530000000002781, -0.39608177595434463 
4.540000000002758, -0.39492461831577846 
4.5500000000027345, -0.39332367912546556 
4.560000000002711, -0.39109435998005193 
4.570000000002688, -0.3880385829032918 
4.580000000002665, -0.38404101839698856 
4.590000000002641, -0.37920601666506315 
4.600000000002618, -0.3739184033161908 
4.610000000002595, -0.36871687927821006 
4.620000000002571, -0.36405905918127923 
4.630000000002548, -0.3601768988647995 
4.640000000002525, -0.35709176015504096 
4.6500000000025015, -0.35470641952790066 
4.660000000002478, -0.352887096150445 
4.670000000002455, -0.3515086265597538 
4.6800000000024315, -0.35047118530726895 
4.690000000002408, -0.34970252619761105 
4.700000000002385, -0.3491550064716819 
4.710000000002362, -0.34880192374447805 
4.720000000002338, -0.3486349993055076 
4.730000000002315, -0.34866364928892135 
4.740000000002292, -0.3489162565588849 
4.750000000002268, -0.34944347768030426 
4.760000000002245, -0.3503232790435418 
4.770000000002222, -0.35166634438989275 
4.7800000000021985, -0.3536178074031688 
4.790000000002175, -0.35634576919784405 
4.800000000002152, -0.3599993500816915 
4.810000000002129, -0.3646182041734002 
4.820000000002105, -0.3700070171340369 
4.830000000002082, -0.37566883124397127 
4.840000000002059, -0.380933896518752 
4.850000000002035, -0.38526192588768293 
4.860000000002012, -0.38846076105385474 
4.870000000001989, -0.3906470549208671 
4.880000000001965, -0.3920666036672185 
