t, s[1].omega / s[0].omega 
0, -0.5699977364697516 
0.009999999999999995, -0.5697771635305049 
0.019999999999999934, -0.5695627752639972 
0.029999999999999874, -0.5693411965470505 
0.04000000000000012, -0.5690965421662088 
0.050000000000000405, -0.5688161458201572 
0.06000000000000069, -0.5684938625755821 
0.07000000000000098, -0.5681305261422314 
0.08000000000000126, -0.5677329572899834 
0.09000000000000155, -0.5673133361647005 
0.10000000000000184, -0.5668902148578107 
0.11000000000000212, -0.5664918611653147 
0.12000000000000241, -0.5661623842098729 
0.130000000000002, -0.5659710261093044 
0.1400000000000009, -0.566024611822122 
0.1499999999999998, -0.5664815923784668 
0.1599999999999987, -0.5675620030868598 
0.1699999999999976, -0.5695393482680323 
0.1799999999999965, -0.5726890270376773 
0.1899999999999954, -0.5771664557412476 
0.1999999999999943, -0.5828306130104982 
0.2099999999999932, -0.5891349812511105 
0.2199999999999921, -0.595266476909894 
0.229999999999991, -0.6005173352777095 
0.2399999999999899, -0.6045750448191642 
0.2499999999999888, -0.6075011245330888 
0.2599999999999877, -0.6095293041078811 
0.2699999999999866, -0.6109028462434634 
0.2799999999999855, -0.6118119585195736 
0.2899999999999844, -0.6123895859191213 
0.2999999999999833, -0.6127240899054303 
0.3099999999999822, -0.6128716235370837 
0.3199999999999811, -0.6128645455509332 
0.32999999999998, -0.612716325582378 
0.3399999999999789, -0.6124240910782542 
0.3499999999999778, -0.6119701457530711 
0.35999999999997667, -0.6113243224092906 
0.36999999999997557, -0.6104498392311295 
0.37999999999997447, -0.6093153026689944 
0.38999999999997337, -0.6079125150509149 
0.39999999999997227, -0.6062730742227788 
0.40999999999997117, -0.6044716530958776 
0.41999999999997006, -0.6026093940971209 
0.42999999999996896, -0.6007857852799098 
0.43999999999996786, -0.5990759047165606 
0.44999999999996676, -0.5975229927937052 
0.45999999999996566, -0.5961439893522517 
0.46999999999996456, -0.5949401131918431 
0.47999999999996346, -0.5939063619802649 
0.48999999999996235, -0.5930376465682468 
0.49999999999996125, -0.5923317963408203 
0.5099999999999602, -0.5917905182877582 
0.519999999999959, -0.5914193223868016 
0.529999999999958, -0.5912271034929352 
0.5399999999999568, -0.5912257854202763 
0.5499999999999557, -0.5914302196715913 
0.5599999999999546, -0.5918583227545625 
0.5699999999999535, -0.5925311504961072 
0.5799999999999524, -0.593472177160639 
0.5899999999999513, -0.5947044596071831 
0.5999999999999502, -0.5962438127492115 
0.6099999999999491, -0.5980862958852152 
0.619999999999948, -0.6001906414113392 
0.6299999999999469, -0.6024620971570973 
0.6399999999999458, -0.6047513731802283 
0.6499999999999447, -0.6068816376154509 
0.6599999999999436, -0.608698507522534 
0.6699999999999425, -0.6101143971372307 
0.6799999999999414, -0.6111192464718946 
0.6899999999999403, -0.6117579050488977 
0.6999999999999392, -0.612096602795517 
0.7099999999999381, -0.6121975675611679 
0.719999999999937, -0.6121063778277973 
0.7299999999999359, -0.6118478345509055 
0.7399999999999348, -0.6114248955268553 
0.7499999999999337, -0.6108168957840641 
0.7599999999999326, -0.6099748369448798 
0.7699999999999315, -0.6088124962458753 
0.7799999999999304, -0.60719356813846 
0.7899999999999293, -0.6049195685750579 
0.7999999999999282, -0.6017346369187851 
0.8099999999999271, -0.5973807296686223 
0.819999999999926, -0.5917354847067631 
0.8299999999999249, -0.5849936179206587 
0.8399999999999238, -0.5777314602907554 
0.8499999999999227, -0.5707194841367922 
0.8599999999999216, -0.5646001425424696 
0.8699999999999205, -0.5596912805135439 
0.8799999999999194, -0.556004713403895 
0.8899999999999183, -0.5533736807294041 
0.8999999999999172, -0.5515719938462635 
0.9099999999999161, -0.5503835530417074 
0.919999999999915, -0.5496301366286988 
0.9299999999999139, -0.549175955454434 
0.9399999999999128, -0.5489224423335702 
0.9499999999999117, -0.5488003665183677 
0.9599999999999106, -0.5487623314787047 
0.9699999999999095, -0.5487767338988367 
0.9799999999999084, -0.5488234284102382 
0.9899999999999073, -0.548890999140753 
0.9999999999999062, -0.5489752898287186 
1.0099999999999052, -0.5490784879025778 
1.019999999999904, -0.5492076508644492 
1.029999999999903, -0.5493715030541005 
1.039999999999902, -0.5495751335499809 
1.0499999999999008, -0.5498139092567588 
1.0599999999998997, -0.5500695661523936 
1.0699999999998986, -0.5503115544510093 
1.0799999999998975, -0.5505042916174434 
1.0899999999998964, -0.5506170547998908 
1.0999999999998953, -0.550631163891135 
1.1099999999998942, -0.5505412199894119 
1.119999999999893, -0.5503513985523039 
1.129999999999892, -0.5500701443974962 
1.1399999999998909, -0.5497059987612503 
1.1499999999998898, -0.5492655670453009 
1.1599999999998887, -0.548753508270202 
1.1699999999998876, -0.5481741436050468 
1.1799999999998865, -0.5475342849628686 
1.1899999999998854, -0.546846427967847 
1.1999999999998843, -0.5461296285059624 
1.2099999999998832, -0.5454013546902214 
1.219999999999882, -0.5446490556245236 
1.229999999999881, -0.5437764154500864 
1.2399999999998799, -0.5425601393304129 
1.2499999999998788, -0.540719144952367 
1.2599999999998777, -0.5381520290172637 
1.2699999999998766, -0.5351391595888539 
1.2799999999998755, -0.5322156624066073 
1.2899999999998744, -0.5298263673692765 
1.2999999999998733, -0.5281331661244046 
1.3099999999998722, -0.5270673198692764 
1.319999999999871, -0.5264650578660527 
1.32999999999987, -0.526162638889082 
1.3399999999998689, -0.5260334801512927 
1.3499999999998678, -0.5259914748445056 
1.3599999999998666, -0.525982054667616 
1.3699999999998655, -0.5259717145351378 
1.3799999999998644, -0.5259396777031526 
1.3899999999998633, -0.5258723637041024 
1.3999999999998622, -0.5257604399627903 
1.4099999999998611, -0.5255981305726164 
1.41999999999986, -0.5253843473333362 
1.429999999999859, -0.5251246993995716 
1.4399999999998578, -0.5248326437912832 
1.4499999999998567, -0.5245278002562721 
1.4599999999998556, -0.524230740762603 
1.4699999999998545, -0.5239560275144559 
1.4799999999998534, -0.5237069604738644 
1.4899999999998523, -0.523474840356012 
1.4999999999998512, -0.5232430190406021 
1.5099999999998501, -0.5229933976611095 
1.519999999999849, -0.5227120585657206 
1.529999999999848, -0.522391930650264 
1.5399999999998468, -0.5220326318071163 
1.5499999999998457, -0.5216391167883161 
1.5599999999998446, -0.5212208458182765 
1.5699999999998435, -0.5207925624990289 
1.5799999999998424, -0.5203772569565489 
1.5899999999998413, -0.5200117340097197 
1.5999999999998402, -0.5197551274482488 
1.6099999999998391, -0.5197000436212652 
1.619999999999838, -0.5199835678928052 
1.629999999999837, -0.5207891825148341 
1.6399999999998358, -0.5223195818474586 
1.6499999999998347, -0.5247116957695015 
1.6599999999998336, -0.5278894586957323 
1.6699999999998325, -0.5314471029366474 
1.6799999999998314, -0.5347532491515011 
1.6899999999998303, -0.5373075228969396 
1.6999999999998292, -0.5390142055982664 
1.709999999999828, -0.5400920026476658 
1.719999999999827, -0.5408099863609277 
1.729999999999826, -0.5413406071961842 
1.7399999999998248, -0.5417588209936299 
1.7499999999998237, -0.5420878103630963 
1.7599999999998226, -0.542332799514021 
1.7699999999998215, -0.5424955250939018 
1.7799999999998204, -0.5425776310775674 
1.7899999999998193, -0.5425799452659523 
1.7999999999998182, -0.5425009951119001 
1.809999999999817, -0.5423360810092821 
1.819999999999816, -0.5420775629008804 
1.8299999999998149, -0.5417169396133714 
1.8399999999998138, -0.5412490592982163 
1.8499999999998127, -0.540677751383557 
1.8599999999998116, -0.5400203496587668 
1.8699999999998105, -0.5393075194016282 
1.8799999999998094, -0.5385766818893539 
1.8899999999998083, -0.5378617143244164 
1.8999999999998072, -0.5371844829750453 
1.909999999999806, -0.5365522418558071 
1.919999999999805, -0.5359608706686427 
1.9299999999998039, -0.5354010105938474 
1.9399999999998028, -0.534863866406061 
1.9499999999998017, -0.5343449535800155 
1.9599999999998006, -0.5338458661730245 
1.9699999999997995, -0.5333751674217263 
1.9799999999997984, -0.5329496085907218 
1.9899999999997973, -0.5325965278534713 
1.9999999999997962, -0.532357928399296 
2.0099999999998173, -0.5322965137953536 
2.0199999999998384, -0.5325037041365583 
2.0299999999998595, -0.5331089731270757 
2.0399999999998806, -0.5342880226847024 
2.0499999999999017, -0.5362632227598475 
2.059999999999923, -0.5392824589640411 
2.069999999999944, -0.54355459634906 
2.079999999999965, -0.5491252614446932 
2.089999999999986, -0.555724651159161 
2.100000000000007, -0.5627117707637949 
2.1100000000000283, -0.5692585014198075 
2.1200000000000494, -0.574710035061216 
2.1300000000000705, -0.5788232363790747 
2.1400000000000916, -0.5817134998510145 
2.1500000000001127, -0.5836525372433925 
2.160000000000134, -0.584911395088352 
2.170000000000155, -0.5856990862321482 
2.180000000000176, -0.5861586541360367 
2.190000000000197, -0.5863814209226347 
2.2000000000002182, -0.5864214785606797 
2.2100000000002393, -0.5863057639253066 
2.2200000000002604, -0.5860399008525076 
2.2300000000002815, -0.5856112745201723 
2.2400000000003026, -0.5849913787295105 
2.2500000000003237, -0.5841403230829963 
2.260000000000345, -0.5830170767052625 
2.270000000000366, -0.5815975128136359 
2.280000000000387, -0.5798961401262388 
2.290000000000408, -0.5779788222957369 
2.3000000000004293, -0.5759533293747684 
2.3100000000004504, -0.5739392901868245 
2.3200000000004715, -0.5720358817402563 
2.3300000000004926, -0.5703050200390962 
2.3400000000005137, -0.5687729490118587 
2.3500000000005348, -0.5674418420797065 
2.360000000000556, -0.5663023868073837 
2.370000000000577, -0.565342877386483 
2.380000000000598, -0.5645542570467 
2.390000000000619, -0.5639322441471748 
2.4000000000006403, -0.5634778634069296 
2.4100000000006614, -0.5631973389789007 
2.4200000000006825, -0.5631019094957046 
2.4300000000007036, -0.563207841271852 
2.4400000000007247, -0.563536702942677 
2.450000000000746, -0.5641157214977919 
2.460000000000767, -0.5649776533516723 
2.470000000000788, -0.5661589796992316 
2.480000000000809, -0.5676943972556537 
2.49000000000083, -0.569604962446006 
2.5000000000008513, -0.5718782227761967 
2.5100000000008724, -0.5744436196605143 
2.5200000000008935, -0.5771563175599114 
2.5300000000009146, -0.5798103244807594 
2.5400000000009357, -0.5821907212161663 
2.550000000000957, -0.5841415051017671 
2.560000000000978, -0.5856044038443915 
2.570000000000999, -0.5866078747834933 
2.58000000000102, -0.5872265519278619 
2.5900000000010412, -0.5875425854703086 
2.6000000000010624, -0.5876233639684793 
2.6100000000010835, -0.5875133987493304 
2.6200000000011046, -0.587233039411612 
2.6300000000011257, -0.5867782891842864 
2.6400000000011468, -0.586118558847237 
2.650000000001168, -0.5851909453635091 
2.660000000001189, -0.5838912663050169 
2.67000000000121, -0.5820656257631869 
2.680000000001231, -0.5795142574235862 
2.6900000000012523, -0.5760307268415542 
2.7000000000012734, -0.5714984975706964 
2.7100000000012945, -0.5660216596591249 
2.7200000000013156, -0.5599872184833891 
2.7300000000013367, -0.553959596897162 
2.740000000001358, -0.5484612529289836 
2.750000000001379, -0.5438091767672633 
2.7600000000014, -0.5400940537008242 
2.770000000001421, -0.5372521380473477 
2.780000000001442, -0.5351490620968316 
2.7900000000014633, -0.5336366889450525 
2.8000000000014844, -0.5325811055987613 
2.8100000000015055, -0.5318721492250107 
2.8200000000015266, -0.5314238860432211 
2.8300000000015477, -0.5311716400970641 
2.840000000001569, -0.5310682618966036 
2.85000000000159, -0.5310807363932438 
2.860000000001611, -0.5311874974048907 
2.870000000001632, -0.5313764890415114 
2.8800000000016532, -0.5316437913787325 
2.8900000000016743, -0.5319923352539947 
2.9000000000016954, -0.5324298506169749 
2.9100000000017165, -0.5329649439677187 
2.9200000000017377, -0.5336005590095378 
2.9300000000017588, -0.5343255338927685 
2.94000000000178, -0.5351074539371781 
2.950000000001801, -0.5358920392790419 
2.960000000001822, -0.5366129139044444 
2.970000000001843, -0.5372091825729379 
2.9800000000018643, -0.5376413333078499 
2.9900000000018854, -0.5378965409694054 
3.0000000000019065, -0.5379826548240387 
3.0100000000019276, -0.5379170686796806 
3.0200000000019487, -0.5377166995973217 
3.03000000000197, -0.5373914279658619 
3.040000000001991, -0.5369402224567089 
3.050000000002012, -0.536348058246559 
3.060000000002033, -0.5355816751174978 
3.070000000002054, -0.5345822179226001 
3.0800000000020753, -0.5332526815944092 
3.0900000000020964, -0.5314391129220479 
3.1000000000021175, -0.5289110482512804 
3.1100000000021386, -0.5253665990310539 
3.1200000000021597, -0.5205183025702114 
3.130000000002181, -0.5143018857067805 
3.140000000002202, -0.5071009471053026 
3.150000000002223, -0.49971694664859967 
3.160000000002244, -0.49300508668256393 
3.1700000000022652, -0.4874992620172585 
3.1800000000022863, -0.48332296579947787 
3.1900000000023074, -0.4803275967695009 
3.2000000000023285, -0.478262813165413 
3.2100000000023496, -0.4768820699570317 
3.2200000000023707, -0.4759842634778721 
3.230000000002392, -0.47541990476092383 
3.240000000002413, -0.4750835460662753 
3.250000000002434, -0.4749033183636229 
3.260000000002455, -0.47483170507693284 
3.2700000000024763, -0.474838612674403 
3.2800000000024974, -0.4749066749052112 
3.2900000000025185, -0.4750283881803184 
3.3000000000025396, -0.4752045217973335 
3.3100000000025607, -0.47544300827795094 
3.3200000000025818, -0.47575717915723575 
3.330000000002603, -0.4761620343040468 
3.340000000002624, -0.4766676925754843 
3.350000000002645, -0.47727066139535845 
3.360000000002666, -0.47794596348306334 
3.3700000000026873, -0.47864524236761785 
3.3800000000027084, -0.4793050488284143 
3.3900000000027295, -0.47986365914846063 
3.4000000000027506, -0.4802776364074307 
3.4100000000027717, -0.48052882090970217 
3.420000000002793, -0.48061992328760333 
3.430000000002814, -0.48056416214891096 
3.440000000002835, -0.4803751516683755 
3.450000000002856, -0.4800596937126981 
3.460000000002877, -0.47961287883830606 
3.4700000000028983, -0.4790135360871089 
3.4800000000029194, -0.4782178564140735 
3.4900000000029405, -0.47714917760789255 
3.5000000000029616, -0.47568288453664237 
3.5100000000029827, -0.47362969565777246 
3.520000000003004, -0.4707333571158065 
3.530000000003025, -0.466720969541239 
3.540000000003046, -0.4614478589299372 
3.550000000003067, -0.4550966740003387 
3.5600000000030882, -0.4482432359630435 
3.5700000000031094, -0.4416407218012922 
3.5800000000031305, -0.43588114716487586 
3.5900000000031516, -0.4312240215963944 
3.6000000000031727, -0.42764940350062625 
3.6100000000031938, -0.4249954261196329 
3.620000000003215, -0.4230664014462923 
3.630000000003236, -0.42168679461833813 
3.640000000003257, -0.4207181359695548 
3.650000000003278, -0.42005856222829585 
3.6600000000032993, -0.41963669095536515 
3.6700000000033204, -0.41940503797395384 
3.6800000000033415, -0.4193347742938152 
3.6900000000033626, -0.4194121782476695 
3.7000000000033837, -0.41963661667598917 
3.710000000003405, -0.4200196684955338 
3.720000000003426, -0.42058474648505256 
3.730000000003447, -0.42136607967623646 
3.740000000003468, -0.4224051176074606 
3.750000000003489, -0.4237415348506344 
3.7600000000035103, -0.42539602850192937 
3.7700000000035314, -0.4273452964657823 
3.7800000000035525, -0.42949842238891006 
3.7900000000035736, -0.43169485213435455 
3.8000000000035947, -0.43374125345513814 
3.810000000003616, -0.43547529313799566 
3.820000000003637, -0.4368142892485721 
3.830000000003658, -0.4377584201334779 
3.840000000003679, -0.4383591554397107 
3.8500000000037002, -0.43868290317473335 
3.8600000000037213, -0.43878761131194716 
3.8700000000037424, -0.4387129485507614 
3.8800000000037635, -0.4384779913049569 
3.8900000000037847, -0.4380812116452063 
3.9000000000038058, -0.43750031685231966 
3.910000000003827, -0.4366920576609078 
3.920000000003848, -0.4355947685278112 
3.930000000003869, -0.43413929040976174 
3.94000000000389, -0.4322745551896111 
3.9500000000039113, -0.43000621711386655 
3.9600000000039324, -0.4274280319475772 
3.9700000000039535, -0.4247143358374486 
3.9800000000039746, -0.42206567178345955 
3.9900000000039957, -0.41964277082197265 
4.000000000004016, -0.41753193251513937 
4.010000000003993, -0.41575062928057627 
4.02000000000397, -0.4142733670855889 
4.030000000003946, -0.4130573022036875 
4.040000000003923, -0.4120591767428595 
4.0500000000039, -0.4112438588663472 
4.0600000000038765, -0.4105875899266497 
4.070000000003853, -0.4100788215150044 
4.08000000000383, -0.40971856208641766 
4.090000000003807, -0.40952134934813306 
4.100000000003783, -0.4095174949439785 
4.11000000000376, -0.4097570144547674 
4.120000000003737, -0.41031544043012175 
4.130000000003713, -0.4113011423579807 
4.14000000000369, -0.4128621322792435 
4.150000000003667, -0.4151863763837116 
4.1600000000036434, -0.41848207170727847 
4.17000000000362, -0.4229153064505969 
4.180000000003597, -0.4284871888038527 
4.1900000000035735, -0.43488494232260927 
4.20000000000355, -0.44144429297941745 
4.210000000003527, -0.4473693987272268 
4.220000000003504, -0.4521059318811854 
4.23000000000348, -0.45553305031263164 
4.240000000003457, -0.45784917275009585 
4.250000000003434, -0.4593520597183006 
4.26000000000341, -0.460301143017573 
4.270000000003387, -0.46087994530154086 
4.280000000003364, -0.4612060446192273 
4.2900000000033405, -0.4613506427538893 
4.300000000003317, -0.4613542505033201 
4.310000000003294, -0.461236831420411 
4.320000000003271, -0.4610041147676379 
4.330000000003247, -0.4606522418054574 
4.340000000003224, -0.4601727499409548 
4.350000000003201, -0.4595593656617649 
4.360000000003177, -0.4588165229000457 
4.370000000003154, -0.4579667221223649 
4.380000000003131, -0.45705167948248315 
4.390000000003107, -0.45612416331270966 
4.400000000003084, -0.4552336701877879 
4.410000000003061, -0.4544138135545063 
4.4200000000030375, -0.45367746720613067 
4.430000000003014, -0.45301994772204274 
4.440000000002991, -0.45242651875647094 
4.450000000002968, -0.45188009353564773 
4.460000000002944, -0.45136667561923016 
4.470000000002921, -0.45087807788145806 
4.480000000002898, -0.450412829945858 
4.490000000002874, -0.4499766360751569 
4.500000000002851, -0.4495835580973336 
4.510000000002828, -0.4492587594059846 
4.520000000002804, -0.4490434429973741 
4.530000000002781, -0.44900249223648914 
4.540000000002758, -0.44923486007565633 
4.5500000000027345, -0.44988498276192807 
4.560000000002711, -0.45114851812948437 
4.570000000002688, -0.4532550661529523 
4.580000000002665, -0.45639613982791377 
4.590000000002641, -0.4605710040010423 
4.600000000002618, -0.46540198267249566 
4.610000000002595, -0.4701276242798736 
4.620000000002571, -0.47396103741526935 
4.630000000002548, -0.4765606893747666 
4.640000000002525, -0.4781071000471039 
4.6500000000025015, -0.4789902903991613 
4.660000000002478, -0.4795280279172462 
4.670000000002455, -0.4798948906015871 
4.6800000000024315, -0.48016513442335373 
4.690000000002408, -0.48036484239431143 
4.700000000002385, -0.48050207952537755 
4.710000000002362, -0.4805793192318206 
4.720000000002338, -0.4805971342637377 
4.730000000002315, -0.48055470971102726 
4.740000000002292, -0.4804497655646113 
4.750000000002268, -0.4802790501341298 
4.760000000002245, -0.48003999777107154 
4.770000000002222, -0.47973368360930585 
4.7800000000021985, -0.4793683503350854 
4.790000000002175, -0.47896162040745105 
4.800000000002152, -0.47853907113015703 
4.810000000002129, -0.47812835370487655 
4.820000000002105, -0.4777509857534432 
4.830000000002082, -0.47741585319141083 
4.840000000002059, -0.4771175829221244 
4.850000000002035, -0.47684018207586465 
4.860000000002012, -0.47656370953286975 
4.870000000001989, -0.4762706598186214 
4.880000000001965, -0.4759496262035765 
4.890000000001942, -0.47559587667563036 
4.900000000001919, -0.4752101449889733 
