t, s[1].omega / s[0].omega 
0, -1.8099969561672506 
0.009999999999999995, -1.809537253616277 
0.019999999999999934, -1.808764364369302 
0.029999999999999874, -1.8076707171482944 
0.04000000000000012, -1.8062806956047204 
0.050000000000000405, -1.804720375036774 
0.06000000000000069, -1.8032862128808638 
0.07000000000000098, -1.8023427785994042 
0.08000000000000126, -1.8019905545880597 
0.09000000000000155, -1.801966607137895 
0.10000000000000184, -1.801956436733996 
0.11000000000000212, -1.8017958112060353 
0.12000000000000241, -1.8014218147122965 
0.130000000000002, -1.8007903560254692 
0.1400000000000009, -1.7998717390324803 
0.1499999999999998, -1.7987839948016329 
0.1599999999999987, -1.7980584591053226 
0.1699999999999976, -1.798542376347525 
0.1799999999999965, -1.8004328493923336 
0.1899999999999954, -1.802878231673996 
0.1999999999999943, -1.8049765784008909 
0.2099999999999932, -1.8063924617997338 
0.2199999999999921, -1.8071647889739733 
0.229999999999991, -1.8074344447085848 
0.2399999999999899, -1.807328343803468 
0.2499999999999888, -1.8069369973278913 
0.2599999999999877, -1.8063267584212768 
0.2699999999999866, -1.8055633945072578 
0.2799999999999855, -1.8047356097814724 
0.2899999999999844, -1.8039674859626267 
0.2999999999999833, -1.8033942742843525 
0.3099999999999822, -1.8030742864882825 
0.3199999999999811, -1.8029225506115083 
0.32999999999998, -1.8027806902924097 
0.3399999999999789, -1.802516418410359 
0.3499999999999778, -1.8020281949619765 
0.35999999999997667, -1.80119274886599 
0.36999999999997557, -1.7998275606464176 
0.37999999999997447, -1.797768619706622 
0.38999999999997337, -1.7952885555373972 
0.39999999999997227, -1.7937569669312494 
0.40999999999997117, -1.794869489489993 
0.41999999999997006, -1.7981865467600027 
0.42999999999996896, -1.8016486844881967 
0.43999999999996786, -1.804073046070739 
0.44999999999996676, -1.8054145042832341 
0.45999999999996566, -1.8059871105356398 
0.46999999999996456, -1.806069848069574 
0.47999999999996346, -1.805842385731454 
0.48999999999996235, -1.8054203051717477 
0.49999999999996125, -1.8049008158285793 
0.5099999999999602, -1.8043857324240307 
0.519999999999959, -1.8039650110712953 
0.529999999999958, -1.8036852714342335 
0.5399999999999568, -1.8035358113881164 
0.5499999999999557, -1.8034490149216569 
0.5599999999999546, -1.803323777005603 
0.5699999999999535, -1.8030588779709285 
0.5799999999999524, -1.8025523193402015 
0.5899999999999513, -1.8016635122518632 
0.5999999999999502, -1.8001657125209611 
0.6099999999999491, -1.7977393378385726 
0.619999999999948, -1.794162248488195 
0.6299999999999469, -1.789951834402062 
0.6399999999999458, -1.7869451566273233 
0.6499999999999447, -1.7867628562353772 
0.6599999999999436, -1.7885411940497957 
0.6699999999999425, -1.7904251931293307 
0.6799999999999414, -1.7916160805787276 
0.6899999999999403, -1.7921442851491416 
0.6999999999999392, -1.7922195124035274 
0.7099999999999381, -1.7920031651502424 
0.719999999999937, -1.7916040144551537 
0.7299999999999359, -1.7911300468140983 
0.7399999999999348, -1.7907259781298983 
0.7499999999999337, -1.790530421254712 
0.7599999999999326, -1.790572952202811 
0.7699999999999315, -1.7907593291949986 
0.7799999999999304, -1.7909579080779152 
0.7899999999999293, -1.791060483311392 
0.7999999999999282, -1.7909892879284137 
0.8099999999999271, -1.790680896977248 
0.819999999999926, -1.7900628574267468 
0.8299999999999249, -1.7890335029960016 
0.8399999999999238, -1.787458371008422 
0.8499999999999227, -1.7852141273803501 
0.8599999999999216, -1.7823460647865315 
0.8699999999999205, -1.77935352527683 
0.8799999999999194, -1.777207544133002 
0.8899999999999183, -1.7765065337295944 
0.8999999999999172, -1.7767848690807853 
0.9099999999999161, -1.7772413299532794 
0.919999999999915, -1.7774805674432383 
0.9299999999999139, -1.7774414482135434 
0.9399999999999128, -1.777158886228523 
0.9499999999999117, -1.776672870477904 
0.9599999999999106, -1.7760532295077343 
0.9699999999999095, -1.7754897720637992 
0.9799999999999084, -1.7753204139767635 
0.9899999999999073, -1.7757867451876255 
0.9999999999999062, -1.776737938232013 
1.0099999999999052, -1.777784591099394 
1.019999999999904, -1.7786325676163781 
1.029999999999903, -1.7791647812356584 
1.039999999999902, -1.7793654530941783 
1.0499999999999008, -1.7792505776902328 
1.0599999999998997, -1.7788353589071169 
1.0699999999998986, -1.7781259054663525 
1.0799999999998975, -1.7771275120126795 
1.0899999999998964, -1.7758721502225323 
1.0999999999998953, -1.7744709006559716 
1.1099999999998942, -1.773164823301288 
1.119999999999893, -1.7722559824576667 
1.129999999999892, -1.7718574252504307 
1.1399999999998909, -1.7717776067463806 
1.1499999999998898, -1.7717405214360007 
1.1599999999998887, -1.7715779806354621 
1.1699999999998876, -1.7712131388550822 
1.1799999999998865, -1.7705863626959641 
1.1899999999998854, -1.7696328392743161 
1.1999999999998843, -1.7683791041918695 
1.2099999999998832, -1.7672323584996932 
1.219999999999882, -1.7671568631652381 
1.229999999999881, -1.768849233113961 
1.2399999999998799, -1.7716720974271596 
1.2499999999998788, -1.774396671928935 
1.2599999999998777, -1.7763694260518992 
1.2699999999998766, -1.7775403499341582 
1.2799999999998755, -1.778080509561749 
1.2899999999998744, -1.7781687828895596 
1.2999999999998733, -1.7779363638123704 
1.3099999999998722, -1.7774738403297392 
1.319999999999871, -1.7768559379709068 
1.32999999999987, -1.7761646403164448 
1.3399999999998689, -1.775497639219612 
1.3499999999998678, -1.7749565162733922 
1.3599999999998666, -1.77460670269915 
1.3699999999998655, -1.774422344520742 
1.3799999999998644, -1.7742914821109892 
1.3899999999998633, -1.7740871031220493 
1.3999999999998622, -1.7737034520948316 
1.4099999999998611, -1.7730268271698706 
1.41999999999986, -1.7718831227950596 
1.429999999999859, -1.7700134804004128 
1.4399999999998578, -1.7672077285893064 
1.4499999999998567, -1.7638615823987496 
1.4599999999998556, -1.761663338512074 
1.4699999999998545, -1.7623921575543857 
1.4799999999998534, -1.765337864183325 
1.4899999999998523, -1.76836415892394 
1.4999999999998512, -1.7704030044335695 
1.5099999999998501, -1.7714706363048702 
1.519999999999849, -1.7718719603273954 
1.529999999999848, -1.7718564834249082 
1.5399999999998468, -1.7715805174944717 
1.5499999999998457, -1.77115151206639 
1.5599999999998446, -1.770675557194226 
1.5699999999998435, -1.7702693872589617 
1.5799999999998424, -1.770017143056581 
1.5899999999998413, -1.7699248800598688 
1.5999999999998402, -1.7699323003142056 
1.6099999999998391, -1.7699496046210192 
1.619999999999838, -1.7698840857990454 
1.629999999999837, -1.7696520811922654 
1.6399999999998358, -1.769168381692508 
1.6499999999998347, -1.768318387757245 
1.6599999999998336, -1.7669306468045431 
1.6699999999998325, -1.7647791364185028 
1.6799999999998314, -1.7616913665287601 
1.6899999999998303, -1.7578902785193276 
1.6999999999998292, -1.7544259061090117 
1.709999999999828, -1.752692889595329 
1.719999999999827, -1.752845590453688 
1.729999999999826, -1.753755037947202 
1.7399999999998248, -1.754509390932077 
1.7499999999998237, -1.7548641286444056 
1.7599999999998226, -1.754871151782434 
1.7699999999998215, -1.7546194440210425 
1.7799999999998204, -1.754179846091788 
1.7899999999998193, -1.7536430700765036 
1.7999999999998182, -1.7531839200900077 
1.809999999999817, -1.753043970931649 
1.819999999999816, -1.7533457844392342 
1.8299999999998149, -1.7539554915539142 
1.8399999999998138, -1.754618439699732 
1.8499999999998127, -1.7551428471758723 
1.8599999999998116, -1.7554360173613681 
1.8699999999998105, -1.7554634777760902 
1.8799999999998094, -1.7552098818218362 
1.8899999999998083, -1.7546577084004233 
1.8999999999998072, -1.7537813269157971 
1.909999999999806, -1.7525572058474985 
1.919999999999805, -1.7510002843781518 
1.9299999999998039, -1.74923953675382 
1.9399999999998028, -1.7475944067509317 
1.9499999999998017, -1.7464761718779123 
1.9599999999998006, -1.7460346839572658 
1.9699999999997995, -1.7460119396040692 
1.9799999999997984, -1.7460554343771322 
1.9899999999997973, -1.7459687417674927 
1.9999999999997962, -1.7456826305961528 
2.0099999999998173, -1.7451618100875312 
2.0199999999998384, -1.7443726792525225 
2.0299999999998595, -1.7433518342986303 
2.0399999999998806, -1.7424128503052738 
2.0499999999999017, -1.7422838365034337 
2.059999999999923, -1.7435620745819267 
2.069999999999944, -1.7458804480541386 
2.079999999999965, -1.7482845677554253 
2.089999999999986, -1.7501474827112478 
2.100000000000007, -1.7513317923930352 
2.1100000000000283, -1.7519318694661827 
2.1200000000000494, -1.7520849599872133 
2.1300000000000705, -1.7519041812781009 
2.1400000000000916, -1.7514713268137219 
2.1500000000001127, -1.7508520053184615 
2.160000000000134, -1.750116898228001 
2.170000000000155, -1.7493576210743231 
2.180000000000176, -1.7486869256325146 
2.190000000000197, -1.748207333446101 
2.2000000000002182, -1.7479423630022328 
2.2100000000002393, -1.7478032499698006 
2.2200000000002604, -1.7476524842589964 
2.2300000000002815, -1.7473734840253639 
2.2400000000003026, -1.7468667336997137 
2.2500000000003237, -1.7460020621197014 
2.260000000000345, -1.7445761450640025 
2.270000000000366, -1.7423475459768027 
2.280000000000387, -1.7393448548254398 
2.290000000000408, -1.7365712956798958 
2.3000000000004293, -1.7359857785771375 
2.3100000000004504, -1.7382382875639508 
2.3200000000004715, -1.7415962544482881 
2.3300000000004926, -1.7443257572026671 
2.3400000000005137, -1.7459771318703736 
2.3500000000005348, -1.7467706232696565 
2.360000000000556, -1.7470047923396816 
2.370000000000577, -1.746888748658701 
2.380000000000598, -1.7465530481019484 
2.390000000000619, -1.7460976408277662 
2.4000000000006403, -1.7456297536197845 
2.4100000000006614, -1.7452591473168695 
2.4200000000006825, -1.7450492067636816 
2.4300000000007036, -1.7449869092391836 
2.4400000000007247, -1.7450040386900418 
2.450000000000746, -1.7450101388735586 
2.460000000000767, -1.7449158064890615 
2.470000000000788, -1.7446404155901463 
2.480000000000809, -1.7440975608929772 
2.49000000000083, -1.7431677204194849 
2.5000000000008513, -1.741676194809573 
2.5100000000008724, -1.7394076273631316 
2.5200000000008935, -1.7362345291650072 
2.5300000000009146, -1.7324626998726878 
2.5400000000009357, -1.7291731205299736 
2.550000000000957, -1.7276158897163794 
2.560000000000978, -1.727794061677771 
2.570000000000999, -1.7286288200589657 
2.58000000000102, -1.7293067648037728 
2.5900000000010412, -1.7296134466412414 
2.6000000000010624, -1.729593960259728 
2.6100000000010835, -1.7293260663801253 
2.6200000000011046, -1.728872573375644 
2.6300000000011257, -1.7283196873773772 
2.6400000000011468, -1.7278448176976595 
2.650000000001168, -1.727707574752777 
2.660000000001189, -1.7280578421194321 
2.67000000000121, -1.7287670884914927 
2.680000000001231, -1.7295555667922315 
2.6900000000012523, -1.7302039461755292 
2.7000000000012734, -1.7306075515893944 
2.7100000000012945, -1.7307334972102013 
2.7200000000013156, -1.7305757648059643 
2.7300000000013367, -1.730130781533773 
2.740000000001358, -1.7293896654542393 
2.750000000001379, -1.7283444890439879 
2.7600000000014, -1.72701284958527 
2.770000000001421, -1.7254885470420365 
2.780000000001442, -1.724001079899247 
2.7900000000014633, -1.7228797079884948 
2.8000000000014844, -1.7223184829847102 
2.8100000000015055, -1.7221845433439114 
2.8200000000015266, -1.7221820601449742 
2.8300000000015477, -1.722098522320854 
2.840000000001569, -1.7218386540887078 
2.85000000000159, -1.7213498744161342 
2.860000000001611, -1.7205729616176981 
2.870000000001632, -1.7194694354535134 
2.8800000000016532, -1.7181948119065207 
2.8900000000016743, -1.7173951001014014 
2.9000000000016954, -1.7180476351202985 
2.9100000000017165, -1.7203599650067176 
2.9200000000017377, -1.723341615488399 
2.9300000000017588, -1.725924749420989 
2.94000000000178, -1.7276979876731307 
2.950000000001801, -1.7287102852311018 
2.960000000001822, -1.72914445893176 
2.970000000001843, -1.729168004647256 
2.9800000000018643, -1.728901412383853 
2.9900000000018854, -1.7284306734356094 
3.0000000000019065, -1.7278313867614208 
3.0100000000019276, -1.7271873276190965 
3.0200000000019487, -1.726591073983565 
3.03000000000197, -1.7261261845873528 
3.040000000001991, -1.725833721442085 
3.050000000002012, -1.7256773906223355 
3.060000000002033, -1.7255553975932767 
3.070000000002054, -1.725354874316492 
3.0800000000020753, -1.724977144644215 
3.0900000000020964, -1.7243121488774587 
3.1000000000021175, -1.723191543206461 
3.1100000000021386, -1.7213555901026816 
3.1200000000021597, -1.7185191040070353 
3.130000000002181, -1.7147488914042395 
3.140000000002202, -1.71118705644814 
3.150000000002223, -1.7098379561910346 
3.160000000002244, -1.7112573846347268 
3.1700000000022652, -1.713792091061886 
3.1800000000022863, -1.7158801423548014 
3.1900000000023074, -1.71711388699994 
3.2000000000023285, -1.7176606620771935 
3.2100000000023496, -1.7177545265116785 
3.2200000000023707, -1.7175587772769867 
3.230000000002392, -1.717180340366129 
3.240000000002413, -1.7167181469218 
3.250000000002434, -1.7162993272601021 
3.260000000002455, -1.716055456620753 
3.2700000000024763, -1.7160399295080329 
3.2800000000024974, -1.7161928782916536 
3.2900000000025185, -1.716398678353043 
3.3000000000025396, -1.7165482940231924 
3.3100000000025607, -1.716559164382859 
3.3200000000025818, -1.716368825567007 
3.330000000002603, -1.7159178571872808 
3.340000000002624, -1.7151325071839505 
3.350000000002645, -1.7139166359081 
3.360000000002666, -1.71216640232017 
3.3700000000026873, -1.7098368566053916 
3.3800000000027084, -1.7070979032135856 
3.3900000000027295, -1.7045074146374233 
3.4000000000027506, -1.702828047833163 
3.4100000000027717, -1.7023278041802559 
3.420000000002793, -1.7025290567173623 
3.430000000002814, -1.7028351412592868 
3.440000000002835, -1.7029616964620096 
3.450000000002856, -1.7028535146299422 
3.460000000002877, -1.702521646062874 
3.4700000000028983, -1.7019804264336862 
3.4800000000029194, -1.7012737502750075 
3.4900000000029405, -1.700577773512275 
3.5000000000029616, -1.7002893421335052 
3.5100000000029827, -1.7008220684103734 
3.520000000003004, -1.7021453742370756 
3.530000000003025, -1.7037702607186684 
3.540000000003046, -1.7052158958055812 
3.550000000003067, -1.7062584899673303 
3.5600000000030882, -1.7068672232618671 
3.5700000000031094, -1.707088688660398 
3.5800000000031305, -1.7069828404058682 
3.5900000000031516, -1.7066007860447499 
3.6000000000031727, -1.7059843783615567 
3.6100000000031938, -1.7051781476542782 
3.620000000003215, -1.7042488660472697 
3.630000000003236, -1.7033054610132807 
3.640000000003257, -1.7024984082097343 
3.650000000003278, -1.7019586994422067 
3.6600000000032993, -1.7016936100009084 
3.6700000000033204, -1.7015734036977797 
3.6800000000033415, -1.7014378360172302 
3.6900000000033626, -1.7011708008381798 
3.7000000000033837, -1.7006836253262514 
3.710000000003405, -1.6998649664271386 
3.720000000003426, -1.698548719839452 
3.730000000003447, -1.6965674687293908 
3.740000000003468, -1.6940547718008585 
3.750000000003489, -1.6920189153527516 
3.7600000000035103, -1.6921419523945698 
3.7700000000035314, -1.6948126861051023 
3.7800000000035525, -1.69841359394067 
3.7900000000035736, -1.7013641678244535 
3.8000000000035947, -1.7032197642092903 
3.810000000003616, -1.7041743016325426 
3.820000000003637, -1.704523475590623 
3.830000000003658, -1.7044868850438726 
3.840000000003679, -1.70420381360564 
3.8500000000037002, -1.7037727415905977 
3.8600000000037213, -1.7032896792413457 
3.8700000000037424, -1.7028588944558538 
3.8800000000037635, -1.702561738389194 
3.8900000000037847, -1.702418667770776 
3.9000000000038058, -1.7023890365291634 
3.910000000003827, -1.702395229014775 
3.920000000003848, -1.7023480356557124 
3.930000000003869, -1.702164487769322 
3.94000000000389, -1.7017653197488412 
3.9500000000039113, -1.70105359815519 
3.9600000000039324, -1.699889860389817 
3.9700000000039535, -1.698083715439288 
3.9800000000039746, -1.6954440348315185 
3.9900000000039957, -1.691973625953994 
4.000000000004016, -1.688234742778814 
4.010000000003993, -1.685433822120758 
4.02000000000397, -1.684458898725009 
4.030000000003946, -1.6848797882429611 
4.040000000003923, -1.6856634482221107 
4.0500000000039, -1.6862164789041265 
4.0600000000038765, -1.6864230351994902 
4.070000000003853, -1.686336631481278 
4.08000000000383, -1.6860217465429677 
4.090000000003807, -1.685531802777729 
4.100000000003783, -1.6849548846036477 
4.11000000000376, -1.6844841770071184 
4.120000000003737, -1.6844024723838036 
4.130000000003713, -1.6848713996394094 
4.14000000000369, -1.6857474378418984 
4.150000000003667, -1.686717438214485 
4.1600000000036434, -1.6875337769174243 
4.17000000000362, -1.688080842495878 
4.180000000003597, -1.688329184613611 
4.1900000000035735, -1.6882844643495516 
4.20000000000355, -1.6879595035501989 
4.210000000003527, -1.6873645974412619 
4.220000000003504, -1.686510566419782 
4.23000000000348, -1.6854242014228091 
4.240000000003457, -1.6841780264881154 
4.250000000003434, -1.682926141512492 
4.26000000000341, -1.681897508413897 
4.270000000003387, -1.681273127847638 
4.280000000003364, -1.6810263379927797 
4.2900000000033405, -1.6809555608058642 
4.300000000003317, -1.6808616444217965 
4.310000000003294, -1.6806276423233737 
4.320000000003271, -1.6801814640982902 
4.330000000003247, -1.6794409544172608 
4.340000000003224, -1.6782964885426161 
4.350000000003201, -1.6766930786534282 
4.360000000003177, -1.6749272946233185 
4.370000000003154, -1.6740176603738128 
4.380000000003131, -1.6751794170800203 
4.390000000003107, -1.6782705575487977 
4.400000000003084, -1.6818093688894602 
4.410000000003061, -1.6846160626535756 
4.4200000000030375, -1.6864039631207508 
4.430000000003014, -1.6873520007538043 
4.440000000002991, -1.687715830914804 
4.450000000002968, -1.6876929022943727 
4.460000000002944, -1.6874141375356557 
4.470000000002921, -1.6869726847634794 
4.480000000002898, -1.6864551048006444 
4.490000000002874, -1.6859543727654658 
4.500000000002851, -1.6855526247011643 
4.510000000002828, -1.6852921609274412 
4.520000000002804, -1.685162116237135 
4.530000000002781, -1.6851021346150747 
4.540000000002758, -1.6850231130298803 
4.5500000000027345, -1.6848349298748182 
4.560000000002711, -1.684452503853763 
4.570000000002688, -1.6837744516913677 
4.580000000002665, -1.6826514647974171 
4.590000000002641, -1.6808663379226292 
4.600000000002618, -1.6781721517359194 
4.610000000002595, -1.6744958326825081 
4.620000000002571, -1.670381697046094 
4.630000000002548, -1.667208633542782 
4.640000000002525, -1.6661493654839776 
4.6500000000025015, -1.6668128453808062 
4.660000000002478, -1.6679460674938216 
4.670000000002455, -1.6687875948435131 
4.6800000000024315, -1.6691906313793115 
4.690000000002408, -1.6692365720290057 
4.700000000002385, -1.6690218237870016 
4.710000000002362, -1.6686166320049605 
4.720000000002338, -1.6680969775562127 
4.730000000002315, -1.6676035386034695 
4.740000000002292, -1.6673594101845812 
4.750000000002268, -1.6675473950638882 
4.760000000002245, -1.668134012498123 
4.770000000002222, -1.668896165298181 
4.7800000000021985, -1.6696034872777947 
4.790000000002175, -1.6701176132788553 
4.800000000002152, -1.6703807336523595 
4.810000000002129, -1.6703762797663155 
4.820000000002105, -1.6701010464584827 
4.830000000002082, -1.6695522952904127 
4.840000000002059, -1.6687267624957898 
4.850000000002035, -1.6676315114857683 
4.860000000002012, -1.666310436612806 
4.870000000001989, -1.664886701980021 
4.880000000001965, -1.6635897765962018 
4.890000000001942, -1.6626789265030095 
4.900000000001919, -1.662246332825593 
4.9100000000018955, -1.6621335857279238 
4.920000000001872, -1.662096642626406 
4.930000000001849, -1.661968865546872 
4.940000000001826, -1.6616663269163385 
