t, s[1].omega / s[0].omega 
0, -0.4199977776589354 
0.009999999999999995, -0.41980854668299267 
0.019999999999999934, -0.41967567776871106 
0.029999999999999874, -0.41957541218499894 
0.04000000000000012, -0.4194770001324327 
0.050000000000000405, -0.41935157311834415 
0.06000000000000069, -0.4191782053171574 
0.07000000000000098, -0.4189452944117571 
0.08000000000000126, -0.41864820961847427 
0.09000000000000155, -0.41828546406994604 
0.10000000000000184, -0.4178551060869108 
0.11000000000000212, -0.4173517504040424 
0.12000000000000241, -0.4167635726410815 
0.130000000000002, -0.41606761032784884 
0.1400000000000009, -0.41522021747811666 
0.1499999999999998, -0.41413694700423676 
0.1599999999999987, -0.4126537931873974 
0.1699999999999976, -0.4104685937018748 
0.1799999999999965, -0.4071023803759801 
0.1899999999999954, -0.4020096303924895 
0.1999999999999943, -0.39497136357523577 
0.2099999999999932, -0.3865455056372347 
0.2199999999999921, -0.3779577085443587 
0.229999999999991, -0.37038063709662306 
0.2399999999999899, -0.36438448587839517 
0.2499999999999888, -0.3599658899216436 
0.2599999999999877, -0.35684255884645993 
0.2699999999999866, -0.3546839640669236 
0.2799999999999855, -0.3532118380231223 
0.2899999999999844, -0.3522212754714902 
0.2999999999999833, -0.35157134685579405 
0.3099999999999822, -0.3511694281076344 
0.3199999999999811, -0.35095770965452006 
0.32999999999998, -0.3509036900980839 
0.3399999999999789, -0.3509943271590453 
0.3499999999999778, -0.3512330765539984 
0.35999999999997667, -0.35163903432315946 
0.36999999999997557, -0.3522472764211476 
0.37999999999997447, -0.3531089792351031 
0.38999999999997337, -0.3542888051151539 
0.39999999999997227, -0.35585535302658067 
0.40999999999997117, -0.35785917222808855 
0.41999999999997006, -0.3602955187628 
0.42999999999996896, -0.3630620114235753 
0.43999999999996786, -0.3659435820565179 
0.44999999999996676, -0.3686613506480985 
0.45999999999996566, -0.37097439014866873 
0.46999999999996456, -0.37276200388746694 
0.47999999999996346, -0.3740295143983591 
0.48999999999996235, -0.3748565189906783 
0.49999999999996125, -0.37534071129270197 
0.5099999999999602, -0.3755652869291342 
0.519999999999959, -0.37558811035417 
0.529999999999958, -0.37544179169665753 
0.5399999999999568, -0.37513695339514513 
0.5499999999999557, -0.3746657483208975 
0.5599999999999546, -0.3740060128803429 
0.5699999999999535, -0.3731284995893027 
0.5799999999999524, -0.37201016594838365 
0.5899999999999513, -0.3706535379719779 
0.5999999999999502, -0.36910446432263844 
0.6099999999999491, -0.36745383748124094 
0.619999999999948, -0.3658151831539272 
0.6299999999999469, -0.36428938266850014 
0.6399999999999458, -0.36293878114716466 
0.6499999999999447, -0.36178236045424916 
0.6599999999999436, -0.36080675701874754 
0.6699999999999425, -0.35998196340260796 
0.6799999999999414, -0.3592743293180935 
0.6899999999999403, -0.3586546074055753 
0.6999999999999392, -0.3581016765348133 
0.7099999999999381, -0.3576035983369722 
0.719999999999937, -0.357157729828379 
0.7299999999999359, -0.3567712690969077 
0.7399999999999348, -0.3564632123384718 
0.7499999999999337, -0.3562684349509557 
0.7599999999999326, -0.35624436749568716 
0.7699999999999315, -0.3564799356264737 
0.7799999999999304, -0.35710355218015166 
0.7899999999999293, -0.35827877358216875 
0.7999999999999282, -0.3601587729730779 
0.8099999999999271, -0.3627511444545627 
0.819999999999926, -0.36567943646669687 
0.8299999999999249, -0.36803178267824443 
0.8399999999999238, -0.3687307446158346 
0.8499999999999227, -0.3674056359237446 
0.8599999999999216, -0.36474411557758 
0.8699999999999205, -0.36181660052524556 
0.8799999999999194, -0.35932955859662163 
0.8899999999999183, -0.35749586565129154 
0.8999999999999172, -0.35624962807972566 
0.9099999999999161, -0.3554430226013655 
0.919999999999915, -0.3549383666644492 
0.9299999999999139, -0.35463315016353014 
0.9399999999999128, -0.3544584791156133 
0.9499999999999117, -0.35437101923911385 
0.9599999999999106, -0.35434556436662273 
0.9699999999999095, -0.3543699463354646 
0.9799999999999084, -0.3544422382568918 
0.9899999999999073, -0.3545697126016788 
0.9999999999999062, -0.35476876694633547 
1.0099999999999052, -0.3550646796211844 
1.019999999999904, -0.35548964838951863 
1.029999999999903, -0.35607737513010806 
1.039999999999902, -0.3568528839407242 
1.0499999999999008, -0.35781794482001766 
1.0599999999998997, -0.3589363348349979 
1.0699999999998986, -0.36012841406634977 
1.0799999999998975, -0.3612850817552666 
1.0899999999998964, -0.36229974830882916 
1.0999999999998953, -0.36310019935387905 
1.1099999999998942, -0.3636606185454394 
1.119999999999893, -0.36399140495608284 
1.129999999999892, -0.3641195335427342 
1.1399999999998909, -0.36407165753376425 
1.1499999999998898, -0.36386383420952695 
1.1599999999998887, -0.3634960725444799 
1.1699999999998876, -0.36294880202591134 
1.1799999999998865, -0.3621797450579552 
1.1899999999998854, -0.36112229671881024 
1.1999999999998843, -0.35969045969365254 
1.2099999999998832, -0.3577995734439592 
1.219999999999882, -0.3554099882731866 
1.229999999999881, -0.3525815068852698 
1.2399999999998799, -0.3494961598159578 
1.2499999999998788, -0.34641035749196825 
1.2599999999998777, -0.34355933826881035 
1.2699999999998766, -0.34108518246128433 
1.2799999999998755, -0.33902726373168923 
1.2899999999998744, -0.3373550193434771 
1.2999999999998733, -0.336007055205212 
1.3099999999998722, -0.3349182126663959 
1.319999999999871, -0.3340331938824133 
1.32999999999987, -0.3333114310844124 
1.3399999999998689, -0.3327277964463298 
1.3499999999998678, -0.3322722019378851 
1.3599999999998666, -0.3319498857788009 
1.3699999999998655, -0.3317835005812781 
1.3799999999998644, -0.33181789328230427 
1.3899999999998633, -0.3321284762648683 
1.3999999999998622, -0.3328339014921064 
1.4099999999998611, -0.33411229443696555 
1.41999999999986, -0.33621493605194913 
1.429999999999859, -0.3394567975013504 
1.4399999999998578, -0.34413567843208076 
1.4499999999998567, -0.3503128469553857 
1.4599999999998556, -0.3574792581741143 
1.4699999999998545, -0.3644367199735302 
1.4799999999998534, -0.36985418013315247 
1.4899999999998523, -0.37316593517853225 
1.4999999999998512, -0.3747570082769331 
1.5099999999998501, -0.37536251708966456 
1.519999999999849, -0.37554494670099875 
1.529999999999848, -0.3755915792842673 
1.5399999999998468, -0.37561084187554294 
1.5499999999998457, -0.37563012934360074 
1.5599999999998446, -0.37564892665392235 
1.5699999999998435, -0.3756604510953117 
1.5799999999998424, -0.37565859695247633 
1.5899999999998413, -0.3756395278062429 
1.5999999999998402, -0.37560198170403436 
1.6099999999998391, -0.37554784774143235 
1.619999999999838, -0.375483447554697 
1.629999999999837, -0.37542121863266364 
1.6399999999998358, -0.3753807718960465 
1.6499999999998347, -0.3753878058948692 
1.6599999999998336, -0.37546966603668397 
1.6699999999998325, -0.3756476466096396 
1.6799999999998314, -0.3759279012306486 
1.6899999999998303, -0.37629436123891236 
1.6999999999998292, -0.37670781071949844 
1.709999999999828, -0.37711385465621755 
1.719999999999827, -0.37745769449182864 
1.729999999999826, -0.3776982549830089 
1.7399999999998248, -0.37781426056526646 
1.7499999999998237, -0.37780094344936677 
1.7599999999998226, -0.3776616359815524 
1.7699999999998215, -0.3773989777445272 
1.7799999999998204, -0.3770076663876389 
1.7899999999998193, -0.37646805591377774 
1.7999999999998182, -0.3757386962413283 
1.809999999999817, -0.37474587848136176 
1.819999999999816, -0.3733697637252301 
1.8299999999998149, -0.3714321497667636 
1.8399999999998138, -0.36870432562036426 
1.8499999999998127, -0.36497113003422266 
1.8599999999998116, -0.3601751360257112 
1.8699999999998105, -0.3545708813202895 
1.8799999999998094, -0.3487141102548955 
1.8899999999998083, -0.3432228353945128 
1.8999999999998072, -0.33851271925164783 
1.909999999999806, -0.33471737777340704 
1.919999999999805, -0.33177166393134716 
1.9299999999998039, -0.32952730854493234 
1.9399999999998028, -0.327828876381899 
1.9499999999998017, -0.3265465166857913 
1.9599999999998006, -0.32558367750292827 
1.9699999999997995, -0.3248746725613166 
1.9799999999997984, -0.324379925338928 
1.9899999999997973, -0.32408217452463867 
1.9999999999997962, -0.32398483634391134 
2.0099999999998173, -0.3241129949826818 
2.0199999999998384, -0.3245173622281973 
2.0299999999998595, -0.325281514262482 
2.0399999999998806, -0.3265322213501822 
2.0499999999999017, -0.32845064203257335 
2.059999999999923, -0.3312763237931375 
2.069999999999944, -0.3352832515213514 
2.079999999999965, -0.340689621414853 
2.089999999999986, -0.3474682629655489 
2.100000000000007, -0.35512225873733977 
2.1100000000000283, -0.36267865553020817 
2.1200000000000494, -0.36911179903643787 
2.1300000000000705, -0.37389051901192644 
2.1400000000000916, -0.3770963007609463 
2.1500000000001127, -0.37912293022440785 
2.160000000000134, -0.3803721019179078 
2.170000000000155, -0.38113394541592616 
2.180000000000176, -0.3815888536804867 
2.190000000000197, -0.3818419946418973 
2.2000000000002182, -0.38195300437092766 
2.2100000000002393, -0.38195475475909013 
2.2200000000002604, -0.38186422495865574 
2.2300000000002815, -0.3816891698169548 
2.2400000000003026, -0.38143323482249913 
2.2500000000003237, -0.38110105016670065 
2.260000000000345, -0.3807035257181061 
2.270000000000366, -0.38026192002238185 
2.280000000000387, -0.3798080868056545 
2.290000000000408, -0.37937916647527165 
2.3000000000004293, -0.37900809108533673 
2.3100000000004504, -0.3787141040620695 
2.3200000000004715, -0.3784974995036422 
2.3300000000004926, -0.37834048133890186 
2.3400000000005137, -0.378213454757478 
2.3500000000005348, -0.3780840119553864 
2.360000000000556, -0.37792480438523024 
2.370000000000577, -0.3777173679230871 
2.380000000000598, -0.37745148766003506 
2.390000000000619, -0.37712179972601206 
2.4000000000006403, -0.3767236080314379 
2.4100000000006614, -0.3762488271157729 
2.4200000000006825, -0.3756816383658669 
2.4300000000007036, -0.37499225003724057 
2.4400000000007247, -0.37412575502032536 
2.450000000000746, -0.37298123313785336 
2.460000000000767, -0.37137562941885316 
2.470000000000788, -0.36899594356912985 
2.480000000000809, -0.36538183670380603 
2.49000000000083, -0.3600528334457621 
2.5000000000008513, -0.3528767180275645 
2.5100000000008724, -0.3444482370765184 
2.5200000000008935, -0.3359422669627935 
2.5300000000009146, -0.3284440634905014 
2.5400000000009357, -0.3224673281634717 
2.550000000000957, -0.317998463095868 
2.560000000000978, -0.31477130657232577 
2.570000000000999, -0.3124777638335877 
2.58000000000102, -0.31085890666987054 
2.5900000000010412, -0.3097241012509446 
2.6000000000010624, -0.3089426668358117 
2.6100000000010835, -0.308429967915134 
2.6200000000011046, -0.30813564114289105 
2.6300000000011257, -0.30803569280500176 
2.6400000000011468, -0.3081283208095814 
2.650000000001168, -0.3084329715887642 
2.660000000001189, -0.30899218706071785 
2.67000000000121, -0.30987566366700336 
2.680000000001231, -0.3111851013665762 
2.6900000000012523, -0.31305600617574647 
2.7000000000012734, -0.3156474651999099 
2.7100000000012945, -0.3191033791715113 
2.7200000000013156, -0.3234671386012398 
2.7300000000013367, -0.328561127174288 
2.740000000001358, -0.33392006912920713 
2.750000000001379, -0.3389106608690501 
2.7600000000014, -0.34301829854434807 
2.770000000001421, -0.3460558670405835 
2.780000000001442, -0.348128627779511 
2.7900000000014633, -0.3494661065000949 
2.8000000000014844, -0.3502906657159683 
2.8100000000015055, -0.3507681388289535 
2.8200000000015266, -0.35100727641914375 
2.8300000000015477, -0.35107391191399306 
2.840000000001569, -0.35100472999220084 
2.85000000000159, -0.35081733419523875 
2.860000000001611, -0.35051761420985916 
2.870000000001632, -0.35010632845969736 
2.8800000000016532, -0.3495863475797685 
2.8900000000016743, -0.3489704214712904 
2.9000000000016954, -0.34828688467954083 
2.9100000000017165, -0.3475792234411078 
2.9200000000017377, -0.3468975665672486 
2.9300000000017588, -0.34628543847325244 
2.94000000000178, -0.34576850151321886 
2.950000000001801, -0.34535011705260377 
2.960000000001822, -0.3450141221284011 
2.970000000001843, -0.3447323248701256 
2.9800000000018643, -0.3444733921333259 
2.9900000000018854, -0.3442100101155858 
3.0000000000019065, -0.34392236179662344 
3.0100000000019276, -0.3435978675537651 
3.0200000000019487, -0.34322857888714997 
3.03000000000197, -0.34280774443675227 
3.040000000001991, -0.34232620652478374 
3.050000000002012, -0.3417681326003256 
3.060000000002033, -0.3411043203493043 
3.070000000002054, -0.3402795683594171 
3.0800000000020753, -0.3391881859134963 
3.0900000000020964, -0.33763097277187065 
3.1000000000021175, -0.33525918481849903 
3.1100000000021386, -0.33156144713428903 
3.1200000000021597, -0.3260346727534639 
3.130000000002181, -0.31862375852324015 
3.140000000002202, -0.31008648712839143 
3.150000000002223, -0.3016991617886954 
3.160000000002244, -0.2944983827486622 
3.1700000000022652, -0.28887797545795013 
3.1800000000022863, -0.2847337866310216 
3.1900000000023074, -0.28176316563305875 
3.2000000000023285, -0.27965653443485977 
3.2100000000023496, -0.27816752494620156 
3.2200000000023707, -0.27712077754404685 
3.230000000002392, -0.2763994801270766 
3.240000000002413, -0.275930827154283 
3.250000000002434, -0.2756749870890799 
3.260000000002455, -0.2756184719757456 
3.2700000000024763, -0.2757715746934827 
3.2800000000024974, -0.27616949457893164 
3.2900000000025185, -0.27687693071636027 
3.3000000000025396, -0.27799569177466904 
3.3100000000025607, -0.2796733867471069 
3.3200000000025818, -0.2821068015665244 
3.330000000002603, -0.28552367285980096 
3.340000000002624, -0.2901124055328223 
3.350000000002645, -0.2958713237052642 
3.360000000002666, -0.3024215440264344 
3.3700000000026873, -0.30897826228625597 
3.3800000000027084, -0.314667500286052 
3.3900000000027295, -0.3189829323703994 
3.4000000000027506, -0.32193076149928934 
3.4100000000027717, -0.3238139110349795 
3.420000000002793, -0.3249736676742031 
3.430000000002814, -0.325670554015521 
3.440000000002835, -0.32607285568794475 
3.450000000002856, -0.3262811758850193 
3.460000000002877, -0.32635340262411117 
3.4700000000028983, -0.3263218590963381 
3.4800000000029194, -0.32620398802669237 
3.4900000000029405, -0.32600944583987373 
3.5000000000029616, -0.325745816953325 
3.5100000000029827, -0.3254239967908079 
3.520000000003004, -0.3250628230858784 
3.530000000003025, -0.3246911268883878 
3.540000000003046, -0.3243451634160439 
3.550000000003067, -0.3240612328545642 
3.5600000000030882, -0.32386606511302585 
3.5700000000031094, -0.3237688062641534 
3.5800000000031305, -0.32375758308437685 
3.5900000000031516, -0.32380203568689214 
3.6000000000031727, -0.3238614094243436 
3.6100000000031938, -0.323895306264556 
3.620000000003215, -0.32387235963532046 
3.630000000003236, -0.32377328799149596 
3.640000000003257, -0.3235883345491549 
3.650000000003278, -0.3233116398116995 
3.6600000000032993, -0.3229349272935065 
3.6700000000033204, -0.3224411789319016 
3.6800000000033415, -0.3217973478290583 
3.6900000000033626, -0.320944210416653 
3.7000000000033837, -0.319781535845851 
3.710000000003405, -0.3181496186146507 
3.720000000003426, -0.3158186416146435 
3.730000000003447, -0.3125195871500078 
3.740000000003468, -0.3080660512294978 
3.750000000003489, -0.3025559658127817 
3.7600000000035103, -0.29648139600383333 
3.7700000000035314, -0.2905516090535439 
3.7800000000035525, -0.2853457578117454 
3.7900000000035736, -0.2811178976121153 
3.8000000000035947, -0.2778457541656111 
3.810000000003616, -0.2753731995989565 
3.820000000003637, -0.27351887218891935 
3.830000000003658, -0.27212666537109353 
3.840000000003679, -0.2710792226896894 
3.8500000000037002, -0.2702958289655833 
3.8600000000037213, -0.26972634648519944 
3.8700000000037424, -0.2693460315015845 
3.8800000000037635, -0.2691529318969347 
3.8900000000037847, -0.2691685229379926 
3.9000000000038058, -0.2694421330976093 
3.910000000003827, -0.27005989570100486 
3.920000000003848, -0.27115879499541445 
3.930000000003869, -0.27294446058894506 
3.94000000000389, -0.27570423986088866 
3.9500000000039113, -0.2797881651992895 
3.9600000000039324, -0.28549666916702476 
3.9700000000039535, -0.2928030743332544 
3.9800000000039746, -0.3009896640006212 
3.9900000000039957, -0.30864822523851504 
4.000000000004016, -0.31444840781403616 
4.010000000003993, -0.3180085237014024 
4.02000000000397, -0.3198394192894061 
4.030000000003946, -0.320672235772144 
4.040000000003923, -0.3210305234646422 
4.0500000000039, -0.3211881559917038 
4.0600000000038765, -0.3212638687701395 
4.070000000003853, -0.3213028377055386 
4.08000000000383, -0.3213205251040972 
4.090000000003807, -0.32132195546341885 
4.100000000003783, -0.3213094048193559 
4.11000000000376, -0.3212855897106278 
4.120000000003737, -0.3212555558004512 
4.130000000003713, -0.3212285067831195 
4.14000000000369, -0.3212197262477765 
4.150000000003667, -0.32125192251515566 
4.1600000000036434, -0.32135473270922915 
4.17000000000362, -0.3215610804615976 
4.180000000003597, -0.32189978621548365 
4.1900000000035735, -0.3223851131761649 
4.20000000000355, -0.32300579600623336 
4.210000000003527, -0.32371866108606456 
4.220000000003504, -0.32445327774735966 
4.23000000000348, -0.3251297449489033 
4.240000000003457, -0.32568176042395314 
4.250000000003434, -0.3260715019392521 
4.26000000000341, -0.32628944676831895 
4.270000000003387, -0.3263435229602166 
4.280000000003364, -0.3262461161863153 
4.2900000000033405, -0.3260039552744563 
4.300000000003317, -0.3256112863440403 
4.310000000003294, -0.32504468890380644 
4.320000000003271, -0.3242582614256056 
4.330000000003247, -0.32318005653675863 
4.340000000003224, -0.3217147922257269 
4.350000000003201, -0.3197632920168209 
4.360000000003177, -0.3172690832794019 
4.370000000003154, -0.3142828154386812 
4.380000000003131, -0.3109969846989909 
4.390000000003107, -0.3076983485759462 
4.400000000003084, -0.30465654568014017 
4.410000000003061, -0.3020350754273202 
4.4200000000030375, -0.2998774396430427 
4.430000000003014, -0.29814587832376677 
4.440000000002991, -0.29676780358846905 
4.450000000002968, -0.2956671933569095 
4.460000000002944, -0.2947797252170713 
4.470000000002921, -0.29405768062684673 
4.480000000002898, -0.2934701342624134 
4.490000000002874, -0.2930018760508294 
4.500000000002851, -0.2926529896113471 
4.510000000002828, -0.2924402176139433 
4.520000000002804, -0.29240096195400106 
4.530000000002781, -0.292600707255808 
4.540000000002758, -0.2931442910264682 
4.5500000000027345, -0.2941894307531886 
4.560000000002711, -0.29595392757663525 
4.570000000002688, -0.2986897494377022 
4.580000000002665, -0.3025654316608874 
4.590000000002641, -0.30739326880039497 
4.600000000002618, -0.31230677464911744 
4.610000000002595, -0.315891113916954 
4.620000000002571, -0.3171391416715621 
4.630000000002548, -0.31629660774434215 
4.640000000002525, -0.31444147987379034 
4.6500000000025015, -0.31251933902325746 
4.660000000002478, -0.3109655891365108 
4.670000000002455, -0.30985144137967746 
4.6800000000024315, -0.3091017867563154 
4.690000000002408, -0.3086163404483801 
4.700000000002385, -0.308312392541266 
4.710000000002362, -0.3081321971724691 
4.720000000002338, -0.30803933058302085 
4.730000000002315, -0.3080135681013435 
4.740000000002292, -0.3080471334243593 
4.750000000002268, -0.30814278193333033 
4.760000000002245, -0.30831340805034957 
4.770000000002222, -0.3085824919803448 
4.7800000000021985, -0.30898427637033304 
4.790000000002175, -0.3095620155310084 
4.800000000002152, -0.3103620854263219 
4.810000000002129, -0.3114215581714751 
4.820000000002105, -0.31274828147200934 
4.830000000002082, -0.31429800606330766 
4.840000000002059, -0.3159628028584739 
4.850000000002035, -0.3175889602160141 
4.860000000002012, -0.319025225636629 
