t, s[1].omega / s[0].omega 
0, -0.5599977397556719 
0.009999999999999995, -0.5597810496697735 
0.019999999999999934, -0.5595767556843386 
0.029999999999999874, -0.5593693134542554 
0.04000000000000012, -0.5591400656934318 
0.050000000000000405, -0.558873787932061 
0.06000000000000069, -0.5585625069715128 
0.07000000000000098, -0.5582060292169622 
0.08000000000000126, -0.5578107179600229 
0.09000000000000155, -0.5573885851405536 
0.10000000000000184, -0.556958172427432 
0.11000000000000212, -0.5565480434615501 
0.12000000000000241, -0.5562034833324516 
0.130000000000002, -0.5559970326807897 
0.1400000000000009, -0.5560432074571 
0.1499999999999998, -0.5565161502633618 
0.1599999999999987, -0.5576641559329646 
0.1699999999999976, -0.5598044039698636 
0.1799999999999965, -0.5632650826961817 
0.1899999999999954, -0.5682366040552712 
0.1999999999999943, -0.574547361230815 
0.2099999999999932, -0.5815267337478845 
0.2199999999999921, -0.5882003882105628 
0.229999999999991, -0.5937769064102194 
0.2399999999999899, -0.5979789228333442 
0.2499999999999888, -0.6009545424638647 
0.2599999999999877, -0.6030034291997091 
0.2699999999999866, -0.6043975704046666 
0.2799999999999855, -0.6053331396502075 
0.2899999999999844, -0.6059410361955183 
0.2999999999999833, -0.6063066612350811 
0.3099999999999822, -0.6064843327378775 
0.3199999999999811, -0.6065057816386143 
0.32999999999998, -0.6063847178813481 
0.3399999999999789, -0.6061191429964773 
0.3499999999999778, -0.6056928671699933 
0.35999999999997667, -0.6050780925109593 
0.36999999999997557, -0.6042416169521443 
0.37999999999997447, -0.6031569467828019 
0.38999999999997337, -0.6018213436263105 
0.39999999999997227, -0.6002703659936823 
0.40999999999997117, -0.5985785265199731 
0.41999999999997006, -0.5968414313358346 
0.42999999999996896, -0.5951490324602748 
0.43999999999996786, -0.5935659264323906 
0.44999999999996676, -0.5921266292853 
0.45999999999996566, -0.5908423860534624 
0.46999999999996456, -0.5897118138743405 
0.47999999999996346, -0.5887299263083045 
0.48999999999996235, -0.5878937484945623 
0.49999999999996125, -0.5872049790197063 
0.5099999999999602, -0.5866708151464921 
0.519999999999959, -0.5863038938182363 
0.529999999999958, -0.5861219514084851 
0.5399999999999568, -0.5861475413713373 
0.5499999999999557, -0.5864079772518608 
0.5599999999999546, -0.5869354848548253 
0.5699999999999535, -0.5877672255329905 
0.5799999999999524, -0.5889442773632029 
0.5899999999999513, -0.5905077821527346 
0.5999999999999502, -0.5924895006459574 
0.6099999999999491, -0.5948939347788373 
0.619999999999948, -0.5976722524152318 
0.6299999999999469, -0.6006971317285619 
0.6399999999999458, -0.6037597605093902 
0.6499999999999447, -0.6066102493601309 
0.6599999999999436, -0.609033736892804 
0.6699999999999425, -0.6109158257624132 
0.6799999999999414, -0.6122541611676893 
0.6899999999999403, -0.6131207082142527 
0.6999999999999392, -0.6136120500748001 
0.7099999999999381, -0.6138152027502395 
0.719999999999937, -0.6137928421962701 
0.7299999999999359, -0.6135800926427618 
0.7399999999999348, -0.6131848357381378 
0.7499999999999337, -0.6125866517137383 
0.7599999999999326, -0.6117318450621345 
0.7699999999999315, -0.6105233356756226 
0.7799999999999304, -0.6088062004617921 
0.7899999999999293, -0.6063555829739065 
0.7999999999999282, -0.602887542728022 
0.8099999999999271, -0.598131280327145 
0.819999999999926, -0.5919901799884152 
0.8299999999999249, -0.5847273397868503 
0.8399999999999238, -0.5769935637473452 
0.8499999999999227, -0.5695925254143168 
0.8599999999999216, -0.5631530854405354 
0.8699999999999205, -0.5579646589602446 
0.8799999999999194, -0.5540220188426968 
0.8899999999999183, -0.551156544191512 
0.8999999999999172, -0.5491478751848418 
0.9099999999999161, -0.5477862889878953 
0.919999999999915, -0.5468971391831892 
0.9299999999999139, -0.5463449532343765 
0.9399999999999128, -0.5460291039894818 
0.9499999999999117, -0.5458771221736478 
0.9599999999999106, -0.5458382308765913 
0.9699999999999095, -0.5458780283950453 
0.9799999999999084, -0.5459745606698412 
0.9899999999999073, -0.5461157227545582 
0.9999999999999062, -0.5462976673390629 
1.0099999999999052, -0.5465235147174485 
1.019999999999904, -0.5468012335385688 
1.029999999999903, -0.5471395012850578 
1.039999999999902, -0.5475411986658217 
1.0499999999999008, -0.5479960615819681 
1.0599999999998997, -0.5484760793058057 
1.0699999999998986, -0.548937680706796 
1.0799999999998975, -0.5493318041883282 
1.0899999999998964, -0.5496174555851437 
1.0999999999998953, -0.5497711862826318 
1.1099999999998942, -0.5497879811290278 
1.119999999999893, -0.5496752752847285 
1.129999999999892, -0.5494450259402729 
1.1399999999998909, -0.5491075062033344 
1.1499999999998898, -0.5486678037838083 
1.1599999999998887, -0.5481243707074968 
1.1699999999998876, -0.5474685640627646 
1.1799999999998865, -0.5466840808616439 
1.1899999999998854, -0.5457446321633384 
1.1999999999998843, -0.544606369052491 
1.2099999999998832, -0.5431884952876672 
1.219999999999882, -0.5413356324869648 
1.229999999999881, -0.5387753848060155 
1.2399999999998799, -0.5351449255426138 
1.2499999999998788, -0.5302052403096965 
1.2599999999998777, -0.5241888665822365 
1.2699999999998766, -0.5178844977676264 
1.2799999999998755, -0.5122201318779713 
1.2899999999998744, -0.5077636258843559 
1.2999999999998733, -0.5046025709073118 
1.3099999999998722, -0.5025285555315568 
1.319999999999871, -0.5012481007966915 
1.32999999999987, -0.5004986141156099 
1.3399999999998689, -0.5000834770183106 
1.3499999999998678, -0.4998683868067252 
1.3599999999998666, -0.4997662374786788 
1.3699999999998655, -0.49972216053349927 
1.3799999999998644, -0.49970210974256773 
1.3899999999998633, -0.49968522692365475 
1.3999999999998622, -0.49965939046410873 
1.4099999999998611, -0.49961926479754093 
1.41999999999986, -0.4995660874462809 
1.429999999999859, -0.4995080579497223 
1.4399999999998578, -0.49945970509675075 
1.4499999999998567, -0.4994386742846172 
1.4599999999998556, -0.49945962165703045 
1.4699999999998545, -0.49952699241981746 
1.4799999999998534, -0.49963005138924316 
1.4899999999998523, -0.49974332652153886 
1.4999999999998512, -0.499833202150053 
1.5099999999998501, -0.4998677427157193 
1.519999999999849, -0.49982464323108955 
1.529999999999848, -0.49969375626438256 
1.5399999999998468, -0.4994745353480199 
1.5499999999998457, -0.4991712998280927 
1.5599999999998446, -0.4987890089159806 
1.5699999999998435, -0.4983306767072805 
1.5799999999998424, -0.49779631873241625 
1.5899999999998413, -0.4971827536905732 
1.5999999999998402, -0.49648314802409044 
1.6099999999998391, -0.4956840239200139 
1.619999999999838, -0.4947546001984523 
1.629999999999837, -0.49361887647473857 
1.6399999999998358, -0.492101163642949 
1.6499999999998347, -0.48986398198375597 
1.6599999999998336, -0.48644006996428396 
1.6699999999998325, -0.4815114992888203 
1.6799999999998314, -0.4753379851595098 
1.6899999999998303, -0.4688172625144536 
1.6999999999998292, -0.4629580876368905 
1.709999999999828, -0.4583383612141759 
1.719999999999827, -0.4550266005472515 
1.729999999999826, -0.45280378625182066 
1.7399999999998248, -0.45137934243234107 
1.7499999999998237, -0.450499094010013 
1.7599999999998226, -0.44997409173550185 
1.7699999999998215, -0.4496748878188657 
1.7799999999998204, -0.44951678592618605 
1.7899999999998193, -0.44944604894757906 
1.7999999999998182, -0.4494296550676206 
1.809999999999817, -0.4494485707914847 
1.819999999999816, -0.4494938601102133 
1.8299999999998149, -0.449564865922257 
1.8399999999998138, -0.44966858031736334 
1.8499999999998127, -0.4498190014832247 
1.8599999999998116, -0.4500349712633735 
1.8699999999998105, -0.4503352041445375 
1.8799999999998094, -0.4507303753241462 
1.8899999999998083, -0.45121415065136256 
1.8999999999998072, -0.4517572171029743 
1.909999999999806, -0.45230914908220815 
1.919999999999805, -0.4528100388651346 
1.9299999999998039, -0.4532072525084717 
1.9399999999998028, -0.4534680159511457 
1.9499999999998017, -0.4535815755829403 
1.9599999999998006, -0.4535524180540338 
1.9699999999997995, -0.45339039441068485 
1.9799999999997984, -0.45310218536851626 
1.9899999999997973, -0.4526850683166243 
1.9999999999997962, -0.452121604053535 
2.0099999999998173, -0.4513729627699429 
2.0199999999998384, -0.4503683328492599 
2.0299999999998595, -0.44898811165746916 
2.0399999999998806, -0.44704142336476826 
2.0499999999999017, -0.4442498127822473 
2.059999999999923, -0.44027553596764957 
2.069999999999944, -0.4348576744795932 
2.079999999999965, -0.4280607302950997 
2.089999999999986, -0.42044499118425743 
2.100000000000007, -0.412894931371991 
2.1100000000000283, -0.4061911925632562 
2.1200000000000494, -0.4007236117994809 
2.1300000000000705, -0.3965129543596325 
2.1400000000000916, -0.39338116646246934 
2.1500000000001127, -0.39109744414121395 
2.160000000000134, -0.3894527363499532 
2.170000000000155, -0.3882831864840308 
2.180000000000176, -0.3874698131627895 
2.190000000000197, -0.38693069504693545 
2.2000000000002182, -0.3866127102043929 
2.2100000000002393, -0.38648515297761654 
2.2200000000002604, -0.3865356476919097 
2.2300000000002815, -0.38676816037429695 
2.2400000000003026, -0.38720272223002133 
2.2500000000003237, -0.3878762703479555 
2.260000000000345, -0.38884346794184615 
2.270000000000366, -0.3901751882703789 
2.280000000000387, -0.39195035751687124 
2.290000000000408, -0.3942347172601703 
2.3000000000004293, -0.39704114328623785 
2.3100000000004504, -0.40027787882897714 
2.3200000000004715, -0.40371708515863647 
2.3300000000004926, -0.4070326668244201 
2.3400000000005137, -0.40991476464558485 
2.3500000000005348, -0.41218486670453525 
2.360000000000556, -0.41382490288836016 
2.370000000000577, -0.41492269612869126 
2.380000000000598, -0.4155992632516502 
2.390000000000619, -0.4159626749937175 
2.4000000000006403, -0.4160914309515471 
2.4100000000006614, -0.41603379651047606 
2.4200000000006825, -0.4158120504596269 
2.4300000000007036, -0.41542673200256425 
2.4400000000007247, -0.41486019322565093 
2.450000000000746, -0.41408128351662066 
2.460000000000767, -0.4130545774567401 
2.470000000000788, -0.4117572078271439 
2.480000000000809, -0.4102013501945903 
2.49000000000083, -0.4084507435064372 
2.5000000000008513, -0.406615005668949 
2.5100000000008724, -0.40481840022539617 
2.5200000000008935, -0.40316167575530926 
2.5300000000009146, -0.40170037015523247 
2.5400000000009357, -0.4004461235103742 
2.550000000000957, -0.39938143410657234 
2.560000000000978, -0.398476116395203 
2.570000000000999, -0.3976993871953829 
2.58000000000102, -0.39702665866664827 
2.5900000000010412, -0.3964424916706594 
2.6000000000010624, -0.3959416752530286 
2.6100000000010835, -0.39553011368146673 
2.6200000000011046, -0.3952267512606893 
2.6300000000011257, -0.3950674623365317 
2.6400000000011468, -0.3951117436792503 
2.650000000001168, -0.39545297983402294 
2.660000000001189, -0.39623242750516374 
2.67000000000121, -0.3976544445909986 
2.680000000001231, -0.39999280538726023 
2.6900000000012523, -0.40356094270966303 
2.7000000000012734, -0.4085958887064132 
2.7100000000012945, -0.41501715943020717 
2.7200000000013156, -0.4221653924171047 
2.7300000000013367, -0.4288744488589439 
2.740000000001358, -0.4340930261443375 
2.750000000001379, -0.4375109916018916 
2.7600000000014, -0.4395004313675308 
2.770000000001421, -0.44061784323150616 
2.780000000001442, -0.44127505030542036 
2.7900000000014633, -0.44169545332539445 
2.8000000000014844, -0.4419813781827527 
2.8100000000015055, -0.44217633923539584 
2.8200000000015266, -0.4422990288934501 
2.8300000000015477, -0.4423579573557225 
2.840000000001569, -0.44235688406105267 
2.85000000000159, -0.4422967751305575 
2.860000000001611, -0.4421769861468121 
2.870000000001632, -0.44199693594559364 
2.8800000000016532, -0.44175878429758375 
2.8900000000016743, -0.44147080199261435 
2.9000000000016954, -0.4411499944570668 
2.9100000000017165, -0.44082175129346657 
2.9200000000017377, -0.4405150535974983 
2.9300000000017588, -0.4402542889868005 
2.94000000000178, -0.440051181134816 
2.950000000001801, -0.4399006621861886 
2.960000000001822, -0.4397826405936754 
2.970000000001843, -0.4396688383723203 
2.9800000000018643, -0.43953144497919067 
2.9900000000018854, -0.43934961935209893 
3.0000000000019065, -0.4391116048595477 
3.0100000000019276, -0.4388130268282513 
3.0200000000019487, -0.4384535273647499 
3.03000000000197, -0.4380336015831553 
3.040000000001991, -0.4375523609543627 
3.050000000002012, -0.43700595285155297 
3.060000000002033, -0.4363856023893554 
3.070000000002054, -0.435673128586744 
3.0800000000020753, -0.43482944625395337 
3.0900000000020964, -0.4337676245086657 
3.1000000000021175, -0.43230029067388764 
3.1100000000021386, -0.430069346708004 
3.1200000000021597, -0.42653818613583133 
3.130000000002181, -0.42122108198328967 
3.140000000002202, -0.41417847063204877 
3.150000000002223, -0.4062896703197237 
3.160000000002244, -0.3988004969007601 
3.1700000000022652, -0.3925909594386711 
3.1800000000022863, -0.38791396859434313 
3.1900000000023074, -0.38460052432486497 
3.2000000000023285, -0.3823373561914436 
3.2100000000023496, -0.3808257679835506 
3.2200000000023707, -0.3798339641147383 
3.230000000002392, -0.37919837502715426 
3.240000000002413, -0.37880945708196817 
3.250000000002434, -0.3785966835156539 
3.260000000002455, -0.3785169774856115 
3.2700000000024763, -0.37854695989755827 
3.2800000000024974, -0.37867832649977123 
3.2900000000025185, -0.37891551755783875 
3.3000000000025396, -0.3792748006446786 
3.3100000000025607, -0.379783643777357 
3.3200000000025818, -0.3804787425299593 
3.330000000002603, -0.38140042422528453 
3.340000000002624, -0.38258088943029933 
3.350000000002645, -0.38402514146311084 
3.360000000002666, -0.38568863375908224 
3.3700000000026873, -0.3874647809999551 
3.3800000000027084, -0.3892000417784639 
3.3900000000027295, -0.39073963087544394 
3.4000000000027506, -0.39197807983669225 
3.4100000000027717, -0.3928807351203943 
3.420000000002793, -0.3934692033471619 
3.430000000002814, -0.39379110517766064 
3.440000000002835, -0.39389483377641443 
3.450000000002856, -0.39381580281802625 
3.460000000002877, -0.3935710462770591 
3.4700000000028983, -0.39315736542005236 
3.4800000000029194, -0.39255015948891964 
3.4900000000029405, -0.39170276477468896 
3.5000000000029616, -0.39054923686852366 
3.5100000000029827, -0.389016925777972 
3.520000000003004, -0.38705577303939565 
3.530000000003025, -0.38468147398505165 
3.540000000003046, -0.3820075701770078 
3.550000000003067, -0.3792306073416948 
3.5600000000030882, -0.3765643268321418 
3.5700000000031094, -0.37416805662181407 
3.5800000000031305, -0.3721158864310179 
3.5900000000031516, -0.3704097654339448 
3.6000000000031727, -0.3690106084049071 
3.6100000000031938, -0.3678657016840115 
3.620000000003215, -0.3669254162148564 
3.630000000003236, -0.36615092092519064 
3.640000000003257, -0.3655166767928254 
3.650000000003278, -0.3650108377647516 
3.6600000000032993, -0.3646356008414508 
3.6700000000033204, -0.3644087702022398 
3.6800000000033415, -0.3643674270412514 
3.6900000000033626, -0.36457451470169383 
3.7000000000033837, -0.3651290912655512 
3.710000000003405, -0.36618036170661694 
3.720000000003426, -0.36794290999933593 
3.730000000003447, -0.37070265025473115 
3.740000000003468, -0.3747854746153791 
3.750000000003489, -0.3804366464055149 
3.7600000000035103, -0.3875706801984572 
3.7700000000035314, -0.3954997956491933 
3.7800000000035525, -0.40300483623955274 
3.7900000000035736, -0.4089686839252069 
3.8000000000035947, -0.4130195926657493 
3.810000000003616, -0.4154915248593814 
3.820000000003637, -0.4169388295477667 
3.830000000003658, -0.41779964000202446 
3.840000000003679, -0.41833341388281103 
3.8500000000037002, -0.41867447254432505 
3.8600000000037213, -0.41888946915527975 
3.8700000000037424, -0.41901195272128966 
3.8800000000037635, -0.41905926208603395 
3.8900000000037847, -0.4190401600563085 
3.9000000000038058, -0.41895850759993236 
3.910000000003827, -0.41881574536335525 
3.920000000003848, -0.4186135776109464 
3.930000000003869, -0.4183573422558 
3.94000000000389, -0.4180594995984369 
3.9500000000039113, -0.41774150312304903 
3.9600000000039324, -0.4174319329044732 
3.9700000000039535, -0.41716019680159083 
3.9800000000039746, -0.4169478061479971 
3.9900000000039957, -0.41680104987654254 
4.000000000004016, -0.41670844058659773 
4.010000000003993, -0.41664419171409034 
4.02000000000397, -0.41657629520324135 
4.030000000003946, -0.41647549967190994 
4.040000000003923, -0.41632117386973233 
4.0500000000039, -0.416102283470707 
4.0600000000038765, -0.4158146197185898 
4.070000000003853, -0.41545663899007446 
4.08000000000383, -0.4150255655507527 
4.090000000003807, -0.4145140469210313 
4.100000000003783, -0.41390651050339394 
4.11000000000376, -0.41317335212513984 
4.120000000003737, -0.41225959576225224 
4.130000000003713, -0.4110624246648714 
4.14000000000369, -0.40939120629784653 
4.150000000003667, -0.4069149199050761 
4.1600000000036434, -0.4031488056607498 
4.17000000000362, -0.3976111191028045 
4.180000000003597, -0.3902324421607394 
4.1900000000035735, -0.3817128347171416 
4.20000000000355, -0.3732807140362221 
4.210000000003527, -0.36598431126386305 
4.220000000003504, -0.3602660165132773 
4.23000000000348, -0.35606045316287854 
4.240000000003457, -0.3530776653749894 
4.250000000003434, -0.35100241539022076 
4.26000000000341, -0.3495752867681024 
4.270000000003387, -0.34860680418265566 
4.280000000003364, -0.3479670846978892 
4.2900000000033405, -0.3475711289454175 
4.300000000003317, -0.3473665632022732 
4.310000000003294, -0.34732517490604525 
4.320000000003271, -0.3474378751134613 
4.330000000003247, -0.34771238606676985 
4.340000000003224, -0.348172930024635 
4.350000000003201, -0.34886101289170124 
4.360000000003177, -0.34983575405051515 
4.370000000003154, -0.3511708500356411 
4.380000000003131, -0.35294315744477867 
4.390000000003107, -0.3552063154656907 
4.400000000003084, -0.35794654233720313 
4.410000000003061, -0.36103456048457494 
4.4200000000030375, -0.36421439074984735 
4.430000000003014, -0.367169726108045 
4.440000000002991, -0.36964472229609757 
4.450000000002968, -0.37152879416383416 
4.460000000002944, -0.3728490502061324 
4.470000000002921, -0.37370504034332436 
4.480000000002898, -0.37420752527383794 
4.490000000002874, -0.37444684969197206 
4.500000000002851, -0.3744846176182749 
4.510000000002828, -0.37435578306865586 
4.520000000002804, -0.37407321762745305 
4.530000000002781, -0.3736321163494053 
4.540000000002758, -0.3730148216183555 
4.5500000000027345, -0.3721983528462089 
4.560000000002711, -0.37116699802786485 
4.570000000002688, -0.36992921923679056 
4.580000000002665, -0.36853148169270644 
4.590000000002641, -0.367057107151235 
4.600000000002618, -0.3656052135093476 
4.610000000002595, -0.36426079589920213 
4.620000000002571, -0.36307415967190826 
4.630000000002548, -0.362058096464892 
4.640000000002525, -0.3611978675724078 
4.6500000000025015, -0.3604648698055174 
4.660000000002478, -0.3598279805275207 
4.670000000002455, -0.3592606077782875 
4.6800000000024315, -0.35874386886806914 
4.690000000002408, -0.3582673277967383 
4.700000000002385, -0.35782888079624964 
4.710000000002362, -0.35743507527199336 
4.720000000002338, -0.35710273503612255 
4.730000000002315, -0.35686243787878796 
4.740000000002292, -0.3567640003697512 
4.750000000002268, -0.356882978903095 
4.760000000002245, -0.3573236171492289 
4.770000000002222, -0.3582045215180536 
4.7800000000021985, -0.3595964934690474 
4.790000000002175, -0.36137236023655855 
4.800000000002152, -0.36299618045570603 
4.810000000002129, -0.36350866487811384 
4.820000000002105, -0.36208039275921733 
4.830000000002082, -0.3588125306879139 
4.840000000002059, -0.35472204008631214 
4.850000000002035, -0.35088630591374836 
4.860000000002012, -0.34785198373228665 
4.870000000001989, -0.34568083204908817 
4.880000000001965, -0.3442146648932985 
