t, s[1].omega / s[0].omega 
0, -0.5499977423866536 
0.009999999999999995, -0.54977894428338 
0.019999999999999934, -0.5495688730914787 
0.029999999999999874, -0.5493545905033581 
0.04000000000000012, -0.5491205219577309 
0.050000000000000405, -0.5488538575573665 
0.06000000000000069, -0.548547711167923 
0.07000000000000098, -0.5482015651498566 
0.08000000000000126, -0.5478202180966921 
0.09000000000000155, -0.5474128817231627 
0.10000000000000184, -0.5469935994164389 
0.11000000000000212, -0.5465836036575912 
0.12000000000000241, -0.5462159807089668 
0.130000000000002, -0.5459429351793028 
0.1400000000000009, -0.545845590853407 
0.1499999999999998, -0.5460448511749058 
0.1599999999999987, -0.5467081300026815 
0.1699999999999976, -0.548039521806861 
0.1799999999999965, -0.5502322164320284 
0.1899999999999954, -0.5533653029565795 
0.1999999999999943, -0.5572717628744583 
0.2099999999999932, -0.5614918354081826 
0.2199999999999921, -0.5654361703737412 
0.229999999999991, -0.5686795045823778 
0.2399999999999899, -0.5711137578656958 
0.2499999999999888, -0.5728580356159736 
0.2599999999999877, -0.5740922295743909 
0.2699999999999866, -0.5749641116684634 
0.2799999999999855, -0.5755733410645535 
0.2899999999999844, -0.5759840913413946 
0.2999999999999833, -0.5762383165558889 
0.3099999999999822, -0.5763634965996127 
0.3199999999999811, -0.5763762721478628 
0.32999999999998, -0.5762839876723465 
0.3399999999999789, -0.5760854353713383 
0.3499999999999778, -0.5757717312819255 
0.35999999999997667, -0.5753283572460853 
0.36999999999997557, -0.5747395624133393 
0.37999999999997447, -0.5739957635670636 
0.38999999999997337, -0.5731025234413262 
0.39999999999997227, -0.5720866952124333 
0.40999999999997117, -0.570994505124999 
0.41999999999997006, -0.5698806144445486 
0.42999999999996896, -0.568793843417459 
0.43999999999996786, -0.5677674102277325 
0.44999999999996676, -0.5668173074408672 
0.45999999999996566, -0.5659468974278127 
0.46999999999996456, -0.5651535952704199 
0.47999999999996346, -0.5644345650767217 
0.48999999999996235, -0.5637903927957912 
0.49999999999996125, -0.5632271069021939 
0.5099999999999602, -0.562757363578121 
0.519999999999959, -0.5624014571781535 
0.529999999999958, -0.5621884979727128 
0.5399999999999568, -0.5621578424814542 
0.5499999999999557, -0.5623606767807374 
0.5599999999999546, -0.5628614221730842 
0.5699999999999535, -0.5637381626919322 
0.5799999999999524, -0.5650803466648814 
0.5899999999999513, -0.5669804415863815 
0.5999999999999502, -0.5695144730295836 
0.6099999999999491, -0.5727066808744812 
0.619999999999948, -0.5764810010614677 
0.6299999999999469, -0.5806213374425991 
0.6399999999999458, -0.584783261871406 
0.6499999999999447, -0.5885856322824725 
0.6599999999999436, -0.5917427363181252 
0.6699999999999425, -0.59414473981033 
0.6799999999999414, -0.595839356836156 
0.6899999999999403, -0.5969558576139062 
0.6999999999999392, -0.5976354984167627 
0.7099999999999381, -0.5979950844421921 
0.719999999999937, -0.5981170355496521 
0.7299999999999359, -0.5980515844204383 
0.7399999999999348, -0.5978215111731406 
0.7499999999999337, -0.597425231532489 
0.7599999999999326, -0.5968371278695974 
0.7699999999999315, -0.5960057111172079 
0.7799999999999304, -0.5948521057613818 
0.7899999999999293, -0.5932745659708791 
0.7999999999999282, -0.5911683747250024 
0.8099999999999271, -0.5884687051341649 
0.819999999999926, -0.5852072995105506 
0.8299999999999249, -0.5815462268294953 
0.8399999999999238, -0.5777487776886272 
0.8499999999999227, -0.5740947403465286 
0.8599999999999216, -0.5707974350337978 
0.8699999999999205, -0.5679695790095073 
0.8799999999999194, -0.5656365831914343 
0.8899999999999183, -0.5637691934733551 
0.8999999999999172, -0.5623131419083331 
0.9099999999999161, -0.5612082026662027 
0.919999999999915, -0.5603978634191921 
0.9299999999999139, -0.5598331492154422 
0.9399999999999128, -0.5594735259079526 
0.9499999999999117, -0.5592866376103285 
0.9599999999999106, -0.5592477383092713 
0.9699999999999095, -0.5593391594468824 
0.9799999999999084, -0.5595498868086085 
0.9899999999999073, -0.5598751468181073 
0.9999999999999062, -0.5603156968255499 
1.0099999999999052, -0.5608762186440294 
1.019999999999904, -0.5615619295342456 
1.029999999999903, -0.5623726107633259 
1.039999999999902, -0.5632942937445333 
1.0499999999999008, -0.564291188824446 
1.0599999999998997, -0.565303154211711 
1.0699999999998986, -0.5662539979083946 
1.0799999999998975, -0.5670701118658646 
1.0899999999998964, -0.5677002234224705 
1.0999999999998953, -0.568124751508748 
1.1099999999998942, -0.5683512271704312 
1.119999999999893, -0.5684017798208436 
1.129999999999892, -0.5683007459493989 
1.1399999999998909, -0.5680663849244725 
1.1499999999998898, -0.5677064690579546 
1.1599999999998887, -0.5672157815818908 
1.1699999999998876, -0.5665735314549127 
1.1799999999998865, -0.5657390717562304 
1.1899999999998854, -0.5646445552646406 
1.1999999999998843, -0.5631837068633782 
1.2099999999998832, -0.5611986538753782 
1.219999999999882, -0.55847591081244 
1.229999999999881, -0.5547809374623149 
1.2399999999998799, -0.5499707348009066 
1.2499999999998788, -0.544169917987601 
1.2599999999998777, -0.5378659124751944 
1.2699999999998766, -0.5317604043157454 
1.2799999999998755, -0.5264568116962982 
1.2899999999998744, -0.5222517563654827 
1.2999999999998733, -0.51914589586504 
1.3099999999998722, -0.5169713818832238 
1.319999999999871, -0.5155109340932859 
1.32999999999987, -0.5145644595974017 
1.3399999999998689, -0.5139728314792011 
1.3499999999998678, -0.5136191304752142 
1.3599999999998666, -0.5134214484835861 
1.3699999999998655, -0.5133242063529966 
1.3799999999998644, -0.513290663123164 
1.3899999999998633, -0.5132973298270695 
1.3999999999998622, -0.513330256199741 
1.4099999999998611, -0.5133828934554999 
1.41999999999986, -0.5134550378080751 
1.429999999999859, -0.5135520539740777 
1.4399999999998578, -0.5136832670517048 
1.4499999999998567, -0.5138584924331062 
1.4599999999998556, -0.514082571604506 
1.4699999999998545, -0.5143494150417621 
1.4799999999998534, -0.5146385394169639 
1.4899999999998523, -0.5149170386389554 
1.4999999999998512, -0.5151474006739056 
1.5099999999998501, -0.5152976561382949 
1.519999999999849, -0.5153484334485005 
1.529999999999848, -0.5152938330753066 
1.5399999999998468, -0.5151373056624875 
1.5499999999998457, -0.5148859062059653 
1.5599999999998446, -0.5145455049517363 
1.5699999999998435, -0.5141177040767575 
1.5799999999998424, -0.5135979690774992 
1.5899999999998413, -0.5129740117255354 
1.5999999999998402, -0.5122232133593685 
1.6099999999998391, -0.5113073241998661 
1.619999999999838, -0.5101617155888002 
1.629999999999837, -0.5086764622431617 
1.6399999999998358, -0.5066729368578711 
1.6499999999998347, -0.5039025051388867 
1.6599999999998336, -0.5001278355778017 
1.6699999999998325, -0.49532159973506273 
1.6799999999998314, -0.48985015593993564 
1.6899999999998303, -0.4843911191082461 
1.6999999999998292, -0.479591081381708 
1.709999999999828, -0.4757910399085176 
1.719999999999827, -0.4730119655880565 
1.729999999999826, -0.471092451892134 
1.7399999999998248, -0.46982079717939496 
1.7499999999998237, -0.46900599431735346 
1.7599999999998226, -0.468500441384596 
1.7699999999998215, -0.46819898798545767 
1.7799999999998204, -0.46803024586823794 
1.7899999999998193, -0.46794734805886584 
1.7999999999998182, -0.4679205502773963 
1.809999999999817, -0.46793207437810647 
1.819999999999816, -0.46797293410585317 
1.8299999999998149, -0.4680412812634674 
1.8399999999998138, -0.46814163120262026 
1.8499999999998127, -0.46828403272249036 
1.8599999999998116, -0.4684819938827055 
1.8699999999998105, -0.4687481697985989 
1.8799999999998094, -0.46908783559602274 
1.8899999999998083, -0.4694919251097532 
1.8999999999998072, -0.46993312325679143 
1.909999999999806, -0.4703686297876244 
1.919999999999805, -0.47075025560216044 
1.9299999999998039, -0.47103742844710916 
1.9399999999998028, -0.4712060398378357 
1.9499999999998017, -0.47124915861304 
1.9599999999998006, -0.4711713250135735 
1.9699999999997995, -0.4709808707846298 
1.9799999999997984, -0.4706834291266929 
1.9899999999997973, -0.47027727229406907 
1.9999999999997962, -0.469749475200372 
2.0099999999998173, -0.46907130000284425 
2.0199999999998384, -0.46819103655529537 
2.0299999999998595, -0.4670226842844188 
2.0399999999998806, -0.46543050504148453 
2.0499999999999017, -0.46321614195094296 
2.059999999999923, -0.46013140384615214 
2.069999999999944, -0.45595882498274537 
2.079999999999965, -0.4506781727359246 
2.089999999999986, -0.4446201955054496 
2.100000000000007, -0.43841617303818214 
2.1100000000000283, -0.43271907614447863 
2.1200000000000494, -0.42793863852451997 
2.1300000000000705, -0.4241839342416444 
2.1400000000000916, -0.42136261512739326 
2.1500000000001127, -0.4193019611433583 
2.160000000000134, -0.41782563189666133 
2.170000000000155, -0.4167859341592163 
2.180000000000176, -0.4160706029282803 
2.190000000000197, -0.4155991404606416 
2.2000000000002182, -0.4153165403252711 
2.2100000000002393, -0.415187556564487 
2.2200000000002604, -0.4151924512533453 
2.2300000000002815, -0.4153242693315099 
2.2400000000003026, -0.41558735941550307 
2.2500000000003237, -0.4159966451751667 
2.260000000000345, -0.41657681670609187 
2.270000000000366, -0.41736005354479283 
2.280000000000387, -0.4183802137284651 
2.290000000000408, -0.41966117670855657 
2.3000000000004293, -0.42119857836796804 
2.3100000000004504, -0.422939438419455 
2.3200000000004715, -0.4247725743892653 
2.3300000000004926, -0.4265456636720798 
2.3400000000005137, -0.42810986478109614 
2.3500000000005348, -0.4293668118524958 
2.360000000000556, -0.4302872078566575 
2.370000000000577, -0.4308958173134103 
2.380000000000598, -0.43124232030890675 
2.390000000000619, -0.4313773061197549 
2.4000000000006403, -0.43133941234385664 
2.4100000000006614, -0.4311506372683172 
2.4200000000006825, -0.43081523477463907 
2.4300000000007036, -0.43031927867918157 
2.4400000000007247, -0.4296301431640613 
2.450000000000746, -0.42869735255498326 
2.460000000000767, -0.42745879042413887 
2.470000000000788, -0.42585804431418567 
2.480000000000809, -0.4238753788645604 
2.49000000000083, -0.42156167258221255 
2.5000000000008513, -0.41904898821281816 
2.5100000000008724, -0.416517925045658 
2.5200000000008935, -0.4141375802242311 
2.5300000000009146, -0.4120188456895604 
2.5400000000009357, -0.4102043341692324 
2.550000000000957, -0.4086859252369856 
2.560000000000978, -0.4074295193420264 
2.570000000000999, -0.4063943383590204 
2.58000000000102, -0.4055440344301253 
2.5900000000010412, -0.40485164286415803 
2.6000000000010624, -0.4043012123351432 
2.6100000000010835, -0.4038882644220723 
2.6200000000011046, -0.40362040774719804 
2.6300000000011257, -0.4035188641233544 
2.6400000000011468, -0.4036213533237983 
2.650000000001168, -0.4039865685210054 
2.660000000001189, -0.4047000713675309 
2.67000000000121, -0.40588033121260086 
2.680000000001231, -0.40768092603919703 
2.6900000000012523, -0.41027949990682944 
2.7000000000012734, -0.4138365288127215 
2.7100000000012945, -0.418405866435425 
2.7200000000013156, -0.42380845545858714 
2.7300000000013367, -0.4295577497272632 
2.740000000001358, -0.43497420432021655 
2.750000000001379, -0.439484446845478 
2.7600000000014, -0.44285945827811124 
2.770000000001421, -0.44519562291512066 
2.780000000001442, -0.4467361293880896 
2.7900000000014633, -0.4477221463629017 
2.8000000000014844, -0.4483348856987724 
2.8100000000015055, -0.44869424857169476 
2.8200000000015266, -0.4488746031880413 
2.8300000000015477, -0.44891983764248866 
2.840000000001569, -0.4488537072472303 
2.85000000000159, -0.448686328343001 
2.860000000001611, -0.44841860944508466 
2.870000000001632, -0.44804632730993904 
2.8800000000016532, -0.4475651786262332 
2.8900000000016743, -0.4469771811688692 
2.9000000000016954, -0.44629692880130917 
2.9100000000017165, -0.44555424563787244 
2.9200000000017377, -0.4447900682414426 
2.9300000000017588, -0.44404621373724595 
2.94000000000178, -0.44335418154490724 
2.950000000001801, -0.44272871144303105 
2.960000000001822, -0.44216820171588084 
2.970000000001843, -0.44166011871030236 
2.9800000000018643, -0.4411879299625211 
2.9900000000018854, -0.4407367208463002 
3.0000000000019065, -0.4402962937567215 
3.0100000000019276, -0.43986210958201494 
3.0200000000019487, -0.43943523919784777 
3.03000000000197, -0.4390225066840438 
3.040000000001991, -0.43863765151368667 
3.050000000002012, -0.4383040112770667 
3.060000000002033, -0.4380589997768499 
3.070000000002054, -0.4379602384905773 
3.0800000000020753, -0.4380918870831816 
3.0900000000020964, -0.4385662199905485 
3.1000000000021175, -0.4395083518808757 
3.1100000000021386, -0.44100327453708743 
3.1200000000021597, -0.44299068375869854 
3.130000000002181, -0.4451525568626288 
3.140000000002202, -0.4469462967575318 
3.150000000002223, -0.44790139090085823 
3.160000000002244, -0.4479558242313068 
3.1700000000022652, -0.4474408538571651 
3.1800000000022863, -0.4467667298648509 
3.1900000000023074, -0.4461888821905461 
3.2000000000023285, -0.4457883234235638 
3.2100000000023496, -0.44554823744615757 
3.2200000000023707, -0.44542078866725543 
3.230000000002392, -0.4453598489233169 
3.240000000002413, -0.44533080146137005 
3.250000000002434, -0.44531040265266303 
3.260000000002455, -0.44528386609807036 
3.2700000000024763, -0.4452420868377307 
3.2800000000024974, -0.4451799394918005 
3.2900000000025185, -0.4450958347438295 
3.3000000000025396, -0.4449923632141332 
3.3100000000025607, -0.44487743522699363 
3.3200000000025818, -0.4447647790104547 
3.330000000002603, -0.44467239497891375 
3.340000000002624, -0.44461819064060115 
3.350000000002645, -0.4446136055703396 
3.360000000002666, -0.44465769448722153 
3.3700000000026873, -0.44473470589121245 
3.3800000000027084, -0.4448170581754899 
3.3900000000027295, -0.4448729363224504 
3.4000000000027506, -0.44487489895809684 
3.4100000000027717, -0.44480526827644473 
3.420000000002793, -0.4446564773991731 
3.430000000002814, -0.4444276867249434 
3.440000000002835, -0.4441202082276213 
3.450000000002856, -0.44373344626128314 
3.460000000002877, -0.4432616459136029 
3.4700000000028983, -0.44269072114980623 
3.4800000000029194, -0.44199380406060546 
3.4900000000029405, -0.44112352484085077 
3.5000000000029616, -0.43999837647499335 
3.5100000000029827, -0.4384813367197216 
3.520000000003004, -0.4363565017671105 
3.530000000003025, -0.4333328786196013 
3.540000000003046, -0.429137044330964 
3.550000000003067, -0.42372827522759604 
3.5600000000030882, -0.417497739450362 
3.5700000000031094, -0.4111852520280174 
3.5800000000031305, -0.4055122165198914 
3.5900000000031516, -0.40087950638359127 
3.6000000000031727, -0.39734392651570444 
3.6100000000031938, -0.39476091546156056 
3.620000000003215, -0.39292401570494295 
3.630000000003236, -0.39164104591141413 
3.640000000003257, -0.39076004286063537 
3.650000000003278, -0.390170467377147 
3.6600000000032993, -0.3897960749460466 
3.6700000000033204, -0.38958684720065945 
3.6800000000033415, -0.38951249534098575 
3.6900000000033626, -0.3895580064091503 
3.7000000000033837, -0.3897210038045798 
3.710000000003405, -0.3900104596692416 
3.720000000003426, -0.3904460932812559 
3.730000000003447, -0.39105740374834563 
3.740000000003468, -0.39188066075536493 
3.750000000003489, -0.39295151136772444 
3.7600000000035103, -0.39429091470590966 
3.7700000000035314, -0.3958846084309288 
3.7800000000035525, -0.39766313083797683 
3.7900000000035736, -0.3994981429978863 
3.8000000000035947, -0.4012295716387529 
3.810000000003616, -0.402716430127844 
3.820000000003637, -0.40387927578931376 
3.830000000003658, -0.4047077422819326 
3.840000000003679, -0.40523786395122163 
3.8500000000037002, -0.4055222839638721 
3.8600000000037213, -0.40560934750098393 
3.8700000000037424, -0.4055333385195759 
3.8800000000037635, -0.40531159315863663 
3.8900000000037847, -0.40494423569635385 
3.9000000000038058, -0.40441442549141404 
3.910000000003827, -0.4036892258716954 
3.920000000003848, -0.4027233577286872 
3.930000000003869, -0.4014699199187407 
3.94000000000389, -0.3999014409910222 
3.9500000000039113, -0.3980374550557157 
3.9600000000039324, -0.3959621805906529 
3.9700000000039535, -0.3938123098697005 
3.9800000000039746, -0.3917349370159048 
3.9900000000039957, -0.3898425018198219 
4.000000000004016, -0.3881918332449984 
4.010000000003993, -0.38679039383188935 
4.02000000000397, -0.3856154419971172 
4.030000000003946, -0.38463254713101536 
4.040000000003923, -0.3838079299963236 
4.0500000000039, -0.38311482393595786 
4.0600000000038765, -0.38253602100867634 
4.070000000003853, -0.3820647377775392 
4.08000000000383, -0.38170533630162906 
4.090000000003807, -0.38147489129480266 
4.100000000003783, -0.381406268444869 
4.11000000000376, -0.3815532058655114 
4.120000000003737, -0.3819976268374764 
4.130000000003713, -0.3828585229245196 
4.14000000000369, -0.3842991248482005 
4.150000000003667, -0.38652286042714945 
4.1600000000036434, -0.3897376157181468 
4.17000000000362, -0.3940590973368573 
4.180000000003597, -0.3993485512379821 
4.1900000000035735, -0.40508153358575794 
4.20000000000355, -0.410453965972511 
4.210000000003527, -0.41477823498147454 
4.220000000003504, -0.41782602941644126 
4.23000000000348, -0.41978829388097216 
4.240000000003457, -0.42100248794261497 
4.250000000003434, -0.42175405051577136 
4.26000000000341, -0.42222637151466264 
4.270000000003387, -0.42252329522199866 
4.280000000003364, -0.42270113522838876 
4.2900000000033405, -0.42279045520254926 
4.300000000003317, -0.4228078831547092 
4.310000000003294, -0.4227620452833242 
4.320000000003271, -0.42265676492656723 
4.330000000003247, -0.4224934086913816 
4.340000000003224, -0.4222734286564112 
4.350000000003201, -0.42200145504994896 
4.360000000003177, -0.42168839353954857 
4.370000000003154, -0.42135299198264653 
4.380000000003131, -0.4210200824110141 
4.390000000003107, -0.4207150190723622 
4.400000000003084, -0.42045620060311506 
4.410000000003061, -0.4202490804309405 
4.4200000000030375, -0.42008449550869864 
4.430000000003014, -0.4199420399696476 
4.440000000002991, -0.41979682501805654 
4.450000000002968, -0.4196264284219624 
4.460000000002944, -0.4194151119021215 
4.470000000002921, -0.41915434362908427 
4.480000000002898, -0.41884069660667267 
4.490000000002874, -0.41847287018338725 
4.500000000002851, -0.4180489892488969 
4.510000000002828, -0.4175643800482587 
4.520000000002804, -0.41700923876335344 
4.530000000002781, -0.41636489307510016 
4.540000000002758, -0.41559630512433765 
4.5500000000027345, -0.4146369468830483 
4.560000000002711, -0.4133618112319394 
4.570000000002688, -0.41155207180730297 
4.580000000002665, -0.4088848023732715 
4.590000000002641, -0.40502886326202514 
4.600000000002618, -0.39989970027724725 
4.610000000002595, -0.3939018106116907 
4.620000000002571, -0.38782574329226144 
4.630000000002548, -0.3824202127117005 
4.640000000002525, -0.37807120103307656 
4.6500000000025015, -0.3748050013513699 
4.660000000002478, -0.37245521479979615 
4.670000000002455, -0.370807563795347 
4.6800000000024315, -0.3696716744596885 
4.690000000002408, -0.36890177882273933 
4.700000000002385, -0.36839462648490107 
4.710000000002362, -0.36808084290277504 
4.720000000002338, -0.36791640522335095 
4.730000000002315, -0.3678762092811084 
4.740000000002292, -0.3679499047880667 
4.750000000002268, -0.36813962151220625 
4.760000000002245, -0.3684590256219043 
4.770000000002222, -0.3689329210889783 
4.7800000000021985, -0.3695961538274595 
4.790000000002175, -0.3704898558180022 
4.800000000002152, -0.37165235629130344 
4.810000000002129, -0.3731023932209421 
4.820000000002105, -0.37481577367121355 
4.830000000002082, -0.3767052608542898 
4.840000000002059, -0.37862259434528 
4.850000000002035, -0.3803957719570966 
4.860000000002012, -0.3818863367439944 
4.870000000001989, -0.3830283360516405 
4.880000000001965, -0.38382658250641255 
