t, s[1].omega / s[0].omega 
0, -0.6199977199534122 
0.009999999999999995, -0.6197645344170875 
0.019999999999999934, -0.6195181556540056 
0.029999999999999874, -0.619251327229943 
0.04000000000000012, -0.6189560587199678 
0.050000000000000405, -0.6186271819549146 
0.06000000000000069, -0.6182643208027904 
0.07000000000000098, -0.6178722040355817 
0.08000000000000126, -0.6174603401708318 
0.09000000000000155, -0.617043214282762 
0.10000000000000184, -0.6166417383359782 
0.11000000000000212, -0.6162862275985814 
0.12000000000000241, -0.6160208647740275 
0.130000000000002, -0.6159093095961791 
0.1400000000000009, -0.6160405468995191 
0.1499999999999998, -0.6165329319042373 
0.1599999999999987, -0.6175323937585159 
0.1699999999999976, -0.6191979589898039 
0.1799999999999965, -0.6216657353757069 
0.1899999999999954, -0.6249864667247336 
0.1999999999999943, -0.6290504364484819 
0.2099999999999932, -0.6335468801867192 
0.2199999999999921, -0.6380195025236105 
0.229999999999991, -0.6420218447825897 
0.2399999999999899, -0.6452745724472688 
0.2499999999999888, -0.647714474596009 
0.2599999999999877, -0.6494322768078424 
0.2699999999999866, -0.650578908398209 
0.2799999999999855, -0.6513009426434612 
0.2899999999999844, -0.6517140965651913 
0.2999999999999833, -0.6518995448053141 
0.3099999999999822, -0.6519086166043989 
0.3199999999999811, -0.6517683727931882 
0.32999999999998, -0.6514853630200241 
0.3399999999999789, -0.6510471012365521 
0.3499999999999778, -0.6504218711196329 
0.35999999999997667, -0.6495585565418409 
0.36999999999997557, -0.648389907406494 
0.37999999999997447, -0.6468444965094771 
0.38999999999997337, -0.6448717553317692 
0.39999999999997227, -0.6424763474282693 
0.40999999999997117, -0.639743814483411 
0.41999999999997006, -0.6368341609866296 
0.42999999999996896, -0.6339394091794638 
0.43999999999996786, -0.6312302155193689 
0.44999999999996676, -0.6288219631036631 
0.45999999999996566, -0.6267697597520409 
0.46999999999996456, -0.6250818923326971 
0.47999999999996346, -0.6237377086792123 
0.48999999999996235, -0.6227020483604285 
0.49999999999996125, -0.6219344825715332 
0.5099999999999602, -0.6213944919758487 
0.519999999999959, -0.6210441904091101 
0.529999999999958, -0.6208497536942871 
0.5399999999999568, -0.6207821724891007 
0.5499999999999557, -0.6208175973576571 
0.5599999999999546, -0.620937386572317 
0.5699999999999535, -0.6211279043428041 
0.5799999999999524, -0.6213800366901894 
0.5899999999999513, -0.6216882270216026 
0.5999999999999502, -0.62204863695446 
0.6099999999999491, -0.6224560497828904 
0.619999999999948, -0.6228997000166067 
0.6299999999999469, -0.6233594105586616 
0.6399999999999458, -0.6238045511553885 
0.6499999999999447, -0.6241979601031408 
0.6599999999999436, -0.6245042505975948 
0.6699999999999425, -0.6246984874732878 
0.6799999999999414, -0.6247705169700833 
0.6899999999999403, -0.6247233648005206 
0.6999999999999392, -0.624567952622905 
0.7099999999999381, -0.6243175833083635 
0.719999999999937, -0.6239843555074919 
0.7299999999999359, -0.6235780031201056 
0.7399999999999348, -0.6231068752986969 
0.7499999999999337, -0.6225808030767459 
0.7599999999999326, -0.622015876078561 
0.7699999999999315, -0.6214411102952754 
0.7799999999999304, -0.6209059933021336 
0.7899999999999293, -0.6204852057244977 
0.7999999999999282, -0.6202724642911662 
0.8099999999999271, -0.620353101589524 
0.819999999999926, -0.6207551170523705 
0.8299999999999249, -0.6214088243872169 
0.8399999999999238, -0.6221678321430997 
0.8499999999999227, -0.6228969154200673 
0.8599999999999216, -0.6235429597257638 
0.8699999999999205, -0.6241199280967942 
0.8799999999999194, -0.6246501525439785 
0.8899999999999183, -0.6251335484938484 
0.8999999999999172, -0.6255537285253894 
0.9099999999999161, -0.6258935631973583 
0.919999999999915, -0.6261433144155217 
0.9299999999999139, -0.6263007252097246 
0.9399999999999128, -0.626367530167345 
0.9499999999999117, -0.6263455933660846 
0.9599999999999106, -0.6262338947796253 
0.9699999999999095, -0.6260265910474598 
0.9799999999999084, -0.6257122651669655 
0.9899999999999073, -0.6252748296610424 
0.9999999999999062, -0.6246969005221054 
1.0099999999999052, -0.6239661542183997 
1.019999999999904, -0.6230835314943804 
1.029999999999903, -0.6220695536286956 
1.039999999999902, -0.6209639981850142 
1.0499999999999008, -0.6198174116609557 
1.0599999999998997, -0.618678673798158 
1.0699999999998986, -0.6175853953923081 
1.0799999999998975, -0.6165609537344745 
1.0899999999998964, -0.6156171903873913 
1.0999999999998953, -0.6147594625755038 
1.1099999999998942, -0.6139913040661332 
1.119999999999893, -0.6133175601862388 
1.129999999999892, -0.6127460438470828 
1.1399999999998909, -0.6122881852137856 
1.1499999999998898, -0.6119591114569539 
1.1599999999998887, -0.6117774344677258 
1.1699999999998876, -0.6117649001250507 
1.1799999999998865, -0.6119459594971601 
1.1899999999998854, -0.6123471861123242 
1.1999999999998843, -0.6129962054419167 
1.2099999999998832, -0.6139193874947225 
1.219999999999882, -0.6151370669515452 
1.229999999999881, -0.6166548709795829 
1.2399999999998799, -0.6184507220814642 
1.2499999999998788, -0.620460418872666 
1.2599999999998777, -0.6225702593440928 
1.2699999999998766, -0.6246284435837397 
1.2799999999998755, -0.6264796111349178 
1.2899999999998744, -0.6280083003149498 
1.2999999999998733, -0.6291653693334978 
1.3099999999998722, -0.6299636797950193 
1.319999999999871, -0.630452922593822 
1.32999999999987, -0.6306927074861466 
1.3399999999998689, -0.6307350196701864 
1.3499999999998678, -0.6306165120394449 
1.3599999999998666, -0.6303564991877693 
1.3699999999998655, -0.629956699888876 
1.3799999999998644, -0.629400295068421 
1.3899999999998633, -0.6286490942359257 
1.3999999999998622, -0.6276385241982168 
1.4099999999998611, -0.6262716020921543 
1.41999999999986, -0.6244164349913206 
1.429999999999859, -0.6219182232812821 
1.4399999999998578, -0.6186429681531112 
1.4499999999998567, -0.614561302497856 
1.4599999999998556, -0.6098388286105199 
1.4699999999998545, -0.604850347844065 
1.4799999999998534, -0.600066370914446 
1.4899999999998523, -0.5958794817597641 
1.4999999999998512, -0.5924953168907184 
1.5099999999998501, -0.5899345738593946 
1.519999999999849, -0.588099474120947 
1.529999999999848, -0.5868442468974229 
1.5399999999998468, -0.5860218507564386 
1.5499999999998457, -0.5855062519147234 
1.5599999999998446, -0.5851987831233966 
1.5699999999998435, -0.5850264956473692 
1.5799999999998424, -0.5849374694038714 
1.5899999999998413, -0.5848956571402532 
1.5999999999998402, -0.5848764306749006 
1.6099999999998391, -0.5848632855587773 
1.619999999999838, -0.5848458048234604 
1.629999999999837, -0.584818714367694 
1.6399999999998358, -0.5847815175448611 
1.6499999999998347, -0.5847378205769724 
1.6599999999998336, -0.5846934025050727 
1.6699999999998325, -0.5846527687195497 
1.6799999999998314, -0.5846152510568391 
1.6899999999998303, -0.5845727369092237 
1.6999999999998292, -0.5845107232380431 
1.709999999999828, -0.584412507891336 
1.719999999999827, -0.5842642974150662 
1.729999999999826, -0.5840585838347315 
1.7399999999998248, -0.5837946644766674 
1.7499999999998237, -0.5834771463857579 
1.7599999999998226, -0.583114130481248 
1.7699999999998215, -0.5827164208524549 
1.7799999999998204, -0.5822984130233517 
1.7899999999998193, -0.58188090511526 
1.7999999999998182, -0.5814959723733071 
1.809999999999817, -0.5811939188835445 
1.819999999999816, -0.5810516642371824 
1.8299999999998149, -0.5811800306701264 
1.8399999999998138, -0.5817235055048781 
1.8499999999998127, -0.5828405735859197 
1.8599999999998116, -0.584650800715761 
1.8699999999998105, -0.5871502345079579 
1.8799999999998094, -0.5901405807862041 
1.8899999999998083, -0.5932556450139078 
1.8999999999998072, -0.5961124230008311 
1.909999999999806, -0.5984752972054137 
1.919999999999805, -0.600297271701123 
1.9299999999998039, -0.6016470926464754 
1.9399999999998028, -0.6026240735587207 
1.9499999999998017, -0.6033152237767518 
1.9599999999998006, -0.6037861151331911 
1.9699999999997995, -0.6040839546820436 
1.9799999999997984, -0.6042418341835855 
1.9899999999997973, -0.604281503570887 
1.9999999999997962, -0.6042148298069191 
2.0099999999998173, -0.6040444894013598 
2.0199999999998384, -0.6037644216222205 
2.0299999999998595, -0.6033607521019997 
2.0399999999998806, -0.6028142818420483 
2.0499999999999017, -0.6021058274475428 
2.059999999999923, -0.6012248606079978 
2.069999999999944, -0.6001793323757516 
2.079999999999965, -0.5990014277341205 
2.089999999999986, -0.597744001495675 
2.100000000000007, -0.5964679164450624 
2.1100000000000283, -0.5952271749480051 
2.1200000000000494, -0.594059642992464 
2.1300000000000705, -0.5929860174418804 
2.1400000000000916, -0.5920144275998798 
2.1500000000001127, -0.5911465945860732 
2.160000000000134, -0.5903828825405072 
2.170000000000155, -0.5897254618040686 
2.180000000000176, -0.5891799056300252 
2.190000000000197, -0.5887558274216118 
2.2000000000002182, -0.5884670449399678 
2.2100000000002393, -0.5883315597311412 
2.2200000000002604, -0.588371485256153 
2.2300000000002815, -0.5886129244651512 
2.2400000000003026, -0.5890856081016641 
2.2500000000003237, -0.5898217763007669 
2.260000000000345, -0.590853281499232 
2.270000000000366, -0.5922053331051942 
2.280000000000387, -0.5938852174601739 
2.290000000000408, -0.5958658992467016 
2.3000000000004293, -0.5980690798777346 
2.3100000000004504, -0.600359235642981 
2.3200000000004715, -0.6025623935002345 
2.3300000000004926, -0.6045108194873383 
2.3400000000005137, -0.6060915427383172 
2.3500000000005348, -0.6072685776462345 
2.360000000000556, -0.6080698758170545 
2.370000000000577, -0.6085560966315395 
2.380000000000598, -0.6087924582165737 
2.390000000000619, -0.6088326115731426 
2.4000000000006403, -0.6087126322413043 
2.4100000000006614, -0.6084500247375378 
2.4200000000006825, -0.6080437523122769 
2.4300000000007036, -0.6074731051671268 
2.4400000000007247, -0.6066945243786714 
2.450000000000746, -0.6056366884827941 
2.460000000000767, -0.6041963343037803 
2.470000000000788, -0.6022416537792536 
2.480000000000809, -0.5996360084046506 
2.49000000000083, -0.5962944921245712 
2.5000000000008513, -0.592263965465671 
2.5100000000008724, -0.5877743222931517 
2.5200000000008935, -0.5831972685996583 
2.5300000000009146, -0.5789188988648628 
2.5400000000009357, -0.5752151585872292 
2.550000000000957, -0.5722053793806539 
2.560000000000978, -0.5698799223879444 
2.570000000000999, -0.5681551694020259 
2.58000000000102, -0.5669205121068256 
2.5900000000010412, -0.566066791626287 
2.6000000000010624, -0.565499367250854 
2.6100000000010835, -0.5651419358120864 
2.6200000000011046, -0.5649358112823598 
2.6300000000011257, -0.564837423724253 
2.6400000000011468, -0.5648154446496182 
2.650000000001168, -0.5648482000509524 
2.660000000001189, -0.5649216472877794 
2.67000000000121, -0.5650279448418919 
2.680000000001231, -0.5651643849644783 
2.6900000000012523, -0.5653321510233471 
2.7000000000012734, -0.5655341573602354 
2.7100000000012945, -0.5657714728256003 
2.7200000000013156, -0.5660387828360333 
2.7300000000013367, -0.566320716265413 
2.740000000001358, -0.5665915976147748 
2.750000000001379, -0.5668200541654242 
2.7600000000014, -0.5669769381825119 
2.770000000001421, -0.5670424550610339 
2.780000000001442, -0.5670088799086923 
2.7900000000014633, -0.566878457433535 
2.8000000000014844, -0.5666588507525587 
2.8100000000015055, -0.5663588207243733 
2.8200000000015266, -0.5659855208665767 
2.8300000000015477, -0.5655435510812963 
2.840000000001569, -0.565035400506892 
2.85000000000159, -0.5644628860140358 
2.860000000001611, -0.5638291663232772 
2.870000000001632, -0.5631404119966963 
2.8800000000016532, -0.5624048570524866 
2.8900000000016743, -0.5616250566141799 
2.9000000000016954, -0.5607797166855024 
2.9100000000017165, -0.5598020243105541 
2.9200000000017377, -0.5585853768492725 
2.9300000000017588, -0.5570541755133678 
2.94000000000178, -0.5552696035548156 
2.950000000001801, -0.5534504590738167 
2.960000000001822, -0.5518555581299813 
2.970000000001843, -0.5506441931846587 
2.9800000000018643, -0.549836159058036 
2.9900000000018854, -0.5493593340687256 
3.0000000000019065, -0.5491126709843909 
3.0100000000019276, -0.5490049462616763 
3.0200000000019487, -0.5489680795360706 
3.03000000000197, -0.5489563539313982 
3.040000000001991, -0.548940728830282 
3.050000000002012, -0.5489028573014603 
3.060000000002033, -0.5488304569166939 
3.070000000002054, -0.5487143935989949 
3.0800000000020753, -0.5485474696026507 
3.0900000000020964, -0.5483248273472485 
3.1000000000021175, -0.5480456479040404 
3.1100000000021386, -0.5477152261606428 
3.1200000000021597, -0.5473458223453809 
3.130000000002181, -0.5469547681825502 
3.140000000002202, -0.5465597731530147 
3.150000000002223, -0.5461734563807015 
3.160000000002244, -0.5457999839157903 
3.1700000000022652, -0.5454354464855958 
3.1800000000022863, -0.5450713380109701 
3.1900000000023074, -0.5446989655023298 
3.2000000000023285, -0.5443127406487555 
3.2100000000023496, -0.543911614251079 
3.2200000000023707, -0.5434992307250299 
3.230000000002392, -0.5430839080041174 
3.240000000002413, -0.5426793737299366 
3.250000000002434, -0.5423068105303475 
3.260000000002455, -0.541998496527003 
3.2700000000024763, -0.5418031466785751 
3.2800000000024974, -0.5417927003659078 
3.2900000000025185, -0.5420693013883543 
3.3000000000025396, -0.5427689054491771 
3.3100000000025607, -0.5440537310399065 
3.3200000000025818, -0.5460807036932339 
3.330000000002603, -0.5489338543905082 
3.340000000002624, -0.552530554592724 
3.350000000002645, -0.5565616497923613 
3.360000000002666, -0.5605550767457506 
3.3700000000026873, -0.5640684016359773 
3.3800000000027084, -0.5668652866121014 
3.3900000000027295, -0.5689373968226479 
3.4000000000027506, -0.5704053619185803 
3.4100000000027717, -0.5714165105490923 
3.420000000002793, -0.5720945860366338 
3.430000000002814, -0.5725294698209804 
3.440000000002835, -0.572782361845324 
3.450000000002856, -0.57289309631794 
3.460000000002877, -0.5728856243699397 
3.4700000000028983, -0.572771417226436 
3.4800000000029194, -0.572551469793599 
3.4900000000029405, -0.5722177864280817 
3.5000000000029616, -0.5717554549687652 
3.5100000000029827, -0.5711466571290071 
3.520000000003004, -0.5703776657945097 
3.530000000003025, -0.5694481846997216 
3.540000000003046, -0.5683793153810032 
3.550000000003067, -0.5672145109254235 
3.5600000000030882, -0.5660107285151048 
3.5700000000031094, -0.5648238019656955 
3.5800000000031305, -0.5636961813678526 
3.5900000000031516, -0.5626524341959781 
3.6000000000031727, -0.561702005264072 
3.6100000000031938, -0.5608453598515348 
3.620000000003215, -0.5600799755680512 
3.630000000003236, -0.5594045759697884 
3.640000000003257, -0.5588215769272759 
3.650000000003278, -0.5583383759737883 
3.6600000000032993, -0.557968120464659 
3.6700000000033204, -0.557730356287218 
3.6800000000033415, -0.5576517292826936 
3.6900000000033626, -0.557766736392437 
3.7000000000033837, -0.5581183354482844 
3.710000000003405, -0.5587578989899791 
3.720000000003426, -0.5597434014549111 
3.730000000003447, -0.5611338015588282 
3.740000000003468, -0.5629766257382298 
3.750000000003489, -0.5652860360541399 
3.7600000000035103, -0.5680128930208546 
3.7700000000035314, -0.5710189272062121 
3.7800000000035525, -0.5740792170278122 
3.7900000000035736, -0.5769323530101698 
3.8000000000035947, -0.5793625013832157 
3.810000000003616, -0.5812616039010454 
3.820000000003637, -0.5826334538543049 
3.830000000003658, -0.583552157084368 
3.840000000003679, -0.584113658100413 
3.8500000000037002, -0.5844045061340817 
3.8600000000037213, -0.584489401202144 
3.8700000000037424, -0.58440954916044 
3.8800000000037635, -0.5841846538009319 
3.8900000000037847, -0.5838146873791807 
3.9000000000038058, -0.583280034196315 
3.910000000003827, -0.5825401324124347 
3.920000000003848, -0.5815322869271676 
3.930000000003869, -0.5801747254897774 
3.94000000000389, -0.5783808034321276 
3.9500000000039113, -0.5760907578447219 
3.9600000000039324, -0.5733165599286097 
3.9700000000039535, -0.5701745975987531 
3.9800000000039746, -0.566872897456809 
3.9900000000039957, -0.5636492093305359 
4.000000000004016, -0.5606992825559987 
4.010000000003993, -0.5581383106373325 
4.02000000000397, -0.5560036754910322 
4.030000000003946, -0.5542795824703688 
4.040000000003923, -0.5529232176270324 
4.0500000000039, -0.5518832113214583 
4.0600000000038765, -0.5511098265004001 
4.070000000003853, -0.550559441176613 
4.08000000000383, -0.5501959212457435 
4.090000000003807, -0.5499906050610416 
4.100000000003783, -0.5499218212271411 
4.11000000000376, -0.5499743498716759 
4.120000000003737, -0.550138950483671 
4.130000000003713, -0.5504118932928638 
4.14000000000369, -0.550794237556203 
4.150000000003667, -0.5512903461687176 
4.1600000000036434, -0.5519048854287909 
4.17000000000362, -0.5526376206285708 
4.180000000003597, -0.5534761701054048 
4.1900000000035735, -0.5543888454513447 
4.20000000000355, -0.5553220578992194 
4.210000000003527, -0.5562069784709817 
4.220000000003504, -0.556975505485991 
4.23000000000348, -0.5575780944088685 
4.240000000003457, -0.5579933054687511 
4.250000000003434, -0.5582250655338072 
4.26000000000341, -0.5582921143207629 
4.270000000003387, -0.5582167335159643 
4.280000000003364, -0.5580167873057678 
4.2900000000033405, -0.5577013046710733 
4.300000000003317, -0.5572680306900806 
4.310000000003294, -0.5567012087205296 
4.320000000003271, -0.5559682349340697 
4.330000000003247, -0.5550142560941276 
4.340000000003224, -0.5537545897204817 
4.350000000003201, -0.5520673524394761 
4.360000000003177, -0.5497951414703054 
4.370000000003154, -0.5467750591436751 
4.380000000003131, -0.5429181356972347 
4.390000000003107, -0.5383222635130431 
4.400000000003084, -0.5333293794332984 
4.410000000003061, -0.5284326666296649 
4.4200000000030375, -0.5240775808876109 
4.430000000003014, -0.5205142446496074 
4.440000000002991, -0.5177845258118214 
4.450000000002968, -0.5157955802387215 
4.460000000002944, -0.5144013277188784 
4.470000000002921, -0.5134550084402354 
4.480000000002898, -0.5128325713112389 
4.490000000002874, -0.5124382393710891 
4.500000000002851, -0.5122019879657179 
4.510000000002828, -0.5120745010501324 
4.520000000002804, -0.5120221433272747 
4.530000000002781, -0.5120228796587344 
4.540000000002758, -0.5120633536391891 
4.5500000000027345, -0.5121370217565101 
4.560000000002711, -0.512243022398348 
4.570000000002688, -0.5123851955807592 
4.580000000002665, -0.5125704097453363 
4.590000000002641, -0.5128053749737689 
4.600000000002618, -0.5130917892767262 
4.610000000002595, -0.513421029530916 
4.620000000002571, -0.5137710216904543 
4.630000000002548, -0.5141080951556033 
4.640000000002525, -0.5143944191080433 
4.6500000000025015, -0.5145978477163579 
4.660000000002478, -0.5146989401999779 
4.670000000002455, -0.5146919675807118 
4.6800000000024315, -0.5145808706965501 
4.690000000002408, -0.5143734345191338 
4.700000000002385, -0.5140762890421704 
4.710000000002362, -0.5136915401785825 
4.720000000002338, -0.5132145527125077 
4.730000000002315, -0.512631928808511 
4.740000000002292, -0.5119186055763008 
4.750000000002268, -0.5110328620459159 
4.760000000002245, -0.5099080062529697 
4.770000000002222, -0.5084408470082616 
4.7800000000021985, -0.5064830391460454 
4.790000000002175, -0.5038556052623127 
4.800000000002152, -0.5004199731032137 
4.810000000002129, -0.49620950545744574 
4.820000000002105, -0.49152823606745877 
4.830000000002082, -0.48687873306544116 
4.840000000002059, -0.48273828438313043 
4.850000000002035, -0.47937683378336526 
4.860000000002012, -0.47683582315057127 
4.870000000001989, -0.4750128522152647 
4.880000000001965, -0.4737540542351029 
4.890000000001942, -0.47291049470818336 
4.900000000001919, -0.4723607277992839 
4.9100000000018955, -0.4720142094729698 
4.920000000001872, -0.47180697626600876 
