t, s[1].omega / s[0].omega 
0, -2.099996661325657 
0.009999999999999995, -2.0994947876950656 
0.019999999999999934, -2.0986445273371235 
0.029999999999999874, -2.0974201248918343 
0.04000000000000012, -2.0958742814389195 
0.050000000000000405, -2.0943129891365833 
0.06000000000000069, -2.093287599009269 
0.07000000000000098, -2.0930132489453706 
0.08000000000000126, -2.0930902995784453 
0.09000000000000155, -2.093102479601609 
0.10000000000000184, -2.09290904978537 
0.11000000000000212, -2.0925030335096357 
0.12000000000000241, -2.091922363467749 
0.130000000000002, -2.0913098456912937 
0.1400000000000009, -2.090983031346095 
0.1499999999999998, -2.0911871913147433 
0.1599999999999987, -2.0917463701806214 
0.1699999999999976, -2.0922929303795574 
0.1799999999999965, -2.0926120421122834 
0.1899999999999954, -2.0926402830843553 
0.1999999999999943, -2.0923611628907475 
0.2099999999999932, -2.0917441429235653 
0.2199999999999921, -2.0907234657117835 
0.229999999999991, -2.0892205367658567 
0.2399999999999899, -2.087271204866355 
0.2499999999999888, -2.085301169420824 
0.2599999999999877, -2.0841066365109318 
0.2699999999999866, -2.083943253700476 
0.2799999999999855, -2.0842030346637492 
0.2899999999999844, -2.084347443091348 
0.2999999999999833, -2.084238936766238 
0.3099999999999822, -2.083902621874562 
0.3199999999999811, -2.083397942185002 
0.32999999999998, -2.082851659430037 
0.3399999999999789, -2.0825018988768464 
0.3499999999999778, -2.082530684962364 
0.35999999999997667, -2.0828342953231638 
0.36999999999997557, -2.0831597429221427 
0.37999999999997447, -2.0833324061173992 
0.38999999999997337, -2.0832731762846235 
0.39999999999997227, -2.0829351069067217 
0.40999999999997117, -2.082253433949716 
0.41999999999997006, -2.081118069861354 
0.42999999999996896, -2.0793913449373327 
0.43999999999996786, -2.077067277291529 
0.44999999999996676, -2.074665073350123 
0.45999999999996566, -2.073261431698594 
0.46999999999996456, -2.0732210875452237 
0.47999999999996346, -2.0737151784216556 
0.48999999999996235, -2.0740394331560164 
0.49999999999996125, -2.074044918484682 
0.5099999999999602, -2.073788678598511 
0.519999999999959, -2.0733496856636173 
0.529999999999958, -2.0728384110358204 
0.5399999999999568, -2.072438377833988 
0.5499999999999557, -2.072310575447428 
0.5599999999999546, -2.0724215054077115 
0.5699999999999535, -2.0725969016824726 
0.5799999999999524, -2.072684060773589 
0.5899999999999513, -2.07259012129711 
0.5999999999999502, -2.072247844137331 
0.6099999999999491, -2.0715725271327985 
0.619999999999948, -2.070425620758222 
0.6299999999999469, -2.0686168026502507 
0.6399999999999458, -2.066061572917336 
0.6499999999999447, -2.063265861744566 
0.6599999999999436, -2.0615505759035195 
0.6699999999999425, -2.0615620196557978 
0.6799999999999414, -2.062326855810838 
0.6899999999999403, -2.062895945139455 
0.6999999999999392, -2.0630618249227717 
0.7099999999999381, -2.062909113133374 
0.719999999999937, -2.0625410568044407 
0.7299999999999359, -2.062059669908092 
0.7399999999999348, -2.061610342048417 
0.7499999999999337, -2.061346473301197 
0.7599999999999326, -2.061298492432072 
0.7699999999999315, -2.0613590451557524 
0.7799999999999304, -2.061394814809101 
0.7899999999999293, -2.0613025984877154 
0.7999999999999282, -2.0610015246648454 
0.8099999999999271, -2.0604005983014813 
0.819999999999926, -2.0593562831388317 
0.8299999999999249, -2.057651320144222 
0.8399999999999238, -2.055104366529659 
0.8499999999999227, -2.0520493609198547 
0.8599999999999216, -2.049867752726908 
0.8699999999999205, -2.0497087180905944 
0.8799999999999194, -2.0507193636786964 
0.8899999999999183, -2.051612554621573 
0.8999999999999172, -2.0520109785991307 
0.9099999999999161, -2.0520048386742955 
0.919999999999915, -2.0517301466586284 
0.9299999999999139, -2.05129408424437 
0.9399999999999128, -2.0508159325630677 
0.9499999999999117, -2.0504389150403797 
0.9599999999999106, -2.0502463899037284 
0.9699999999999095, -2.050198816681365 
0.9799999999999084, -2.050191108138332 
0.9899999999999073, -2.050116328127872 
0.9999999999999062, -2.049882594632769 
1.0099999999999052, -2.049399278599158 
1.019999999999904, -2.0485375661462784 
1.029999999999903, -2.047089768726648 
1.039999999999902, -2.0448069144065264 
1.0499999999999008, -2.0417480855362244 
1.0599999999998997, -2.0390191192139495 
1.0699999999998986, -2.0382897946541463 
1.0799999999998975, -2.0393542433235536 
1.0899999999998964, -2.040630956277663 
1.0999999999998953, -2.0413654469547944 
1.1099999999998942, -2.041577542822253 
1.119999999999893, -2.041438711961928 
1.129999999999892, -2.041080043155705 
1.1399999999998909, -2.0406096182707714 
1.1499999999998898, -2.040153394190424 
1.1599999999998887, -2.039827426160717 
1.1699999999998876, -2.0396610601783838 
1.1799999999998865, -2.0395939644450882 
1.1899999999998854, -2.039529116623996 
1.1999999999998843, -2.0393665766437707 
1.2099999999998832, -2.0390136875827776 
1.219999999999882, -2.038362072419853 
1.229999999999881, -2.0372411107005344 
1.2399999999998799, -2.0353972662809734 
1.2499999999998788, -2.0326577853619954 
1.2599999999998777, -2.0295703442149273 
1.2699999999998766, -2.027861518031014 
1.2799999999998755, -2.028479719853816 
1.2899999999998744, -2.030062613012448 
1.2999999999998733, -2.0312518977475147 
1.3099999999998722, -2.031793973042188 
1.319999999999871, -2.031861649045516 
1.32999999999987, -2.031628882084917 
1.3399999999998689, -2.0312152712272624 
1.3499999999998678, -2.0307306083030765 
1.3599999999998666, -2.0302970995938487 
1.3699999999998655, -2.030001087266789 
1.3799999999998644, -2.029843206114152 
1.3899999999998633, -2.02975742380501 
1.3999999999998622, -2.0296473081838613 
1.4099999999998611, -2.0294135994284144 
1.41999999999986, -2.0289592652892585 
1.429999999999859, -2.0281557425260917 
1.4399999999998578, -2.026796428776762 
1.4499999999998567, -2.024619768596801 
1.4599999999998556, -2.0216446950412554 
1.4699999999998545, -2.0189643077664643 
1.4799999999998534, -2.0183924747044033 
1.4899999999998523, -2.0198223263225374 
1.4999999999998512, -2.021498799067897 
1.5099999999998501, -2.022522443557128 
1.519999999999849, -2.022911000569674 
1.529999999999848, -2.022876988257872 
1.5399999999998468, -2.022580061829891 
1.5499999999998457, -2.0221318269958064 
1.5599999999998446, -2.021643007291481 
1.5699999999998435, -2.0212274166006994 
1.5799999999998424, -2.0209494234042937 
1.5899999999998413, -2.020795639231475 
1.5999999999998402, -2.0206955906786557 
1.6099999999998391, -2.0205502706035547 
1.619999999999838, -2.020260250357116 
1.629999999999837, -2.019723072373524 
1.6399999999998358, -2.0187918323418517 
1.6499999999998347, -2.0172359727695897 
1.6599999999998336, -2.0148231147301128 
1.6699999999998325, -2.0118154479003394 
1.6799999999998314, -2.0097041752947566 
1.6899999999998303, -2.0099959186346186 
1.6999999999998292, -2.0117998145614306 
1.709999999999828, -2.0134166398549547 
1.719999999999827, -2.0142966708107597 
1.729999999999826, -2.0145785998455352 
1.7399999999998248, -2.014477055772868 
1.7499999999998237, -2.014138319861343 
1.7599999999998226, -2.013669475729306 
1.7699999999998215, -2.0131811585290844 
1.7799999999998204, -2.0127790135395243 
1.7899999999998193, -2.012513532060538 
1.7999999999998182, -2.0123634665100374 
1.809999999999817, -2.012253704984729 
1.819999999999816, -2.012083020912243 
1.8299999999998149, -2.0117520696609072 
1.8399999999998138, -2.0111535303901023 
1.8499999999998127, -2.0101268770072083 
1.8599999999998116, -2.0084296995436217 
1.8699999999998105, -2.005874838631927 
1.8799999999998094, -2.0029340846515526 
1.8899999999998083, -2.0012995614041644 
1.8999999999998072, -2.0021034419333823 
1.909999999999806, -2.00404287745529 
1.919999999999805, -2.0055788122894507 
1.9299999999998039, -2.006361714969627 
1.9399999999998028, -2.006578090989973 
1.9499999999998017, -2.006436089470692 
1.9599999999998006, -2.0060730133115836 
1.9699999999997995, -2.0055935871966084 
1.9799999999997984, -2.0051079862225647 
1.9899999999997973, -2.0047161543963012 
1.9999999999997962, -2.004460499184059 
2.0099999999998173, -2.004314694177101 
2.0199999999998384, -2.004200101915054 
2.0299999999998595, -2.0040146314773124 
2.0399999999998806, -2.003659395387471 
2.0499999999999017, -2.0030240788141898 
2.059999999999923, -2.00194056593977 
2.069999999999944, -2.000162538786257 
2.079999999999965, -1.9975367086275333 
2.089999999999986, -1.9946529762053493 
2.100000000000007, -1.993267210416258 
2.1100000000000283, -1.9942835343016445 
2.1200000000000494, -1.996249388643308 
2.1300000000000705, -1.99773239821433 
2.1400000000000916, -1.998466855773072 
2.1500000000001127, -1.9986529735442633 
2.160000000000134, -1.9984933005053656 
2.170000000000155, -1.9981205061998675 
2.180000000000176, -1.997638200004922 
2.190000000000197, -1.9971563552307778 
2.2000000000002182, -1.9967724267532314 
2.2100000000002393, -1.9965249087122152 
2.2200000000002604, -1.99638437682018 
2.2300000000002815, -1.9962706085371291 
2.2400000000003026, -1.9960819364130422 
2.2500000000003237, -1.9957203975390765 
2.260000000000345, -1.9950754474577554 
2.270000000000366, -1.993977881136928 
2.280000000000387, -1.992181470777161 
2.290000000000408, -1.9895369959760063 
2.3000000000004293, -1.9866373639305421 
2.3100000000004504, -1.9852247418009152 
2.3200000000004715, -1.9861990955570594 
2.3300000000004926, -1.9881340204093998 
2.3400000000005137, -1.9896052421554475 
2.3500000000005348, -1.9903381075126334 
2.360000000000556, -1.9905262687929526 
2.370000000000577, -1.9903698352518664 
2.380000000000598, -1.990000654511353 
2.390000000000619, -1.9895219605535484 
2.4000000000006403, -1.989044056542283 
2.4100000000006614, -1.9886655246253717 
2.4200000000006825, -1.9884248256459465 
2.4300000000007036, -1.9882912838829339 
2.4400000000007247, -1.988184979753615 
2.450000000000746, -1.9880056981710361 
2.460000000000767, -1.9876569697095328 
2.470000000000788, -1.9870312129314383 
2.480000000000809, -1.9859650468646695 
2.49000000000083, -1.9842162398467031 
2.5000000000008513, -1.981608670672406 
2.5100000000008724, -1.9786225189814792 
2.5200000000008935, -1.9769081521423566 
2.5300000000009146, -1.9775785857798192 
2.5400000000009357, -1.9794143014929522 
2.550000000000957, -1.9809092490561162 
2.560000000000978, -1.9816859276938128 
2.570000000000999, -1.9819084093676107 
2.58000000000102, -1.9817763427212198 
2.5900000000010412, -1.9814241994878556 
2.6000000000010624, -1.9809553319103959 
2.6100000000010835, -1.9804806588750523 
2.6200000000011046, -1.980103959946108 
2.6300000000011257, -1.9798686945462076 
2.6400000000011468, -1.9797448556951296 
2.650000000001168, -1.9796538404409652 
2.660000000001189, -1.9794975710454104 
2.67000000000121, -1.9791816123403176 
2.680000000001231, -1.9786044077960696 
2.6900000000012523, -1.9776157143686368 
2.7000000000012734, -1.9759854274906534 
2.7100000000012945, -1.973496959004232 
2.7200000000013156, -1.9704258035911022 
2.7300000000013367, -1.9681928845378203 
2.740000000001358, -1.9682444554369298 
2.750000000001379, -1.9698362287675757 
2.7600000000014, -1.971361372821748 
2.770000000001421, -1.9722241913824026 
2.780000000001442, -1.9725156941628712 
2.7900000000014633, -1.9724313939677152 
2.8000000000014844, -1.9721113285209575 
2.8100000000015055, -1.9716594300620898 
2.8200000000015266, -1.9711865001504403 
2.8300000000015477, -1.970805532735255 
2.840000000001569, -1.970572898675003 
2.85000000000159, -1.9704624532570947 
2.860000000001611, -1.9703962122970544 
2.870000000001632, -1.970277947254014 
2.8800000000016532, -1.9700154381191175 
2.8900000000016743, -1.9695153273594965 
2.9000000000016954, -1.9686473101640598 
2.9100000000017165, -1.9672066759491948 
2.9200000000017377, -1.9649516135031988 
2.9300000000017588, -1.9619228091304208 
2.94000000000178, -1.9591244016107339 
2.950000000001801, -1.9582173234652416 
2.960000000001822, -1.959268235500388 
2.970000000001843, -1.960749911048028 
2.9800000000018643, -1.9617256821373794 
2.9900000000018854, -1.9621235745729468 
3.0000000000019065, -1.9621147058701447 
3.0100000000019276, -1.9618452333294694 
3.0200000000019487, -1.961420336360194 
3.03000000000197, -1.9609480718152383 
3.040000000001991, -1.9605522864186047 
3.050000000002012, -1.960314261375748 
3.060000000002033, -1.9602202911300886 
3.070000000002054, -1.9601907432072807 
3.0800000000020753, -1.9601280159909649 
3.0900000000020964, -1.9599409630730515 
3.1000000000021175, -1.9595447555203767 
3.1100000000021386, -1.958833240347316 
3.1200000000021597, -1.9576409393226002 
3.130000000002181, -1.9557388399967834 
3.140000000002202, -1.95299243537407 
3.150000000002223, -1.9498800346934726 
3.160000000002244, -1.9478545547472597 
3.1700000000022652, -1.9479009948409378 
3.1800000000022863, -1.9490859576640367 
3.1900000000023074, -1.950141730783023 
3.2000000000023285, -1.9506772921469622 
3.2100000000023496, -1.9507762983006003 
3.2200000000023707, -1.9505813244927925 
3.230000000002392, -1.950199195178899 
3.240000000002413, -1.949730725131717 
3.250000000002434, -1.9493050521023014 
3.260000000002455, -1.9490408759496103 
3.2700000000024763, -1.9489588365780848 
3.2800000000024974, -1.948979696841371 
3.2900000000025185, -1.9489951685990552 
3.3000000000025396, -1.9489095118049236 
3.3100000000025607, -1.9486435275885345 
3.3200000000025818, -1.9481145705911036 
3.330000000002603, -1.9472033502191521 
3.340000000002624, -1.9457307022729133 
3.350000000002645, -1.943504381332844 
3.360000000002666, -1.9405846272612675 
3.3700000000026873, -1.937792107735362 
3.3800000000027084, -1.9364806168944089 
3.3900000000027295, -1.936857283755753 
3.4000000000027506, -1.9377912238215853 
3.4100000000027717, -1.9384505874960005 
3.420000000002793, -1.9386872306589056 
3.430000000002814, -1.9385962148902962 
3.440000000002835, -1.9382809001523644 
3.450000000002856, -1.9378305299640175 
3.460000000002877, -1.9373632944331967 
3.4700000000028983, -1.9370327209313458 
3.4800000000029194, -1.9369313134083863 
3.4900000000029405, -1.93700784127708 
3.5000000000029616, -1.9371314795351524 
3.5100000000029827, -1.9371835871632086 
3.520000000003004, -1.9370801435626905 
3.530000000003025, -1.9367549534083708 
3.540000000003046, -1.9361308480538608 
3.550000000003067, -1.9350928323965721 
3.5600000000030882, -1.9334857776539427 
3.5700000000031094, -1.9311995925085603 
3.5800000000031305, -1.928454618622214 
3.5900000000031516, -1.9261336231397876 
3.6000000000031727, -1.925224939201366 
3.6100000000031938, -1.92555224769989 
3.620000000003215, -1.9261695458753345 
3.630000000003236, -1.9265345533614133 
3.640000000003257, -1.9265742234897505 
3.650000000003278, -1.9263567262621824 
3.6600000000032993, -1.9259554170580873 
3.6700000000033204, -1.9254583203351796 
3.6800000000033415, -1.925016251099689 
3.6900000000033626, -1.9248110892148191 
3.7000000000033837, -1.9248996783749337 
3.710000000003405, -1.9251548617142844 
3.720000000003426, -1.9253999949294252 
3.730000000003447, -1.925512946599462 
3.740000000003468, -1.9254252124929454 
3.750000000003489, -1.92508794927814 
3.7600000000035103, -1.924441546363981 
3.7700000000035314, -1.9233983710233626 
3.7800000000035525, -1.9218548530321893 
3.7900000000035736, -1.9197806197773268 
3.8000000000035947, -1.917443769058282 
3.810000000003616, -1.9155753467535388 
3.820000000003637, -1.9148323480857943 
3.830000000003658, -1.9149825206264839 
3.840000000003679, -1.9153293795558828 
3.8500000000037002, -1.9154877551431084 
3.8600000000037213, -1.9153938199311273 
3.8700000000037424, -1.9150831190876207 
3.8800000000037635, -1.9146060164444099 
3.8900000000037847, -1.9140575932147244 
3.9000000000038058, -1.9136364556640288 
3.910000000003827, -1.9135731175955009 
3.920000000003848, -1.913895138969449 
3.930000000003869, -1.9143868302067961 
3.94000000000389, -1.914812194933576 
3.9500000000039113, -1.91504150531613 
3.9600000000039324, -1.915024591982548 
3.9700000000039535, -1.9147378004605904 
3.9800000000039746, -1.9141514333038774 
3.9900000000039957, -1.9132186312308517 
4.000000000004016, -1.9118909316351633 
4.010000000003993, -1.91018690497067 
4.02000000000397, -1.9083372268338965 
4.030000000003946, -1.906859598742629 
4.040000000003923, -1.9061880660725286 
4.0500000000039, -1.9061646244284294 
4.0600000000038765, -1.9063071293969702 
4.070000000003853, -1.9063203123587003 
4.08000000000383, -1.9061298490742797 
4.090000000003807, -1.905739481596008 
4.100000000003783, -1.9051760621266822 
4.11000000000376, -1.9045395557740559 
4.120000000003737, -1.9040928803887944 
4.130000000003713, -1.9041647526039138 
4.14000000000369, -1.904785108450938 
4.150000000003667, -1.9056194268862796 
4.1600000000036434, -1.9063283517455585 
4.17000000000362, -1.9067572609154524 
4.180000000003597, -1.9068771965849696 
4.1900000000035735, -1.906699030978934 
4.20000000000355, -1.9062311118336652 
4.210000000003527, -1.905468995522964 
4.220000000003504, -1.904408839739381 
4.23000000000348, -1.9030926726772524 
4.240000000003457, -1.901691443055046 
4.250000000003434, -1.9005417595542944 
4.26000000000341, -1.8999317737082937 
4.270000000003387, -1.8997857715521433 
4.280000000003364, -1.8997843809125405 
4.2900000000033405, -1.8996944937243216 
4.300000000003317, -1.8994293727956175 
4.310000000003294, -1.898961727560962 
4.320000000003271, -1.8982863930856582 
4.330000000003247, -1.8974896710294833 
4.340000000003224, -1.896902274403684 
4.350000000003201, -1.8970326632009757 
4.360000000003177, -1.8980027013572656 
4.370000000003154, -1.899321991844269 
4.380000000003131, -1.90045696500053 
4.390000000003107, -1.9011874431991458 
4.400000000003084, -1.9015079399819392 
4.410000000003061, -1.9014766323272556 
4.4200000000030375, -1.9011476715788536 
4.430000000003014, -1.9005573915879332 
4.440000000002991, -1.8997363134792546 
4.450000000002968, -1.8987396753373507 
4.460000000002944, -1.8976926161386287 
4.470000000002921, -1.896808042537923 
4.480000000002898, -1.8962737638723772 
4.490000000002874, -1.8960630495944 
4.500000000002851, -1.895969005022073 
4.510000000002828, -1.8958072950536788 
4.520000000002804, -1.8954826460447385 
4.530000000002781, -1.8949376310051664 
4.540000000002758, -1.894122339105539 
4.5500000000027345, -1.8930711148622479 
4.560000000002711, -1.8921388091190692 
4.570000000002688, -1.8920846540642828 
4.580000000002665, -1.8933163767129373 
4.590000000002641, -1.8952145769262523 
4.600000000002618, -1.8969107021771787 
4.610000000002595, -1.898034042691427 
4.620000000002571, -1.8985976311169417 
4.630000000002548, -1.8987236988726597 
4.640000000002525, -1.8985225384497224 
4.6500000000025015, -1.898071174085961 
4.660000000002478, -1.8974284252205886 
4.670000000002455, -1.8966611972947014 
4.6800000000024315, -1.8958696047169927 
4.690000000002408, -1.895191574773392 
4.700000000002385, -1.8947442817137765 
4.710000000002362, -1.8945174499965898 
4.720000000002338, -1.8943736833328912 
4.730000000002315, -1.8941665536041785 
4.740000000002292, -1.8937970073238914 
4.750000000002268, -1.8931808389119715 
4.760000000002245, -1.8922156325077637 
4.770000000002222, -1.8908406881675248 
4.7800000000021985, -1.8893244530416198 
4.790000000002175, -1.888615975426094 
4.800000000002152, -1.8896571777405007 
4.810000000002129, -1.8919514084063482 
4.820000000002105, -1.8941970273810464 
4.830000000002082, -1.8957241980046071 
4.840000000002059, -1.896523683559786 
4.850000000002035, -1.8967860340803362 
4.860000000002012, -1.8966820805089537 
4.870000000001989, -1.8963268947753824 
4.880000000001965, -1.895802305163445 
4.890000000001942, -1.895187094720806 
4.900000000001919, -1.8945726289441016 
4.9100000000018955, -1.89405481735885 
4.920000000001872, -1.8937003806779296 
4.930000000001849, -1.8934948212209992 
4.940000000001826, -1.8933383403502706 
4.950000000001802, -1.8931120043600278 
