t, s[1].omega / s[0].omega 
0, -0.21999781097618057 
0.009999999999999995, -0.2198138040876605 
0.019999999999999934, -0.21969236191325386 
0.029999999999999874, -0.21961572070785942 
0.04000000000000012, -0.21955951044157657 
0.050000000000000405, -0.21949861742749782 
0.06000000000000069, -0.21941204681370055 
0.07000000000000098, -0.21928508511880293 
0.08000000000000126, -0.21910857720908847 
0.09000000000000155, -0.2188763647752467 
0.10000000000000184, -0.2185821231127656 
0.11000000000000212, -0.218216309309274 
0.12000000000000241, -0.21776341664622137 
0.130000000000002, -0.21719967866545958 
0.1400000000000009, -0.21649197896170863 
0.1499999999999998, -0.21560002452847998 
0.1599999999999987, -0.21448519776913683 
0.1699999999999976, -0.21312854000118947 
0.1799999999999965, -0.21155349743733004 
0.1899999999999954, -0.20983813470058368 
0.1999999999999943, -0.20810035227805312 
0.2099999999999932, -0.20645936763114298 
0.2199999999999921, -0.20499886428017774 
0.229999999999991, -0.20375341030749144 
0.2399999999999899, -0.2027173758288004 
0.2499999999999888, -0.20186249245796462 
0.2599999999999877, -0.20115302409834532 
0.2699999999999866, -0.2005550030491202 
0.2799999999999855, -0.2000403933923835 
0.2899999999999844, -0.1995881235684005 
0.2999999999999833, -0.19918357879341375 
0.3099999999999822, -0.19881751840619838 
0.3199999999999811, -0.1984848248913286 
0.32999999999998, -0.1981829899351276 
0.3399999999999789, -0.19790965751204145 
0.3499999999999778, -0.19765768251750226 
0.35999999999997667, -0.1974050060253809 
0.36999999999997557, -0.19709620764486926 
0.37999999999997447, -0.1966169293819636 
0.38999999999997337, -0.19577924045070205 
0.39999999999997227, -0.19436313057618168 
0.40999999999997117, -0.1922483832263749 
0.41999999999997006, -0.18955905947532686 
0.42999999999996896, -0.18664782297776394 
0.43999999999996786, -0.1839004759503375 
0.44999999999996676, -0.18155828431344592 
0.45999999999996566, -0.1796884104858526 
0.46999999999996456, -0.17824905616408182 
0.47999999999996346, -0.17715918580689688 
0.48999999999996235, -0.1763387078278067 
0.49999999999996125, -0.17572382848163548 
0.5099999999999602, -0.17526977865290522 
0.519999999999959, -0.17494911566572308 
0.529999999999958, -0.1747494944658355 
0.5399999999999568, -0.17467240559086145 
0.5499999999999557, -0.17473332921545534 
0.5599999999999546, -0.17496326970058912 
0.5699999999999535, -0.17541110069945648 
0.5799999999999524, -0.17614493551271254 
0.5899999999999513, -0.17724804277530165 
0.5999999999999502, -0.17880030749530657 
0.6099999999999491, -0.18083311901106638 
0.619999999999948, -0.18325691938909336 
0.6299999999999469, -0.18580475872714136 
0.6399999999999458, -0.18808426585267354 
0.6499999999999447, -0.18976741200011074 
0.6599999999999436, -0.19076381953172994 
0.6699999999999425, -0.1912065326097336 
0.6799999999999414, -0.19130630084368616 
0.6899999999999403, -0.19123646986256543 
0.6999999999999392, -0.19110220106757642 
0.7099999999999381, -0.19095603387411075 
0.719999999999937, -0.1908208128632506 
0.7299999999999359, -0.19070584576738575 
0.7399999999999348, -0.19061586515468934 
0.7499999999999337, -0.19055558902998868 
0.7599999999999326, -0.19053217923071034 
0.7699999999999315, -0.19055689449361266 
0.7799999999999304, -0.19064647929100437 
0.7899999999999293, -0.1908242774078748 
0.7999999999999282, -0.19112054559212543 
0.8099999999999271, -0.19157085450328817 
0.819999999999926, -0.19221083942031897 
0.8299999999999249, -0.19306539150655838 
0.8399999999999238, -0.19413210185422622 
0.8499999999999227, -0.19536426165863835 
0.8599999999999216, -0.19666632484079044 
0.8699999999999205, -0.19791444150768372 
0.8799999999999194, -0.19899706729910313 
0.8899999999999183, -0.19984975081460907 
0.8999999999999172, -0.2004622108208189 
0.9099999999999161, -0.20086120377786534 
0.919999999999915, -0.20108766392369182 
0.9299999999999139, -0.20118096336366262 
0.9399999999999128, -0.20117219358991179 
0.9499999999999117, -0.20108323801897549 
0.9599999999999106, -0.20092842952223036 
0.9699999999999095, -0.20071709794097853 
0.9799999999999084, -0.2004564479840864 
0.9899999999999073, -0.20015461464709533 
0.9999999999999062, -0.19982354382838943 
1.0099999999999052, -0.1994808338396765 
1.019999999999904, -0.19914939556148264 
1.029999999999903, -0.1988543296900261 
1.039999999999902, -0.19861771294945701 
1.0499999999999008, -0.19845309121894672 
1.0599999999998997, -0.19836159967009723 
1.0699999999998986, -0.19833102461871574 
1.0799999999998975, -0.1983383484515981 
1.0899999999998964, -0.1983552543525435 
1.0999999999998953, -0.19835465404215732 
1.1099999999998942, -0.1983155708752379 
1.119999999999893, -0.1982246698086997 
1.129999999999892, -0.1980746657157121 
1.1399999999998909, -0.19786109623036446 
1.1499999999998898, -0.19757888435921003 
1.1599999999998887, -0.1972194109053676 
1.1699999999998876, -0.19676831981437792 
1.1799999999998865, -0.19620437553374973 
1.1899999999998854, -0.1955003842633725 
1.1999999999998843, -0.19462812446698916 
1.2099999999998832, -0.1935692246191519 
1.219999999999882, -0.1923308402507316 
1.229999999999881, -0.19095828461128256 
1.2399999999998799, -0.18953248743143716 
1.2499999999998788, -0.18814792154655255 
1.2599999999998777, -0.1868830965644011 
1.2699999999998766, -0.18578189669783668 
1.2799999999998755, -0.18485279592171622 
1.2899999999998744, -0.1840795658806325 
1.2999999999998733, -0.18343404378182793 
1.3099999999998722, -0.1828857130309763 
1.319999999999871, -0.18240710326108328 
1.32999999999987, -0.18197590275750936 
1.3399999999998689, -0.18157498594193458 
1.3499999999998678, -0.18119129622814636 
1.3599999999998666, -0.18081411382358664 
1.3699999999998655, -0.18043278128907447 
1.3799999999998644, -0.18003346039843465 
1.3899999999998633, -0.17959394482567842 
1.3999999999998622, -0.17907513249181375 
1.4099999999998611, -0.1784084074758261 
1.41999999999986, -0.17748254478250497 
1.429999999999859, -0.17614539774823978 
1.4399999999998578, -0.1742492929368587 
1.4499999999998567, -0.1717525780045192 
1.4599999999998556, -0.1688128784691882 
1.4699999999998545, -0.16575587399043984 
1.4799999999998534, -0.16291661737817836 
1.4899999999998523, -0.1604998502188482 
1.4999999999998512, -0.15855753693458627 
1.5099999999998501, -0.15704451920702261 
1.519999999999849, -0.155879819206745 
1.529999999999848, -0.15498326953058855 
1.5399999999998468, -0.1542900903604273 
1.5499999999998457, -0.15375369879747053 
1.5599999999998446, -0.15334413773138017 
1.5699999999998435, -0.15304579691408987 
1.5799999999998424, -0.1528558903914058 
1.5899999999998413, -0.15278411604738526 
1.5999999999998402, -0.15285336882683084 
1.6099999999998391, -0.15310069749875438 
1.619999999999838, -0.1535761914148844 
1.629999999999837, -0.1543343204730904 
1.6399999999998358, -0.1554075175827324 
1.6499999999998347, -0.15675108522933925 
1.6599999999998336, -0.15817055521527307 
1.6699999999998325, -0.1593047394066282 
1.6799999999998314, -0.15977213118936012 
1.6899999999998303, -0.15943138122708506 
1.6999999999998292, -0.15848031186110365 
1.709999999999828, -0.1572752625161594 
1.719999999999827, -0.15610326517345516 
1.729999999999826, -0.15510448164105636 
1.7399999999998248, -0.1543101836175093 
1.7499999999998237, -0.1537008752027951 
1.7599999999998226, -0.15324380725103579 
1.7699999999998215, -0.15290987112920326 
1.7799999999998204, -0.15267918120068483 
1.7899999999998193, -0.1525421683575054 
1.7999999999998182, -0.15249961349788715 
1.809999999999817, -0.15256304823095965 
1.819999999999816, -0.15275598313982247 
1.8299999999998149, -0.1531158446683183 
1.8399999999998138, -0.15369576123463566 
1.8499999999998127, -0.15456389181912011 
1.8599999999998116, -0.1557954025991823 
1.8699999999998105, -0.15744928359216467 
1.8799999999998094, -0.15952408455325282 
1.8899999999998083, -0.16190435422689 
1.8999999999998072, -0.16434419376328216 
1.909999999999806, -0.1665408074105164 
1.919999999999805, -0.1682712528553844 
1.9299999999998039, -0.1694769684588967 
1.9399999999998028, -0.1702337985259125 
1.9499999999998017, -0.17066729789968216 
1.9599999999998006, -0.1708910294387414 
1.9699999999997995, -0.17098611628387866 
1.9799999999997984, -0.17100431290525986 
1.9899999999997973, -0.17097738707593585 
1.9999999999997962, -0.17092542153880705 
2.0099999999998173, -0.17086263513540487 
2.0199999999998384, -0.17080130692415613 
2.0299999999998595, -0.1707545785841164 
2.0399999999998806, -0.17073856908508847 
2.0499999999999017, -0.17077379454976013 
2.059999999999923, -0.17088547351344807 
2.069999999999944, -0.17110198125657278 
2.079999999999965, -0.1714505669474426 
2.089999999999986, -0.17194967097389585 
2.100000000000007, -0.1725984050198617 
2.1100000000000283, -0.17336674131460503 
2.1200000000000494, -0.174193550681008 
2.1300000000000705, -0.17499883400149446 
2.1400000000000916, -0.17570727848229248 
2.1500000000001127, -0.1762696156229253 
2.160000000000134, -0.17666946111339502 
2.170000000000155, -0.17691569921662545 
2.180000000000176, -0.17702945603247805 
2.190000000000197, -0.1770335257522556 
2.2000000000002182, -0.17694670259667505 
2.2100000000002393, -0.17678203579099078 
2.2200000000002604, -0.17654740141486577 
2.2300000000002815, -0.1762473974047684 
2.2400000000003026, -0.17588618077405666 
2.2500000000003237, -0.17547096470479456 
2.260000000000345, -0.17501538818888854 
2.270000000000366, -0.1745412300121361 
2.280000000000387, -0.1740768671189906 
2.290000000000408, -0.17365221019000726 
2.3000000000004293, -0.17329191364645058 
2.3100000000004504, -0.17300964269922792 
2.3200000000004715, -0.17280534148532412 
2.3300000000004926, -0.17266595851157135 
2.3400000000005137, -0.17256911654025248 
2.3500000000005348, -0.1724885864990898 
2.360000000000556, -0.172399779883724 
2.370000000000577, -0.17228336445662587 
2.380000000000598, -0.17212605421693944 
2.390000000000619, -0.17191899989136566 
2.4000000000006403, -0.17165494598419442 
2.4100000000006614, -0.17132516838027992 
2.4200000000006825, -0.17091671099960887 
2.4300000000007036, -0.1704102109583307 
2.4400000000007247, -0.16977895002007037 
2.450000000000746, -0.16899071234967158 
2.460000000000767, -0.1680150158280856 
2.470000000000788, -0.1668375025084432 
2.480000000000809, -0.16547810372542165 
2.49000000000083, -0.16400123561819896 
2.5000000000008513, -0.16250487021380106 
2.5100000000008724, -0.16108988454712697 
2.5200000000008935, -0.1598290510316942 
2.5300000000009146, -0.1587539270129525 
2.5400000000009357, -0.15786071154088838 
2.550000000000957, -0.15712446221608228 
2.560000000000978, -0.156512234338024 
2.570000000000999, -0.15599157991494797 
2.58000000000102, -0.1555346653046406 
2.5900000000010412, -0.15511938010271892 
2.6000000000010624, -0.1547286810831787 
2.6100000000010835, -0.15434898426872762 
2.6200000000011046, -0.1539679518359019 
2.6300000000011257, -0.1535715412410504 
2.6400000000011468, -0.15313968450274712 
2.650000000001168, -0.15263953422610074 
2.660000000001189, -0.15201537291762796 
2.67000000000121, -0.15117670900227306 
2.680000000001231, -0.14999382592409174 
2.6900000000012523, -0.14832281225408742 
2.7000000000012734, -0.14608153190312756 
2.7100000000012945, -0.1433486479324233 
2.7200000000013156, -0.14038618334074324 
2.7300000000013367, -0.1375265123946512 
2.740000000001358, -0.13501836032016995 
2.750000000001379, -0.13296171591698797 
2.7600000000014, -0.1313403246743372 
2.770000000001421, -0.13008335243044217 
2.780000000001442, -0.12911005450719826 
2.7900000000014633, -0.12835072473346257 
2.8000000000014844, -0.12775268036644197 
2.8100000000015055, -0.12727971848714417 
2.8200000000015266, -0.12690975151371128 
2.8300000000015477, -0.12663263358380014 
2.840000000001569, -0.12644879630609968 
2.85000000000159, -0.1263685757949969 
2.860000000001611, -0.12641139529766177 
2.870000000001632, -0.12660263409496122 
2.8800000000016532, -0.1269634170913788 
2.8900000000016743, -0.1274850310491751 
2.9000000000016954, -0.1280805523998289 
2.9100000000017165, -0.12852837888245083 
2.9200000000017377, -0.12847970405113188 
2.9300000000017588, -0.1276262439553419 
2.94000000000178, -0.12595661993490712 
2.950000000001801, -0.12380871434530234 
2.960000000001822, -0.12162686492355945 
2.970000000001843, -0.11971217747944492 
2.9800000000018643, -0.11817018616326924 
2.9900000000018854, -0.11698318884525427 
3.0000000000019065, -0.11608802157371116 
3.0100000000019276, -0.11541926580703528 
3.0200000000019487, -0.1149253359765308 
3.03000000000197, -0.11457161998682239 
3.040000000001991, -0.11433939540326102 
3.050000000002012, -0.11422441459861041 
3.060000000002033, -0.11423659232352715 
3.070000000002054, -0.11440118544982159 
3.0800000000020753, -0.11476124676322201 
3.0900000000020964, -0.11538014180125174 
3.1000000000021175, -0.1163405569624065 
3.1100000000021386, -0.11773164996942165 
3.1200000000021597, -0.11961000077317477 
3.130000000002181, -0.12192378315015948 
3.140000000002202, -0.12442929716089308 
3.150000000002223, -0.12670375685147878 
3.160000000002244, -0.12834140154427656 
3.1700000000022652, -0.1291971516335037 
3.1800000000022863, -0.1294184078350414 
3.1900000000023074, -0.12926921689732782 
3.2000000000023285, -0.12896807017645184 
3.2100000000023496, -0.12864122120770152 
3.2200000000023707, -0.1283448091373996 
3.230000000002392, -0.1280976494786425 
3.240000000002413, -0.12790351010103024 
3.250000000002434, -0.1277627652788641 
3.260000000002455, -0.12767789167763982 
3.2700000000024763, -0.1276562474548272 
3.2800000000024974, -0.12771201326953355 
3.2900000000025185, -0.12786812462351785 
3.3000000000025396, -0.12815832339078514 
3.3100000000025607, -0.1286287249248709 
3.3200000000025818, -0.12933712857815075 
3.330000000002603, -0.13034640764774394 
3.340000000002624, -0.13170636649418116 
3.350000000002645, -0.13342012505853904 
3.360000000002666, -0.1354037647281076 
3.3700000000026873, -0.1374718368460728 
3.3800000000027084, -0.13938650411703127 
3.3900000000027295, -0.14095614811766038 
3.4000000000027506, -0.14210625627026074 
3.4100000000027717, -0.14287122848597753 
3.420000000002793, -0.1433379440390431 
3.430000000002814, -0.14359616523364188 
3.440000000002835, -0.14371641857643197 
3.450000000002856, -0.14374749182266844 
3.460000000002877, -0.14372150002900266 
3.4700000000028983, -0.14365991474055467 
3.4800000000029194, -0.14357850029835467 
3.4900000000029405, -0.14349105848218605 
3.5000000000029616, -0.1434123150618562 
3.5100000000029827, -0.1433601025204754 
3.520000000003004, -0.1433566408705941 
3.530000000003025, -0.14342840667482554 
3.540000000003046, -0.14360391962990432 
3.550000000003067, -0.14390879995396638 
3.5600000000030882, -0.14435782682133366 
3.5700000000031094, -0.14494509553824494 
3.5800000000031305, -0.14563628657059507 
3.5900000000031516, -0.1463697697632017 
3.6000000000031727, -0.14707082820944123 
3.6100000000031938, -0.14767381098078972 
3.620000000003215, -0.14813919357570254 
3.630000000003236, -0.1484566037974638 
3.640000000003257, -0.1486362926276087 
3.650000000003278, -0.14869751332363468 
3.6600000000032993, -0.1486598640979339 
3.6700000000033204, -0.1485389888946728 
3.6800000000033415, -0.14834556868530874 
3.6900000000033626, -0.1480862968368734 
3.7000000000033837, -0.1477660884968917 
3.710000000003405, -0.1473911551443191 
3.720000000003426, -0.14697241208722023 
3.730000000003447, -0.1465280664584403 
3.740000000003468, -0.14608377804832418 
3.750000000003489, -0.1456693836003258 
3.7600000000035103, -0.14531292245838917 
3.7700000000035314, -0.14503426253965968 
3.7800000000035525, -0.1448406268195293 
3.7900000000035736, -0.1447251486418657 
3.8000000000035947, -0.1446686005867037 
3.810000000003616, -0.14464390983631056 
3.820000000003637, -0.14462227646830192 
3.830000000003658, -0.14457877348758721 
3.840000000003679, -0.14449538160760195 
3.8500000000037002, -0.14436082782322174 
3.8600000000037213, -0.14416815420814227 
3.8700000000037424, -0.1439114781144758 
3.8800000000037635, -0.14358300543862798 
3.8900000000037847, -0.14317081964675984 
3.9000000000038058, -0.14265786625006277 
3.910000000003827, -0.14202298479598313 
3.920000000003848, -0.14124544490256066 
3.930000000003869, -0.14031417841413038 
3.94000000000389, -0.13924019170191976 
3.9500000000039113, -0.13806553337359068 
3.9600000000039324, -0.13685966852328882 
3.9700000000039535, -0.1357008818393606 
3.9800000000039746, -0.13465275962392736 
3.9900000000039957, -0.13374971000365293 
4.000000000004016, -0.13299653659927396 
4.010000000003993, -0.13237700971208266 
4.02000000000397, -0.13186422176090612 
4.030000000003946, -0.13142868124438456 
4.040000000003923, -0.13104320789930815 
4.0500000000039, -0.1306850401383743 
4.0600000000038765, -0.13033586676914993 
4.070000000003853, -0.12998046210805342 
4.08000000000383, -0.1296044189108007 
4.090000000003807, -0.12919116290854332 
4.100000000003783, -0.12871810412140539 
4.11000000000376, -0.12815166645394263 
4.120000000003737, -0.12744152226402888 
4.130000000003713, -0.12651657223871451 
4.14000000000369, -0.1252898632356533 
4.150000000003667, -0.12368407983833977 
4.1600000000036434, -0.12168204173197836 
4.17000000000362, -0.11937623427548372 
4.180000000003597, -0.11696395157091495 
4.1900000000035735, -0.11467019819186 
4.20000000000355, -0.11265745486094729 
4.210000000003527, -0.11098973497855125 
4.220000000003504, -0.10965328028311813 
4.23000000000348, -0.10859560128647008 
4.240000000003457, -0.10775536108957302 
4.250000000003434, -0.10707760794526713 
4.26000000000341, -0.10651885143263169 
4.270000000003387, -0.1060471065860723 
4.280000000003364, -0.10564004044337524 
4.2900000000033405, -0.10528264598388817 
4.300000000003317, -0.10496481468619365 
4.310000000003294, -0.1046784567525274 
4.320000000003271, -0.10441306662982867 
4.330000000003247, -0.10414762635344324 
4.340000000003224, -0.10383581698702442 
4.350000000003201, -0.10338299670869436 
4.360000000003177, -0.10262382846412739 
4.370000000003154, -0.10133508834617458 
4.380000000003131, -0.09933529160717128 
4.390000000003107, -0.09665272157396923 
4.400000000003084, -0.09359549817550761 
4.410000000003061, -0.090595543784067 
4.4200000000030375, -0.08797594593274684 
4.430000000003014, -0.08585934629604455 
4.440000000002991, -0.08422096978608992 
4.450000000002968, -0.08297418014454272 
4.460000000002944, -0.0820259072125987 
4.470000000002921, -0.08129934727660236 
4.480000000002898, -0.08073869451244817 
4.490000000002874, -0.08030714755147027 
4.500000000002851, -0.07998361811907462 
4.510000000002828, -0.07976011891649222 
4.520000000002804, -0.07964022514812272 
4.530000000002781, -0.07963816076847727 
4.540000000002758, -0.07977704955740231 
4.5500000000027345, -0.08008283684733832 
4.560000000002711, -0.08056670968678878 
4.570000000002688, -0.08118547180188418 
4.580000000002665, -0.08177795135763002 
4.590000000002641, -0.08202121824770496 
4.600000000002618, -0.08152083491188493 
4.610000000002595, -0.08008491034482612 
4.620000000002571, -0.07793473204884979 
4.630000000002548, -0.07555630976726144 
4.640000000002525, -0.0733684370459249 
4.6500000000025015, -0.0715653753641847 
4.660000000002478, -0.07016453174438651 
4.670000000002455, -0.06910465990576761 
4.6800000000024315, -0.06831006361843697 
4.690000000002408, -0.06771721555521132 
4.700000000002385, -0.06728131905917703 
4.710000000002362, -0.06697558434613297 
4.720000000002338, -0.06678920523213312 
4.730000000002315, -0.06672625386449559 
4.740000000002292, -0.06680608878296476 
4.750000000002268, -0.06706503310400598 
4.760000000002245, -0.06755791665245378 
4.770000000002222, -0.06835534570163977 
4.7800000000021985, -0.06952691784400403 
4.790000000002175, -0.07109353152601125 
4.800000000002152, -0.07293828619989885 
4.810000000002129, -0.07472170011958994 
4.820000000002105, -0.07594577896209023 
