t, s[1].omega / s[0].omega 
0, -1.8899968795778002 
0.009999999999999995, -1.8895300915374869 
0.019999999999999934, -1.8887494100149034 
0.029999999999999874, -1.8876442090708672 
0.04000000000000012, -1.8862446172212715 
0.050000000000000405, -1.884710593755641 
0.06000000000000069, -1.883396244610963 
0.07000000000000098, -1.8826571783702342 
0.08000000000000126, -1.8824704134384092 
0.09000000000000155, -1.8824924696798928 
0.10000000000000184, -1.8824428599193521 
0.11000000000000212, -1.8822116115156455 
0.12000000000000241, -1.881764573832379 
0.130000000000002, -1.8810867930352468 
0.1400000000000009, -1.8802391116618353 
0.1499999999999998, -1.8795337511157695 
0.1599999999999987, -1.879559129541433 
0.1699999999999976, -1.880595897908507 
0.1799999999999965, -1.8821629821770514 
0.1899999999999954, -1.8835940333463341 
0.1999999999999943, -1.8845753317468692 
0.2099999999999932, -1.8850814907629396 
0.2199999999999921, -1.885182895299232 
0.229999999999991, -1.884951100889925 
0.2399999999999899, -1.8844355376191892 
0.2499999999999888, -1.8836714264111454 
0.2599999999999877, -1.882705624892203 
0.2699999999999866, -1.8816382807479606 
0.2799999999999855, -1.8806592004536853 
0.2899999999999844, -1.8799894578425669 
0.2999999999999833, -1.8796876983100268 
0.3099999999999822, -1.879582567648749 
0.3199999999999811, -1.8794586983599602 
0.32999999999998, -1.8791871078777844 
0.3399999999999789, -1.8786942078325346 
0.3499999999999778, -1.8779080079549413 
0.35999999999997667, -1.8767880780708797 
0.36999999999997557, -1.8755436217280366 
0.37999999999997447, -1.8749505141323666 
0.38999999999997337, -1.8759018097261873 
0.39999999999997227, -1.8781279015846029 
0.40999999999997117, -1.8804640867556663 
0.41999999999997006, -1.882173412456757 
0.42999999999996896, -1.8831561268581711 
0.43999999999996786, -1.8835602458411518 
0.44999999999996676, -1.8835467879216732 
0.45999999999996566, -1.8832309212012095 
0.46999999999996456, -1.8826908641900861 
0.47999999999996346, -1.8819950605683715 
0.48999999999996235, -1.8812290455212621 
0.49999999999996125, -1.880509850080318 
0.5099999999999602, -1.8799660429529095 
0.519999999999959, -1.8796547731456 
0.529999999999958, -1.8794943120941494 
0.5399999999999568, -1.879331901697007 
0.5499999999999557, -1.8790414481666893 
0.5599999999999546, -1.8785253716399926 
0.5699999999999535, -1.877665385665973 
0.5799999999999524, -1.8763085763865703 
0.5899999999999513, -1.8744233943313628 
0.5999999999999502, -1.872605075384006 
0.6099999999999491, -1.872326853335975 
0.619999999999948, -1.874334696668121 
0.6299999999999469, -1.8773261342383907 
0.6399999999999458, -1.8797846540967675 
0.6499999999999447, -1.8812762663252154 
0.6599999999999436, -1.8819767790582103 
0.6699999999999425, -1.882145399796763 
0.6799999999999414, -1.8819685294662183 
0.6899999999999403, -1.8815646643978614 
0.6999999999999392, -1.8810236615271134 
0.7099999999999381, -1.880437187576911 
0.719999999999937, -1.8799005536757953 
0.7299999999999359, -1.8794912201148104 
0.7399999999999348, -1.879236929222992 
0.7499999999999337, -1.8790857742138893 
0.7599999999999326, -1.8789274516868617 
0.7699999999999315, -1.878649683974912 
0.7799999999999304, -1.8781487964460524 
0.7899999999999293, -1.8772888700092896 
0.7999999999999282, -1.8758579758671836 
0.8099999999999271, -1.8736143758327235 
0.819999999999926, -1.8706632767883409 
0.8299999999999249, -1.8682209842308999 
0.8399999999999238, -1.8681613292343902 
0.8499999999999227, -1.870401196141645 
0.8599999999999216, -1.8730033619138329 
0.8699999999999205, -1.8747904676856162 
0.8799999999999194, -1.875698682510675 
0.8899999999999183, -1.8759956779700704 
0.8999999999999172, -1.8759094669133352 
0.9099999999999161, -1.8755843354765307 
0.919999999999915, -1.87512400410595 
0.9299999999999139, -1.874633313168403 
0.9399999999999128, -1.8742173208921116 
0.9499999999999117, -1.873938369820689 
0.9599999999999106, -1.8737913830496151 
0.9699999999999095, -1.8737160068989518 
0.9799999999999084, -1.8736198222338813 
0.9899999999999073, -1.8734064460920066 
0.9999999999999062, -1.8729826721658505 
1.0099999999999052, -1.872230155132009 
1.019999999999904, -1.870962401925383 
1.029999999999903, -1.8689115254905246 
1.039999999999902, -1.865873894542172 
1.0499999999999008, -1.8622489580884451 
1.0599999999998997, -1.8595949937879959 
1.0699999999998986, -1.859359598180344 
1.0799999999998975, -1.8608164904472004 
1.0899999999998964, -1.8623503736113107 
1.0999999999998953, -1.8632805499359182 
1.1099999999998942, -1.8636416216586018 
1.119999999999893, -1.8636135798566034 
1.129999999999892, -1.8633342163534627 
1.1399999999998909, -1.8629045905809423 
1.1499999999998898, -1.8624375423559603 
1.1599999999998887, -1.8620729250184023 
1.1699999999998876, -1.8619090728289744 
1.1799999999998865, -1.8619276689421482 
1.1899999999998854, -1.862026410365098 
1.1999999999998843, -1.862093021208245 
1.2099999999998832, -1.8620361719850773 
1.219999999999882, -1.861782279632331 
1.229999999999881, -1.8612541924075896 
1.2399999999998799, -1.8603429831739056 
1.2499999999998788, -1.8588901467592802 
1.2599999999998777, -1.8567188638763543 
1.2699999999998766, -1.8538103585245373 
1.2799999999998755, -1.8506935040360086 
1.2899999999998744, -1.8485478425561481 
1.2999999999998733, -1.8480922844445302 
1.3099999999998722, -1.8486745858120195 
1.319999999999871, -1.8493273052221528 
1.32999999999987, -1.8496590365257746 
1.3399999999998689, -1.8496622778544214 
1.3499999999998678, -1.849413175244542 
1.3599999999998666, -1.848981990081415 
1.3699999999998655, -1.8484610937049084 
1.3799999999998644, -1.848021624411261 
1.3899999999998633, -1.847877202764335 
1.3999999999998622, -1.8480990731855023 
1.4099999999998611, -1.8485347324167005 
1.41999999999986, -1.848966400181271 
1.429999999999859, -1.8492480293982603 
1.4399999999998578, -1.849308976993281 
1.4499999999998567, -1.8491130811335714 
1.4599999999998556, -1.8486258873214694 
1.4699999999998545, -1.8477975280214811 
1.4799999999998534, -1.8465643664686773 
1.4899999999998523, -1.8448860858910638 
1.4999999999998512, -1.842853430210278 
1.5099999999998501, -1.8408489396154732 
1.519999999999849, -1.839482424194987 
1.529999999999848, -1.839031502085972 
1.5399999999998468, -1.8391340912252752 
1.5499999999998457, -1.8392970576846612 
1.5599999999998446, -1.8392882309154515 
1.5699999999998435, -1.8390631847855698 
1.5799999999998424, -1.838628385785007 
1.5899999999998413, -1.8380092041922047 
1.5999999999998402, -1.8373196668386966 
1.6099999999998391, -1.8368711699586737 
1.619999999999838, -1.8370610541867713 
1.629999999999837, -1.8379354569856285 
1.6399999999998358, -1.8390903409950397 
1.6499999999998347, -1.8401025154369954 
1.6599999999998336, -1.840778636097132 
1.6699999999998325, -1.8410905843076992 
1.6799999999998314, -1.8410676868164173 
1.6899999999998303, -1.8407423398585483 
1.6999999999998292, -1.8401346826926788 
1.709999999999828, -1.839259089907446 
1.719999999999827, -1.8381500173495948 
1.729999999999826, -1.8369107056332061 
1.7399999999998248, -1.8357601683657259 
1.7499999999998237, -1.8349679009396258 
1.7599999999998226, -1.8346222706137532 
1.7699999999998215, -1.8345368112795182 
1.7799999999998204, -1.8344631542051608 
1.7899999999998193, -1.8342561318587731 
1.7999999999998182, -1.8338480576817577 
1.809999999999817, -1.833184770123235 
1.819999999999816, -1.8322280398932655 
1.8299999999998149, -1.8310972533264311 
1.8399999999998138, -1.830342197327732 
1.8499999999998127, -1.8308081862629764 
1.8599999999998116, -1.832626165227803 
1.8699999999998105, -1.834905609977183 
1.8799999999998094, -1.8367912597954887 
1.8899999999998083, -1.838006791546393 
1.8999999999998072, -1.838618932046058 
1.909999999999806, -1.8387723493543793 
1.919999999999805, -1.8385882846481814 
1.9299999999998039, -1.8381513092975985 
1.9399999999998028, -1.8375265582881906 
1.9499999999998017, -1.8367846815152498 
1.9599999999998006, -1.8360218942283197 
1.9699999999997995, -1.8353616866228233 
1.9799999999997984, -1.8349110799439345 
1.9899999999997973, -1.8346736524514449 
1.9999999999997962, -1.8345328072948064 
2.0099999999998173, -1.8343448570568988 
2.0199999999998384, -1.8340014825172097 
2.0299999999998595, -1.8334064462177149 
2.0399999999998806, -1.8324289052730869 
2.0499999999999017, -1.8309068642695991 
2.059999999999923, -1.8288417607280665 
2.069999999999944, -1.8269304469747296 
2.079999999999965, -1.8266967119600899 
2.089999999999986, -1.8287757611663502 
2.100000000000007, -1.831796067165485 
2.1100000000000283, -1.834265700830684 
2.1200000000000494, -1.8357677310628133 
2.1300000000000705, -1.8364808125607248 
2.1400000000000916, -1.836665572931975 
2.1500000000001127, -1.8365102444643941 
2.160000000000134, -1.836135132211932 
2.170000000000155, -1.8356318158846658 
2.180000000000176, -1.8350933711349537 
2.190000000000197, -1.8346128235505332 
2.2000000000002182, -1.8342561163174373 
2.2100000000002393, -1.8340385003759692 
2.2200000000002604, -1.833912516943745 
2.2300000000002815, -1.8337833015126546 
2.2400000000003026, -1.8335487284019394 
2.2500000000003237, -1.8331126815564567 
2.260000000000345, -1.8323552589716907 
2.270000000000366, -1.8310883123368005 
2.280000000000387, -1.8290466101061646 
2.290000000000408, -1.8260557487241023 
2.3000000000004293, -1.822606148313584 
2.3100000000004504, -1.8203470184410733 
2.3200000000004715, -1.8206394176700929 
2.3300000000004926, -1.8225795181980278 
2.3400000000005137, -1.8244745367886606 
2.3500000000005348, -1.8256455200007342 
2.360000000000556, -1.826158073036058 
2.370000000000577, -1.8262259714282876 
2.380000000000598, -1.8260103710690476 
2.390000000000619, -1.8256194205054228 
2.4000000000006403, -1.8251542251008228 
2.4100000000006614, -1.8247372339502248 
2.4200000000006825, -1.8244765581757671 
2.4300000000007036, -1.8243959294449659 
2.4400000000007247, -1.824430641602308 
2.450000000000746, -1.8244817235209705 
2.460000000000767, -1.8244545646886074 
2.470000000000788, -1.8242696928972628 
2.480000000000809, -1.8238521076486218 
2.49000000000083, -1.8231060440448008 
2.5000000000008513, -1.8218905319025545 
2.5100000000008724, -1.820021945513179 
2.5200000000008935, -1.8173694217074075 
2.5300000000009146, -1.8141515616301045 
2.5400000000009357, -1.8112912669777785 
2.550000000000957, -1.8099408454350392 
2.560000000000978, -1.8101317335356975 
2.570000000000999, -1.8108736066687245 
2.58000000000102, -1.8114365230754756 
2.5900000000010412, -1.8116471545789288 
2.6000000000010624, -1.811557733991713 
2.6100000000010835, -1.8112437898625466 
2.6200000000011046, -1.8107738837622391 
2.6300000000011257, -1.8102556037893247 
2.6400000000011468, -1.8098800078998418 
2.650000000001168, -1.8098443605091088 
2.660000000001189, -1.8101653977659324 
2.67000000000121, -1.8106585707378346 
2.680000000001231, -1.8111127836165388 
2.6900000000012523, -1.811397895959202 
2.7000000000012734, -1.81145411179238 
2.7100000000012945, -1.8112520513841104 
2.7200000000013156, -1.8107640370917877 
2.7300000000013367, -1.8099509966641478 
2.740000000001358, -1.8087668918828754 
2.750000000001379, -1.8071932231995607 
2.7600000000014, -1.8053272711574135 
2.770000000001421, -1.8035012359426676 
2.780000000001442, -1.8022201131436675 
2.7900000000014633, -1.801727468768767 
2.8000000000014844, -1.801745901022154 
2.8100000000015055, -1.8018523510495297 
2.8200000000015266, -1.8018201914327652 
2.8300000000015477, -1.8015884829914075 
2.840000000001569, -1.801147077729754 
2.85000000000159, -1.8004997607322526 
2.860000000001611, -1.7997248439805897 
2.870000000001632, -1.7991132994310726 
2.8800000000016532, -1.7991579887898272 
2.8900000000016743, -1.8000933425730241 
2.9000000000016954, -1.8015459436539145 
2.9100000000017165, -1.8029450952908253 
2.9200000000017377, -1.803972330994433 
2.9300000000017588, -1.804563586796555 
2.94000000000178, -1.8047629393287585 
2.950000000001801, -1.8046327599835152 
2.960000000001822, -1.804223287047995 
2.970000000001843, -1.8035721639368727 
2.9800000000018643, -1.8027200390327174 
2.9900000000018854, -1.8017378091884642 
3.0000000000019065, -1.8007569052553851 
3.0100000000019276, -1.7999632137412553 
3.0200000000019487, -1.799491111649904 
3.03000000000197, -1.7992933229886017 
3.040000000001991, -1.7991887932468171 
3.050000000002012, -1.7990149869394014 
3.060000000002033, -1.79867461141511 
3.070000000002054, -1.7980909908348948 
3.0800000000020753, -1.797168860168475 
3.0900000000020964, -1.795833553260038 
3.1000000000021175, -1.7942633611148433 
3.1100000000021386, -1.7932768299072765 
3.1200000000021597, -1.794009911476137 
3.130000000002181, -1.7964440586398578 
3.140000000002202, -1.799278515325114 
3.150000000002223, -1.801480860364353 
3.160000000002244, -1.802824331404111 
3.1700000000022652, -1.8034704755055533 
3.1800000000022863, -1.803630277115889 
3.1900000000023074, -1.8034610511294016 
3.2000000000023285, -1.80306780951972 
3.2100000000023496, -1.8025319298447067 
3.2200000000023707, -1.8019369680339856 
3.230000000002392, -1.8013739754496267 
3.240000000002413, -1.8009244346220228 
3.250000000002434, -1.8006306974718924 
3.260000000002455, -1.8004641365822665 
3.2700000000024763, -1.800330658983985 
3.2800000000024974, -1.8001210333518916 
3.2900000000025185, -1.7997385774225996 
3.3000000000025396, -1.7990757785340559 
3.3100000000025607, -1.7979700228033966 
3.3200000000025818, -1.7961838564811774 
3.330000000002603, -1.7935222654868332 
3.340000000002624, -1.7903073448946274 
3.350000000002645, -1.7879662036392865 
3.360000000002666, -1.7880687850618355 
3.3700000000026873, -1.7901421619614601 
3.3800000000027084, -1.792427574620584 
3.3900000000027295, -1.7939806653843067 
3.4000000000027506, -1.7947660581347293 
3.4100000000027717, -1.7950109744727487 
3.420000000002793, -1.794910395429196 
3.430000000002814, -1.7945909943421328 
3.440000000002835, -1.7941491365062903 
3.450000000002856, -1.7936910048664736 
3.460000000002877, -1.7933315842698636 
3.4700000000028983, -1.7931395487592592 
3.4800000000029194, -1.793097619282311 
3.4900000000029405, -1.7931287352243337 
3.5000000000029616, -1.7931391170274218 
3.5100000000029827, -1.7930423555188164 
3.520000000003004, -1.7927631597979012 
3.530000000003025, -1.7922210017152982 
3.540000000003046, -1.7913042761829416 
3.550000000003067, -1.7898532890395018 
3.5600000000030882, -1.787687255332441 
3.5700000000031094, -1.7847576994621028 
3.5800000000031305, -1.781497713016789 
3.5900000000031516, -1.7790030234386218 
3.6000000000031727, -1.7781711124962065 
3.6100000000031938, -1.7786182394936911 
3.620000000003215, -1.779350588694535 
3.630000000003236, -1.7798245410899445 
3.640000000003257, -1.7799575451052974 
3.650000000003278, -1.779814036171165 
3.6600000000032993, -1.779462817709933 
3.6700000000033204, -1.7789708480215936 
3.6800000000033415, -1.7784551926855834 
3.6900000000033626, -1.7781192317700156 
3.7000000000033837, -1.7781550050177124 
3.710000000003405, -1.7785556673336682 
3.720000000003426, -1.7791184340576904 
3.730000000003447, -1.7796275340816359 
3.740000000003468, -1.7799550968908608 
3.750000000003489, -1.780046174900043 
3.7600000000035103, -1.7798779597969414 
3.7700000000035314, -1.7794319731495236 
3.7800000000035525, -1.7786822899132804 
3.7900000000035736, -1.7775995992729676 
3.8000000000035947, -1.776178754021397 
3.810000000003616, -1.7745048927820257 
3.820000000003637, -1.772842420369733 
3.830000000003658, -1.7716027865664017 
3.840000000003679, -1.7710310036144272 
3.8500000000037002, -1.7709519016252622 
3.8600000000037213, -1.7710058386252552 
3.8700000000037424, -1.7709612847311704 
3.8800000000037635, -1.770735975031302 
3.8900000000037847, -1.770302671797586 
3.9000000000038058, -1.769642718106881 
3.910000000003827, -1.7687865995181848 
3.920000000003848, -1.7679613199128261 
3.930000000003869, -1.7677060612720763 
3.94000000000389, -1.768515256336439 
3.9500000000039113, -1.770195297568278 
3.9600000000039324, -1.7720392281452 
3.9700000000039535, -1.7735168666627956 
3.9800000000039746, -1.7744691767249652 
3.9900000000039957, -1.77493871787961 
4.000000000004016, -1.7750189417892468 
4.010000000003993, -1.7747932466562226 
4.02000000000397, -1.7743242582530592 
4.030000000003946, -1.7736646376127445 
4.040000000003923, -1.7728768610945504 
4.0500000000039, -1.7720528156633606 
4.0600000000038765, -1.7713188643782438 
4.070000000003853, -1.7707966388832144 
4.08000000000383, -1.7705142246968202 
4.090000000003807, -1.7703708758962349 
4.100000000003783, -1.7702197819625105 
4.11000000000376, -1.7699468189092378 
4.120000000003737, -1.7694641753036617 
4.130000000003713, -1.7686653314390246 
4.14000000000369, -1.7674002469719707 
4.150000000003667, -1.7655515284961858 
4.1600000000036434, -1.7633717598009153 
4.17000000000362, -1.7619638699813767 
4.180000000003597, -1.7626912216647441 
4.1900000000035735, -1.765330950352982 
4.20000000000355, -1.7682775055445763 
4.210000000003527, -1.7704497602446765 
4.220000000003504, -1.7717014977901027 
4.23000000000348, -1.7722581967464126 
4.240000000003457, -1.7723561922226747 
4.250000000003434, -1.7721580019443732 
4.26000000000341, -1.7717704090501125 
4.270000000003387, -1.7712819147988363 
4.280000000003364, -1.770786692880232 
4.2900000000033405, -1.7703740051209986 
4.300000000003317, -1.77009490259579 
4.310000000003294, -1.769944416323599 
4.320000000003271, -1.7698659879744283 
4.330000000003247, -1.769771839638172 
4.340000000003224, -1.7695715235308989 
4.350000000003201, -1.7691795766161242 
4.360000000003177, -1.7684929803182228 
4.370000000003154, -1.7673569418247783 
4.380000000003131, -1.765548165494652 
4.390000000003107, -1.762846386065132 
4.400000000003084, -1.7593430103561283 
4.410000000003061, -1.755958770300793 
4.4200000000030375, -1.7542143006410496 
4.430000000003014, -1.75455355833896 
4.440000000002991, -1.7558391225742738 
4.450000000002968, -1.7569594056624294 
4.460000000002944, -1.7575791622207617 
4.470000000002921, -1.7577652612219654 
4.480000000002898, -1.7576461972412136 
4.490000000002874, -1.7573186939086132 
4.500000000002851, -1.7568647087100895 
4.510000000002828, -1.7563980674454924 
4.520000000002804, -1.7560791891908818 
4.530000000002781, -1.7560333644301527 
4.540000000002758, -1.7562416643462797 
4.5500000000027345, -1.7565651262612108 
4.560000000002711, -1.7568554140612314 
4.570000000002688, -1.7570108544265186 
4.580000000002665, -1.7569710504788918 
4.590000000002641, -1.7566939847054672 
4.600000000002618, -1.7561358910618583 
4.610000000002595, -1.755240806832046 
4.620000000002571, -1.7539462598880635 
4.630000000002548, -1.7522204214686627 
4.640000000002525, -1.7501558287674697 
4.6500000000025015, -1.7480978906765692 
4.660000000002478, -1.7465977843785532 
4.670000000002455, -1.745971923524046 
4.6800000000024315, -1.74597353465968 
4.690000000002408, -1.7461373260167306 
4.700000000002385, -1.7461855443974497 
4.710000000002362, -1.7460374371120626 
4.720000000002338, -1.7456842960696073 
4.730000000002315, -1.745127998924166 
4.740000000002292, -1.744404016481602 
4.750000000002268, -1.7436862443561694 
4.760000000002245, -1.7433786231263682 
4.770000000002222, -1.7438933065377558 
4.7800000000021985, -1.745170211542046 
4.790000000002175, -1.746698084969129 
4.800000000002152, -1.7480104086564328 
4.810000000002129, -1.748912114684403 
4.820000000002105, -1.74939288611879 
4.830000000002082, -1.749508065488919 
4.840000000002059, -1.7493186940564218 
4.850000000002035, -1.7488740003943672 
4.860000000002012, -1.7482152330130916 
4.870000000001989, -1.7473914001360744 
4.880000000001965, -1.7464812379162382 
4.890000000001942, -1.7456099654001505 
4.900000000001919, -1.7449290676127043 
4.9100000000018955, -1.7445264867178647 
4.920000000001872, -1.7443431632673847 
4.930000000001849, -1.7442245834093786 
4.940000000001826, -1.7440325271116197 
