t, s[1].omega / s[0].omega 
0, -0.5299977484957125 
0.009999999999999995, -0.5297846689816816 
0.019999999999999934, -0.5295894150043152 
0.029999999999999874, -0.5293963479647957 
0.04000000000000012, -0.5291863432133042 
0.050000000000000405, -0.5289431486318711 
0.06000000000000069, -0.5286571857394436 
0.07000000000000098, -0.528326101463651 
0.08000000000000126, -0.527953392557372 
0.09000000000000155, -0.5275470027486462 
0.10000000000000184, -0.5271192632397532 
0.11000000000000212, -0.5266888856519613 
0.12000000000000241, -0.5262854286215173 
0.130000000000002, -0.5259566223362269 
0.1400000000000009, -0.5257786253132818 
0.1499999999999998, -0.525867740533367 
0.1599999999999987, -0.5263876596087543 
0.1699999999999976, -0.527537085671894 
0.1799999999999965, -0.5294911920388177 
0.1899999999999954, -0.5322767081695232 
0.1999999999999943, -0.5356271079151398 
0.2099999999999932, -0.5389820769557464 
0.2199999999999921, -0.5417624381017129 
0.229999999999991, -0.5437170644167398 
0.2399999999999899, -0.5449709361582314 
0.2499999999999888, -0.5457908787155944 
0.2599999999999877, -0.546382277426545 
0.2699999999999866, -0.5468456215730391 
0.2799999999999855, -0.5472149531559365 
0.2899999999999844, -0.5474980205690277 
0.2999999999999833, -0.5476964839813891 
0.3099999999999822, -0.5478119039533593 
0.3199999999999811, -0.5478456742915399 
0.32999999999998, -0.5477974075163469 
0.3399999999999789, -0.5476635916342547 
0.3499999999999778, -0.547437272896954 
0.35999999999997667, -0.5471093459250532 
0.36999999999997557, -0.546671979260094 
0.37999999999997447, -0.5461240443911952 
0.38999999999997337, -0.5454767714182278 
0.39999999999997227, -0.5447561131895444 
0.40999999999997117, -0.5439987685719934 
0.41999999999997006, -0.543242618803742 
0.42999999999996896, -0.5425165528596331 
0.43999999999996786, -0.5418350166795493 
0.44999999999996676, -0.5411990204070072 
0.45999999999996566, -0.540601503103342 
0.46999999999996456, -0.540033599145381 
0.47999999999996346, -0.5394893510229594 
0.48999999999996235, -0.5389682748885575 
0.49999999999996125, -0.5384765688668698 
0.5099999999999602, -0.5380281738196351 
0.519999999999959, -0.5376466545232146 
0.529999999999958, -0.5373684780080639 
0.5399999999999568, -0.5372479851347417 
0.5499999999999557, -0.5373641262943607 
0.5599999999999546, -0.5378285837514152 
0.5699999999999535, -0.5387937196589432 
0.5799999999999524, -0.5404560182896099 
0.5899999999999513, -0.5430453211474886 
0.5999999999999502, -0.5467826876253103 
0.6099999999999491, -0.5517875042080207 
0.619999999999948, -0.5579387455095834 
0.6299999999999469, -0.5647666787518933 
0.6399999999999458, -0.571518072620375 
0.6499999999999447, -0.5774453041837806 
0.6599999999999436, -0.5821188886998472 
0.6699999999999425, -0.5855057799436177 
0.6799999999999414, -0.5878198627691774 
0.6899999999999403, -0.589337845133161 
0.6999999999999392, -0.5902970855372252 
0.7099999999999381, -0.5908690205686105 
0.719999999999937, -0.5911666155904146 
0.7299999999999359, -0.5912589803698667 
0.7399999999999348, -0.5911832770242863 
0.7499999999999337, -0.5909521662851476 
0.7599999999999326, -0.5905576791310293 
0.7699999999999315, -0.5899732814369496 
0.7799999999999304, -0.5891568036104544 
0.7899999999999293, -0.5880581137903956 
0.7999999999999282, -0.5866354574003332 
0.8099999999999271, -0.5848800330325808 
0.819999999999926, -0.582838420514807 
0.8299999999999249, -0.5806151628768219 
0.8399999999999238, -0.5783470634532238 
0.8499999999999227, -0.5761632354698036 
0.8599999999999216, -0.5741555099071536 
0.8699999999999205, -0.5723712866378963 
0.8799999999999194, -0.5708232070948405 
0.8899999999999183, -0.5695040159034048 
0.8999999999999172, -0.5683988978281244 
0.9099999999999161, -0.5674930434657468 
0.919999999999915, -0.5667752275677114 
0.9299999999999139, -0.5662389587144097 
0.9399999999999128, -0.5658824971498935 
0.9499999999999117, -0.5657085605857096 
0.9599999999999106, -0.5657241531302509 
0.9699999999999095, -0.5659406837025527 
0.9799999999999084, -0.5663743108264092 
0.9899999999999073, -0.567046163586016 
0.9999999999999062, -0.5679816517338846 
1.0099999999999052, -0.56920745526354 
1.019999999999904, -0.5707441626204434 
1.029999999999903, -0.5725926580320098 
1.039999999999902, -0.5747148400816474 
1.0499999999999008, -0.5770156519802243 
1.0599999999998997, -0.579341417968698 
1.0699999999998986, -0.5815086390400721 
1.0799999999998975, -0.583357425307695 
1.0899999999998964, -0.5847981653073028 
1.0999999999998953, -0.5858218215947992 
1.1099999999998942, -0.5864753793046097 
1.119999999999893, -0.5868268406682542 
1.129999999999892, -0.5869393898348012 
1.1399999999998909, -0.5868588434974249 
1.1499999999998898, -0.586609666036538 
1.1599999999998887, -0.5861938735894626 
1.1699999999998876, -0.5855890170720754 
1.1799999999998865, -0.5847431163059944 
1.1899999999998854, -0.5835656724563731 
1.1999999999998843, -0.581916132299698 
1.2099999999998832, -0.5795971648285484 
1.219999999999882, -0.5763722860855406 
1.229999999999881, -0.572038969258701 
1.2399999999998799, -0.566568460407396 
1.2499999999998788, -0.560240321738026 
1.2599999999998777, -0.5536259168594692 
1.2699999999998766, -0.5473745451548601 
1.2799999999998755, -0.5419640280493924 
1.2899999999998744, -0.5375973406767326 
1.2999999999998733, -0.5342533260244348 
1.3099999999998722, -0.5317913225516326 
1.319999999999871, -0.5300352100828365 
1.32999999999987, -0.5288192020510802 
1.3399999999998689, -0.5280054109319775 
1.3499999999998678, -0.5274865197194316 
1.3599999999998666, -0.527182375363035 
1.3699999999998655, -0.5270349618515608 
1.3799999999998644, -0.5270036336059568 
1.3899999999998633, -0.5270612618972395 
1.3999999999998622, -0.5271914270067815 
1.4099999999998611, -0.5273865332641519 
1.41999999999986, -0.5276464718636645 
1.429999999999859, -0.5279771031078501 
1.4399999999998578, -0.5283874884475346 
1.4499999999998567, -0.5288848582545892 
1.4599999999998556, -0.529467255093041 
1.4699999999998545, -0.5301158049761578 
1.4799999999998534, -0.530790826278083 
1.4899999999998523, -0.5314362930057156 
1.4999999999998512, -0.5319932103660943 
1.5099999999998501, -0.5324157086058022 
1.519999999999849, -0.5326806930540184 
1.529999999999848, -0.5327867727171425 
1.5399999999998468, -0.5327457582709536 
1.5499999999998457, -0.532572847112003 
1.5599999999998446, -0.5322792543396366 
1.5699999999998435, -0.5318677019365279 
1.5799999999998424, -0.5313293979823246 
1.5899999999998413, -0.5306407247092844 
1.5999999999998402, -0.5297577916915119 
1.6099999999998391, -0.5286067255499256 
1.619999999999838, -0.5270674683959584 
1.629999999999837, -0.524951607292934 
1.6399999999998358, -0.5219875153825589 
1.6499999999998347, -0.5178562828929472 
1.6599999999998336, -0.5123447815682026 
1.6699999999998325, -0.5056009702466782 
1.6799999999998314, -0.49826518690952193 
1.6899999999998303, -0.4912359628653988 
1.6999999999998292, -0.48523212640550833 
1.709999999999828, -0.48055279360360625 
1.719999999999827, -0.47714151539307437 
1.729999999999826, -0.4747688519833041 
1.7399999999998248, -0.473174064109717 
1.7499999999998237, -0.47213226893966553 
1.7599999999998226, -0.47147207039716604 
1.7699999999998215, -0.4710712073270343 
1.7799999999998204, -0.47084590257551034 
1.7899999999998193, -0.4707404702028174 
1.7999999999998182, -0.4707191773833045 
1.809999999999817, -0.4707605650619976 
1.819999999999816, -0.4708538704077414 
1.8299999999998149, -0.47099702411013666 
1.8399999999998138, -0.47119551648534824 
1.8499999999998127, -0.4714611163704857 
1.8599999999998116, -0.4718091412224424 
1.8699999999998105, -0.4722531329626346 
1.8799999999998094, -0.4727968524457434 
1.8899999999998083, -0.4734255861978937 
1.8999999999998072, -0.47410116577878486 
1.909999999999806, -0.47476574795966037 
1.919999999999805, -0.4753556074977112 
1.9299999999998039, -0.4758188407601633 
1.9399999999998028, -0.47612691104442384 
1.9499999999998017, -0.4762746506934719 
1.9599999999998006, -0.47627169957545057 
1.9699999999997995, -0.47613192230693163 
1.9799999999997984, -0.4758650288154523 
1.9899999999997973, -0.4754709249133354 
1.9999999999997962, -0.4749352190222444 
2.0099999999998173, -0.4742237436699436 
2.0199999999998384, -0.4732739854678055 
2.0299999999998595, -0.4719818284766986 
2.0399999999998806, -0.47018462127690563 
2.0499999999999017, -0.467650524432622 
2.059999999999923, -0.4641035997906937 
2.069999999999944, -0.45933081860131664 
2.079999999999965, -0.4533740899930419 
2.089999999999986, -0.44667055693181046 
2.100000000000007, -0.43994127562436647 
2.1100000000000283, -0.4338644654173486 
2.1200000000000494, -0.4288220688590564 
2.1300000000000705, -0.424881758901109 
2.1400000000000916, -0.4219202511652453 
2.1500000000001127, -0.4197478703075106 
2.160000000000134, -0.418180676585474 
2.170000000000155, -0.41706810172721287 
2.180000000000176, -0.41629704385900157 
2.190000000000197, -0.41578703212596746 
2.2000000000002182, -0.41548359416484837 
2.2100000000002393, -0.4153525506708807 
2.2200000000002604, -0.4153759645698538 
2.2300000000002815, -0.41554971429247756 
2.2400000000003026, -0.41588238121244314 
2.2500000000003237, -0.41639492233597214 
2.260000000000345, -0.4171201937294586 
2.270000000000366, -0.4181006548461494 
2.280000000000387, -0.4193815769459226 
2.290000000000408, -0.42099643560643035 
2.3000000000004293, -0.4229428025278524 
2.3100000000004504, -0.42515412381835843 
2.3200000000004715, -0.4274853137035519 
2.3300000000004926, -0.4297357090174406 
2.3400000000005137, -0.4317114437919254 
2.3500000000005348, -0.43329008423531823 
2.360000000000556, -0.43444310268376024 
2.370000000000577, -0.43521156423351226 
2.380000000000598, -0.43566526912756737 
2.390000000000619, -0.43587185492850666 
2.4000000000006403, -0.43588202490059 
2.4100000000006614, -0.4357254268546823 
2.4200000000006825, -0.4354107086510376 
2.4300000000007036, -0.43492608569696917 
2.4400000000007247, -0.4342395892132978 
2.450000000000746, -0.4333006715295025 
2.460000000000767, -0.4320474794434076 
2.470000000000788, -0.4304256894442539 
2.480000000000809, -0.4284207441606546 
2.49000000000083, -0.42609121878053546 
2.5000000000008513, -0.4235760476136643 
2.5100000000008724, -0.42105788625611307 
2.5200000000008935, -0.41870216036512103 
2.5300000000009146, -0.416613101375262 
2.5400000000009357, -0.4148271046610593 
2.550000000000957, -0.41333202747799974 
2.560000000000978, -0.4120920197367533 
2.570000000000999, -0.4110662182189109 
2.58000000000102, -0.41021925167535145 
2.5900000000010412, -0.40952581266665894 
2.6000000000010624, -0.4089721404577279 
2.6100000000010835, -0.4085565436593191 
2.6200000000011046, -0.40829028524667166 
2.6300000000011257, -0.40819961758876805 
2.6400000000011468, -0.4083294839342425 
2.650000000001168, -0.408749228027399 
2.660000000001189, -0.40956025638099647 
2.67000000000121, -0.4109043566941965 
2.680000000001231, -0.412968109675025 
2.6900000000012523, -0.4159718788553154 
2.7000000000012734, -0.4201213628471926 
2.7100000000012945, -0.42549610544985833 
2.7200000000013156, -0.43188561351251054 
2.7300000000013367, -0.43868822206109853 
2.740000000001358, -0.4450595100425871 
2.750000000001379, -0.4503035593747254 
2.7600000000014, -0.4541703924233598 
2.770000000001421, -0.4568093406135726 
2.780000000001442, -0.4585312026713826 
2.7900000000014633, -0.4596275639733217 
2.8000000000014844, -0.4603097152785375 
2.8100000000015055, -0.46071389297551024 
2.8200000000015266, -0.46092309185127134 
2.8300000000015477, -0.46098566608844244 
2.840000000001569, -0.460927442838926 
2.85000000000159, -0.46075903356856845 
2.860000000001611, -0.46048066508921526 
2.870000000001632, -0.46008658268081365 
2.8800000000016532, -0.45957063082241856 
2.8900000000016743, -0.4589335548593688 
2.9000000000016954, -0.458190386291061 
2.9100000000017165, -0.4573738552568239 
2.9200000000017377, -0.45652994593480056 
2.9300000000017588, -0.455706215275439 
2.94000000000178, -0.4549389072728852 
2.950000000001801, -0.45424557615337247 
2.960000000001822, -0.4536255718853578 
2.970000000001843, -0.453066107796555 
2.9800000000018643, -0.45254993979671676 
2.9900000000018854, -0.4520615509757775 
3.0000000000019065, -0.4515906105389562 
3.0100000000019276, -0.4511331630691787 
3.0200000000019487, -0.4506918469327542 
3.03000000000197, -0.45027644857538557 
3.040000000001991, -0.4499057458094458 
3.050000000002012, -0.4496113045100788 
3.060000000002033, -0.44944375156018646 
3.070000000002054, -0.44948176045501276 
3.0800000000020753, -0.44984279318818554 
3.0900000000020964, -0.4506909746955081 
3.1000000000021175, -0.4522289073494049 
3.1100000000021386, -0.45464644344231137 
3.1200000000021597, -0.4579947415112303 
3.130000000002181, -0.46200615084562796 
3.140000000002202, -0.4660256974218598 
3.150000000002223, -0.4692818093420124 
3.160000000002244, -0.47137245322158294 
3.1700000000022652, -0.47244435260833056 
3.1800000000022863, -0.47291142071761055 
3.1900000000023074, -0.4731237422373793 
3.2000000000023285, -0.473262913332413 
3.2100000000023496, -0.47338882336220367 
3.2200000000023707, -0.473506298913963 
3.230000000002392, -0.4736043996376946 
3.240000000002413, -0.4736718002696635 
3.250000000002434, -0.47370031297437176 
3.260000000002455, -0.473684263529264 
3.2700000000024763, -0.4736191891121891 
3.2800000000024974, -0.4735011978095554 
3.2900000000025185, -0.4733275210676733 
3.3000000000025396, -0.47309839343767895 
3.3100000000025607, -0.4728198031920957 
3.3200000000025818, -0.47250572262865465 
3.330000000002603, -0.47217775491270536 
3.340000000002624, -0.4718608361720057 
3.350000000002645, -0.47157594090697924 
3.360000000002666, -0.4713330304227471 
3.3700000000026873, -0.4711277626403387 
3.3800000000027084, -0.47094355311948866 
3.3900000000027295, -0.4707578157653032 
3.4000000000027506, -0.4705491966695309 
3.4100000000027717, -0.4703025421636079 
3.420000000002793, -0.4700102290331147 
3.430000000002814, -0.46967074652623164 
3.440000000002835, -0.46928641214159156 
3.450000000002856, -0.46886171563511214 
3.460000000002877, -0.46840295314338515 
3.4700000000028983, -0.4679192188387783 
3.4800000000029194, -0.4674244497981081 
3.4900000000029405, -0.46693955172270013 
3.5000000000029616, -0.4664917629587209 
3.5100000000029827, -0.46610420307551015 
3.520000000003004, -0.465762461258154 
3.530000000003025, -0.46534642590454683 
3.540000000003046, -0.4645531659498598 
3.550000000003067, -0.46292944501395306 
3.5600000000030882, -0.46015294233432813 
3.5700000000031094, -0.456403644282419 
3.5800000000031305, -0.45235441588232916 
3.5900000000031516, -0.4487204153280838 
3.6000000000031727, -0.4458842267799855 
3.6100000000031938, -0.4438792891940442 
3.620000000003215, -0.442556157477095 
3.630000000003236, -0.44172536316483 
3.640000000003257, -0.44122444775781783 
3.650000000003278, -0.44093428484241315 
3.6600000000032993, -0.44077426203755554 
3.6700000000033204, -0.4406923390362927 
3.6800000000033415, -0.44065608412316026 
3.6900000000033626, -0.44064622977828327 
3.7000000000033837, -0.4406526982791606 
3.710000000003405, -0.44067263051410477 
3.720000000003426, -0.4407097945462136 
3.730000000003447, -0.4407744800257734 
3.740000000003468, -0.4408826144433012 
3.750000000003489, -0.44105274123432137 
3.7600000000035103, -0.44130016657255117 
3.7700000000035314, -0.44162912863124193 
3.7800000000035525, -0.4420257750528864 
3.7900000000035736, -0.4424560212242584 
3.8000000000035947, -0.44287141708510075 
3.810000000003616, -0.44322189680325436 
3.820000000003637, -0.4434690794174057 
3.830000000003658, -0.44359297514735613 
3.840000000003679, -0.44358997399309175 
3.8500000000037002, -0.4434655273108186 
3.8600000000037213, -0.44322612696004277 
3.8700000000037424, -0.44287290970626836 
3.8800000000037635, -0.44239667558958784 
3.8900000000037847, -0.44177275884938305 
3.9000000000038058, -0.44095371560509067 
3.910000000003827, -0.4398577497507355 
3.920000000003848, -0.4383519037703982 
3.930000000003869, -0.4362344540672362 
3.94000000000389, -0.4332364740441522 
3.9500000000039113, -0.429086950688633 
3.9600000000039324, -0.4236803964290533 
3.9700000000039535, -0.41727717231309985 
3.9800000000039746, -0.4105199323220523 
3.9900000000039957, -0.4041591111948549 
4.000000000004016, -0.39871903186712354 
4.010000000003993, -0.3943809185841193 
4.02000000000397, -0.39107516737309883 
4.030000000003946, -0.3886230228369122 
4.040000000003923, -0.38683250993370677 
4.0500000000039, -0.3855405668732579 
4.0600000000038765, -0.38462313102678897 
4.070000000003853, -0.38399186467772 
4.08000000000383, -0.3835874119752855 
4.090000000003807, -0.3833732029837925 
4.100000000003783, -0.3833310229490244 
4.11000000000376, -0.383458481190316 
4.120000000003737, -0.3837681500628559 
4.130000000003713, -0.38428794807588174 
4.14000000000369, -0.38506197435260997 
4.150000000003667, -0.386150179822651 
4.1600000000036434, -0.3876237523135534 
4.17000000000362, -0.38955109117833414 
4.180000000003597, -0.3919685724000198 
4.1900000000035735, -0.3948361602792949 
4.20000000000355, -0.3979964851619161 
4.210000000003527, -0.4011786443037397 
4.220000000003504, -0.40407636497987626 
4.23000000000348, -0.4064631893220336 
4.240000000003457, -0.40825839503444683 
4.250000000003434, -0.4095060588807131 
4.26000000000341, -0.41030973221781963 
4.270000000003387, -0.4107774330465146 
4.280000000003364, -0.4109951722657338 
4.2900000000033405, -0.411020941955916 
4.300000000003317, -0.41088727740150477 
4.310000000003294, -0.41060549580186717 
4.320000000003271, -0.41016939940781605 
4.330000000003247, -0.40955903153182893 
4.340000000003224, -0.4087467363593237 
4.350000000003201, -0.4077083148629903 
4.360000000003177, -0.4064399231144241 
4.370000000003154, -0.40497510021450944 
4.380000000003131, -0.4033897174130776 
4.390000000003107, -0.4017858090451318 
4.400000000003084, -0.4002609586155212 
4.410000000003061, -0.39888218517375085 
4.4200000000030375, -0.3976774653375361 
4.430000000003014, -0.3966430922251586 
4.440000000002991, -0.3957573913306504 
4.450000000002968, -0.3949931640677074 
4.460000000002944, -0.39432589468986645 
4.470000000002921, -0.39373793345629493 
4.480000000002898, -0.393220140659184 
4.490000000002874, -0.3927726149825125 
4.500000000002851, -0.39240580521572466 
4.510000000002828, -0.392142942714771 
4.520000000002804, -0.3920245221197264 
4.530000000002781, -0.39211543884931016 
4.540000000002758, -0.3925149974951252 
4.5500000000027345, -0.3933684165557511 
4.560000000002711, -0.3948736982012672 
4.570000000002688, -0.3972667526528541 
4.580000000002665, -0.40075059933126145 
4.590000000002641, -0.40533216709285397 
4.600000000002618, -0.41060736102265716 
4.610000000002595, -0.4157227245792951 
4.620000000002571, -0.4197676579687138 
4.630000000002548, -0.422346739508679 
4.640000000002525, -0.42369805979241526 
4.6500000000025015, -0.4243149759197002 
4.660000000002478, -0.42459342360533203 
4.670000000002455, -0.42474443701039943 
4.6800000000024315, -0.4248508453860021 
4.690000000002408, -0.42493483139774685 
4.700000000002385, -0.4249970561184099 
4.710000000002362, -0.425033085305704 
4.720000000002338, -0.42503856709412047 
4.730000000002315, -0.42501019515853766 
4.740000000002292, -0.42494570126083353 
4.750000000002268, -0.4248442155975843 
4.760000000002245, -0.4247074818173792 
4.770000000002222, -0.42454182469940144 
4.7800000000021985, -0.424360042737366 
4.790000000002175, -0.4241816940463788 
4.800000000002152, -0.4240302736500192 
4.810000000002129, -0.4239271070163252 
4.820000000002105, -0.42388384069603957 
4.830000000002082, -0.42389675907618807 
4.840000000002059, -0.4239458868009269 
4.850000000002035, -0.42399995749114794 
4.860000000002012, -0.4240253706473083 
4.870000000001989, -0.4239948317096459 
4.880000000001965, -0.4238916970028904 
4.890000000001942, -0.42370909352523334 
