t, s[1].omega / s[0].omega 
0, -1.4799972382631594 
0.009999999999999995, -1.4795755871147593 
0.019999999999999934, -1.4788683298070935 
0.029999999999999874, -1.4778854511663144 
0.04000000000000012, -1.4766534236291808 
0.050000000000000405, -1.4752318200468584 
0.06000000000000069, -1.4737356419319225 
0.07000000000000098, -1.4723478380879766 
0.08000000000000126, -1.4712800000476691 
0.09000000000000155, -1.4706553772749986 
0.10000000000000184, -1.4704102705812754 
0.11000000000000212, -1.4703472496078338 
0.12000000000000241, -1.4702706253609914 
0.130000000000002, -1.4700459425170016 
0.1400000000000009, -1.4695681598872832 
0.1499999999999998, -1.468698332479956 
0.1599999999999987, -1.4671955572220927 
0.1699999999999976, -1.4646524367263165 
0.1799999999999965, -1.4604984359389945 
0.1899999999999954, -1.4543010925148656 
0.1999999999999943, -1.4466973933092566 
0.2099999999999932, -1.4403842815524315 
0.2199999999999921, -1.4386566737548474 
0.229999999999991, -1.4416657458685314 
0.2399999999999899, -1.4464282424898554 
0.2499999999999888, -1.4504346891301048 
0.2599999999999877, -1.4530013265455082 
0.2699999999999866, -1.4543878280052225 
0.2799999999999855, -1.4549959378503556 
0.2899999999999844, -1.4551140704645475 
0.2999999999999833, -1.4549097586466282 
0.3099999999999822, -1.454481464429527 
0.3199999999999811, -1.4539241962933585 
0.32999999999998, -1.4534048018845627 
0.3399999999999789, -1.4532012519909148 
0.3499999999999778, -1.4536001142414514 
0.35999999999997667, -1.454671666588319 
0.36999999999997557, -1.4561908801406782 
0.37999999999997447, -1.457814369924322 
0.38999999999997337, -1.4592737374506564 
0.39999999999997227, -1.4604269516904997 
0.40999999999997117, -1.4612242038427292 
0.41999999999997006, -1.4616652852859817 
0.42999999999996896, -1.4617723862696965 
0.43999999999996786, -1.4615763771565924 
0.44999999999996676, -1.4611114299333836 
0.45999999999996566, -1.4604156279645464 
0.46999999999996456, -1.4595369805551495 
0.47999999999996346, -1.4585427437102432 
0.48999999999996235, -1.4575268128839007 
0.49999999999996125, -1.456607608967834 
0.5099999999999602, -1.455903725802413 
0.519999999999959, -1.455478498853873 
0.529999999999958, -1.4552903982472494 
0.5399999999999568, -1.45521286781394 
0.5499999999999557, -1.4551046064965578 
0.5599999999999546, -1.4548490390632218 
0.5699999999999535, -1.4543379425285488 
0.5799999999999524, -1.4534261127597317 
0.5899999999999513, -1.4518778184543877 
0.5999999999999502, -1.449317448339541 
0.6099999999999491, -1.4452273595470693 
0.619999999999948, -1.4391199975710522 
0.6299999999999469, -1.4310818585924887 
0.6399999999999458, -1.4225729197029333 
0.6499999999999447, -1.4162967065001202 
0.6599999999999436, -1.414034586784764 
0.6699999999999425, -1.4149102122692852 
0.6799999999999414, -1.4168260642993837 
0.6899999999999403, -1.4184554883087164 
0.6999999999999392, -1.419456239883777 
0.7099999999999381, -1.4199104656076318 
0.719999999999937, -1.4199630769529936 
0.7299999999999359, -1.4197118816429444 
0.7399999999999348, -1.4192045901266237 
0.7499999999999337, -1.4184792679318687 
0.7599999999999326, -1.4176531610125405 
0.7699999999999315, -1.4170602913609698 
0.7799999999999304, -1.4172986965105376 
0.7899999999999293, -1.4189140912042393 
0.7999999999999282, -1.4218640160436156 
0.8099999999999271, -1.4254763496563854 
0.819999999999926, -1.4289737509074414 
0.8299999999999249, -1.431875150345381 
0.8399999999999238, -1.4340213193150604 
0.8499999999999227, -1.4354454504319678 
0.8599999999999216, -1.436260513016731 
0.8699999999999205, -1.4365953656684416 
0.8799999999999194, -1.4365656426829658 
0.8899999999999183, -1.4362662447216359 
0.8999999999999172, -1.4357779017036978 
0.9099999999999161, -1.4351806955371087 
0.919999999999915, -1.434563331812626 
0.9299999999999139, -1.4340163173730387 
0.9399999999999128, -1.4336107309755042 
0.9499999999999117, -1.433378546694302 
0.9599999999999106, -1.4333027483010616 
0.9699999999999095, -1.433318937179283 
0.9799999999999084, -1.4333345373092252 
0.9899999999999073, -1.4332551061268712 
0.9999999999999062, -1.4329945036322034 
1.0099999999999052, -1.4324643850945282 
1.019999999999904, -1.431556353948578 
1.029999999999903, -1.430130276852491 
1.039999999999902, -1.4280187874028745 
1.0499999999999008, -1.4250600386827557 
1.0599999999998997, -1.421177759178275 
1.0699999999998986, -1.416527394516637 
1.0799999999998975, -1.4116686817093094 
1.0899999999998964, -1.4075476627388204 
1.0999999999998953, -1.4050033976377427 
1.1099999999998942, -1.4041089838319203 
1.119999999999893, -1.4042138718712427 
1.129999999999892, -1.40460324378194 
1.1399999999998909, -1.4048855757570435 
1.1499999999998898, -1.4049342381499297 
1.1599999999998887, -1.404723273354085 
1.1699999999998876, -1.4042264323473161 
1.1799999999998865, -1.4033754932007942 
1.1899999999998854, -1.4020609687906012 
1.1999999999998843, -1.4002162038139658 
1.2099999999998832, -1.3980971817485333 
1.219999999999882, -1.3967553109295907 
1.229999999999881, -1.3980199516047886 
1.2399999999998799, -1.403001719107473 
1.2499999999998788, -1.410526161398289 
1.2599999999998777, -1.418129357705582 
1.2699999999998766, -1.424128503870334 
1.2799999999998755, -1.4281571132925273 
1.2899999999998744, -1.4305647052187864 
1.2999999999998733, -1.431845571616272 
1.3099999999998722, -1.4323986516792062 
1.319999999999871, -1.4324893563295178 
1.32999999999987, -1.4322827941754037 
1.3399999999998689, -1.431891542058294 
1.3499999999998678, -1.4314211470610476 
1.3599999999998666, -1.430999266371678 
1.3699999999998655, -1.4307620255936675 
1.3799999999998644, -1.430793456869154 
1.3899999999998633, -1.4310776902147773 
1.3999999999998622, -1.4315191338983633 
1.4099999999998611, -1.4319985477215862 
1.41999999999986, -1.4324110950028328 
1.429999999999859, -1.432678029010416 
1.4399999999998578, -1.4327440589052216 
1.4499999999998567, -1.432569308990994 
1.4599999999998556, -1.4321220378423871 
1.4699999999998545, -1.4313755258998624 
1.4799999999998534, -1.4303097741892308 
1.4899999999998523, -1.4289184990878325 
1.4999999999998512, -1.4272238538130155 
1.5099999999998501, -1.4253020750381937 
1.519999999999849, -1.4233160228323105 
1.529999999999848, -1.4215239881402388 
1.5399999999998468, -1.4202022933526148 
1.5499999999998457, -1.4194774159248928 
1.5599999999998446, -1.4192301243176608 
1.5699999999998435, -1.419203700023302 
1.5799999999998424, -1.4191734266052674 
1.5899999999998413, -1.4190021253609941 
1.5999999999998402, -1.4185977513610237 
1.6099999999998391, -1.4178485566961565 
1.619999999999838, -1.416561816052158 
1.629999999999837, -1.4144073725225117 
1.6399999999998358, -1.410905558552566 
1.6499999999998347, -1.4056222258033715 
1.6599999999998336, -1.3988589147718609 
1.6699999999998325, -1.3926329179995451 
1.6799999999998314, -1.3901206785456124 
1.6899999999998303, -1.3925057945193706 
1.6999999999998292, -1.3975544657372472 
1.709999999999828, -1.402403684977076 
1.719999999999827, -1.4058092615019993 
1.729999999999826, -1.4078116916675716 
1.7399999999998248, -1.4088251378022976 
1.7499999999998237, -1.4092092279780009 
1.7599999999998226, -1.40919081638536 
1.7699999999998215, -1.4088974635828468 
1.7799999999998204, -1.4084117743005868 
1.7899999999998193, -1.4078358592903677 
1.7999999999998182, -1.4073622076577088 
1.809999999999817, -1.407292222012638 
1.819999999999816, -1.4079035444896222 
1.8299999999998149, -1.4092272042457856 
1.8399999999998138, -1.4110024245669766 
1.8499999999998127, -1.4128674423881278 
1.8599999999998116, -1.4145445911234726 
1.8699999999998105, -1.4158866973655044 
1.8799999999998094, -1.416843214278861 
1.8899999999998083, -1.417417891167589 
1.8999999999998072, -1.417640794643845 
1.909999999999806, -1.4175530645806484 
1.919999999999805, -1.4171996207235535 
1.9299999999998039, -1.4166278522259625 
1.9399999999998028, -1.4158917891124392 
1.9499999999998017, -1.4150590495805175 
1.9599999999998006, -1.4142141982369352 
1.9699999999997995, -1.413452534234413 
1.9799999999997984, -1.4128618131400774 
1.9899999999997973, -1.4124908774312095 
1.9999999999997962, -1.412318277399433 
2.0099999999998173, -1.4122546327233376 
2.0199999999998384, -1.4121839425995486 
2.0299999999998595, -1.411999891255687 
2.0399999999998806, -1.4116062238486444 
2.0499999999999017, -1.4108909043525513 
2.059999999999923, -1.4096936672526064 
2.069999999999944, -1.407780541001234 
2.079999999999965, -1.4048439718020842 
2.089999999999986, -1.4005679989618436 
2.100000000000007, -1.394820261161247 
2.1100000000000283, -1.3879954531792589 
2.1200000000000494, -1.3812971857148981 
2.1300000000000705, -1.376369455777421 
2.1400000000000916, -1.3741029831730132 
2.1500000000001127, -1.3739410881917538 
2.160000000000134, -1.3746689317136451 
2.170000000000155, -1.3754283307287936 
2.180000000000176, -1.3759001125790582 
2.190000000000197, -1.3760467993592076 
2.2000000000002182, -1.3759010447296767 
2.2100000000002393, -1.3754774566735475 
2.2200000000002604, -1.374752098339321 
2.2300000000002815, -1.3736839611566922 
2.2400000000003026, -1.3723095789186528 
2.2500000000003237, -1.3709715030102048 
2.260000000000345, -1.370591940568532 
2.270000000000366, -1.3724603206967072 
2.280000000000387, -1.3771316146023118 
2.290000000000408, -1.383612706806402 
2.3000000000004293, -1.3901506768556393 
2.3100000000004504, -1.3955035557506072 
2.3200000000004715, -1.3992976475791545 
2.3300000000004926, -1.4017034974331373 
2.3400000000005137, -1.4030669077958176 
2.3500000000005348, -1.4037115387460393 
2.360000000000556, -1.4038775336787972 
2.370000000000577, -1.4037264077444944 
2.380000000000598, -1.403370030979721 
2.390000000000619, -1.4029051856503316 
2.4000000000006403, -1.4024406279574175 
2.4100000000006614, -1.4020965546192017 
2.4200000000006825, -1.4019657186473882 
2.4300000000007036, -1.4020684998851025 
2.4400000000007247, -1.4023502222141315 
2.450000000000746, -1.4027165412167277 
2.460000000000767, -1.4030685757480073 
2.470000000000788, -1.4033216713056427 
2.480000000000809, -1.403410609423054 
2.49000000000083, -1.4032859694811353 
2.5000000000008513, -1.4029076161175915 
2.5100000000008724, -1.402240720446373 
2.5200000000008935, -1.4012563450816589 
2.5300000000009146, -1.3999366852676989 
2.5400000000009357, -1.3982861412030902 
2.550000000000957, -1.3963513448292035 
2.560000000000978, -1.3942511846343075 
2.570000000000999, -1.392202602928029 
2.58000000000102, -1.3904949533905644 
2.5900000000010412, -1.389363151788465 
2.6000000000010624, -1.388828498969937 
2.6100000000010835, -1.3886910831913644 
2.6200000000011046, -1.3886893110783707 
2.6300000000011257, -1.3886318217628342 
2.6400000000011468, -1.3884066326435318 
2.650000000001168, -1.3879264644413958 
2.660000000001189, -1.3870679813998843 
2.67000000000121, -1.385614849521835 
2.680000000001231, -1.3832065027236427 
2.6900000000012523, -1.379343105240496 
2.7000000000012734, -1.3736182285034961 
2.7100000000012945, -1.3664265457660933 
2.7200000000013156, -1.3598248538419129 
2.7300000000013367, -1.3568214120907518 
2.740000000001358, -1.3584748512385452 
2.750000000001379, -1.3627602415473483 
2.7600000000014, -1.3670605186667402 
2.770000000001421, -1.3701623610329015 
2.780000000001442, -1.372023098895397 
2.7900000000014633, -1.3729788628903272 
2.8000000000014844, -1.3733435180379254 
2.8100000000015055, -1.3733204111408555 
2.8200000000015266, -1.3730231337498395 
2.8300000000015477, -1.3725205594358707 
2.840000000001569, -1.3718960916341605 
2.85000000000159, -1.371326424917536 
2.860000000001611, -1.3711376431588476 
2.870000000001632, -1.371715942856567 
2.8800000000016532, -1.3732374786708417 
2.8900000000016743, -1.3754884989995193 
2.9000000000016954, -1.3780147285369138 
2.9100000000017165, -1.3803980744916775 
2.9200000000017377, -1.3823887088869302 
2.9300000000017588, -1.3838899259816526 
2.94000000000178, -1.3849001619273777 
2.950000000001801, -1.3854662109833398 
2.960000000001822, -1.3856544168396294 
2.970000000001843, -1.385534432725531 
2.9800000000018643, -1.3851723176596318 
2.9900000000018854, -1.3846320334470348 
3.0000000000019065, -1.3839826988574058 
3.0100000000019276, -1.3833042719585935 
3.0200000000019487, -1.3826825642315483 
3.03000000000197, -1.3821924392622527 
3.040000000001991, -1.3818779063138513 
3.050000000002012, -1.3817364311588771 
3.060000000002033, -1.381714587561958 
3.070000000002054, -1.3817244440423102 
3.0800000000020753, -1.3816716259498925 
3.0900000000020964, -1.3814707064879683 
3.1000000000021175, -1.381039529485082 
3.1100000000021386, -1.3802836232429299 
3.1200000000021597, -1.379084232174971 
3.130000000002181, -1.3772991853710808 
3.140000000002202, -1.3747843226513479 
3.150000000002223, -1.3714448064570721 
3.160000000002244, -1.367326804442277 
3.1700000000022652, -1.362742874537344 
3.1800000000022863, -1.3583466389555778 
3.1900000000023074, -1.3549577014418126 
3.2000000000023285, -1.3530701866584631 
3.2100000000023496, -1.352498663811033 
3.2200000000023707, -1.3526305221199766 
3.230000000002392, -1.352923118034319 
3.240000000002413, -1.3530979048604654 
3.250000000002434, -1.35305952225356 
3.260000000002455, -1.3527739757881245 
3.2700000000024763, -1.352193535007078 
3.2800000000024974, -1.3512181205336864 
3.2900000000025185, -1.3496827427720535 
3.3000000000025396, -1.3474092367292525 
3.3100000000025607, -1.3444411132678995 
3.3200000000025818, -1.3415645693243408 
3.330000000002603, -1.3406797243253123 
3.340000000002624, -1.3437593697150203 
3.350000000002645, -1.3506253083770625 
3.360000000002666, -1.358770621564516 
3.3700000000026873, -1.3657365282268903 
3.3800000000027084, -1.370595535738591 
3.3900000000027295, -1.3735596206304064 
3.4000000000027506, -1.3751821650631064 
3.4100000000027717, -1.3759468567652102 
3.420000000002793, -1.3761768842431295 
3.430000000002814, -1.3760653687097943 
3.440000000002835, -1.3757292891902815 
3.450000000002856, -1.3752629449979688 
3.460000000002877, -1.3747882804866545 
3.4700000000028983, -1.3744822878827736 
3.4800000000029194, -1.374536457333628 
3.4900000000029405, -1.375046985107348 
3.5000000000029616, -1.3759428872507753 
3.5100000000029827, -1.3770378775113836 
3.520000000003004, -1.3781368351053511 
3.530000000003025, -1.3790974308465893 
3.540000000003046, -1.3798365876717453 
3.550000000003067, -1.380314644078695 
3.5600000000030882, -1.3805187927787503 
3.5700000000031094, -1.3804519759797562 
3.5800000000031305, -1.3801269936374827 
3.5900000000031516, -1.3795644314239268 
3.6000000000031727, -1.3787939421469375 
3.6100000000031938, -1.3778589932406295 
3.620000000003215, -1.3768237028578718 
3.630000000003236, -1.375777457757939 
3.640000000003257, -1.3748305222298363 
3.650000000003278, -1.3740914191084976 
3.6600000000032993, -1.3736220907610313 
3.6700000000033204, -1.3733968719748895 
3.6800000000033415, -1.3733112955700748 
3.6900000000033626, -1.3732363514808519 
3.7000000000033837, -1.3730603795795957 
3.710000000003405, -1.3726880633702803 
3.720000000003426, -1.3720115694177852 
3.730000000003447, -1.3708745854995776 
3.740000000003468, -1.3690408258169018 
3.750000000003489, -1.3661835693725999 
3.7600000000035103, -1.3619365582115572 
3.7700000000035314, -1.3560748542897345 
3.7800000000035525, -1.3488678645049874 
3.7900000000035736, -1.3414311198871292 
3.8000000000035947, -1.3355108929175632 
3.810000000003616, -1.3323496279539297 
3.820000000003637, -1.3317082452133746 
3.830000000003658, -1.332366874172642 
3.840000000003679, -1.3332658078185247 
3.8500000000037002, -1.3339244492853217 
3.8600000000037213, -1.3342428563157718 
3.8700000000037424, -1.3342505051671703 
3.8800000000037635, -1.333981017304659 
3.8900000000037847, -1.3334320682482312 
3.9000000000038058, -1.3325644782571433 
3.910000000003827, -1.3313406307564641 
3.920000000003848, -1.3298498024851628 
3.930000000003869, -1.3285670797757612 
3.94000000000389, -1.328574253231443 
3.9500000000039113, -1.3311582292836495 
3.9600000000039324, -1.3366255573169679 
3.9700000000039535, -1.3437213361970428 
3.9800000000039746, -1.3506166179030852 
3.9900000000039957, -1.3561254487068743 
4.000000000004016, -1.3599580873967518 
4.010000000003993, -1.36235139719444 
4.02000000000397, -1.363690617003983 
4.030000000003946, -1.3643168741481164 
4.040000000003923, -1.3644747132008685 
4.0500000000039, -1.3643242226170118 
4.0600000000038765, -1.3639741973310289 
4.070000000003853, -1.3635194565372228 
4.08000000000383, -1.3630718432628282 
4.090000000003807, -1.3627645793492933 
4.100000000003783, -1.3627115922074673 
4.11000000000376, -1.362947972525353 
4.120000000003737, -1.3634139222836004 
4.130000000003713, -1.3639956692090336 
4.14000000000369, -1.3645758459358697 
4.150000000003667, -1.36506007939674 
4.1600000000036434, -1.3653822202069341 
4.17000000000362, -1.3654994462095922 
4.180000000003597, -1.365385001521489 
4.1900000000035735, -1.3650228394904536 
4.20000000000355, -1.3644054696898396 
4.210000000003527, -1.3635348203515654 
4.220000000003504, -1.3624262591059548 
4.23000000000348, -1.3611165607419902 
4.240000000003457, -1.3596756909360823 
4.250000000003434, -1.3582182467276491 
4.26000000000341, -1.3569013702692894 
4.270000000003387, -1.3558863569882313 
4.280000000003364, -1.3552601250606844 
4.2900000000033405, -1.3549757869776446 
4.300000000003317, -1.3548835922997908 
4.310000000003294, -1.354819356056232 
4.320000000003271, -1.3546575871746105 
4.330000000003247, -1.3543028111260575 
4.340000000003224, -1.3536501904676197 
4.350000000003201, -1.3525397743339247 
4.360000000003177, -1.350710989485249 
4.370000000003154, -1.3477706388249424 
4.380000000003131, -1.3432273846540475 
4.390000000003107, -1.3367097089784632 
4.400000000003084, -1.3284745521928853 
4.410000000003061, -1.3199623878627165 
4.4200000000030375, -1.3134830416859242 
4.430000000003014, -1.3105475156034296 
4.440000000002991, -1.3106245722854555 
4.450000000002968, -1.3120438441767919 
4.460000000002944, -1.3135185026851257 
4.470000000002921, -1.314552389787375 
4.480000000002898, -1.3151057540346192 
4.490000000002874, -1.3152705792415769 
4.500000000002851, -1.3151294649662422 
4.510000000002828, -1.314720564046414 
4.520000000002804, -1.3140434223421482 
4.530000000002781, -1.3130935476982506 
4.540000000002758, -1.311953375291695 
4.5500000000027345, -1.3109696250733465 
4.560000000002711, -1.3109174100497822 
4.570000000002688, -1.3127865941220864 
4.580000000002665, -1.317002509107025 
4.590000000002641, -1.3228605199442798 
4.600000000002618, -1.3289996584423762 
4.610000000002595, -1.3343036857642738 
4.620000000002571, -1.3382904292221425 
4.630000000002548, -1.3409762275743862 
4.640000000002525, -1.3426072749991618 
4.6500000000025015, -1.343469312488332 
4.660000000002478, -1.3438005874007675 
4.670000000002455, -1.3437725645526564 
4.6800000000024315, -1.3435037271387027 
4.690000000002408, -1.3430863790535865 
4.700000000002385, -1.3426152944016914 
4.710000000002362, -1.3422040263401462 
4.720000000002338, -1.3419695432221197 
4.730000000002315, -1.3419858218739278 
4.740000000002292, -1.3422474018396569 
4.750000000002268, -1.3426796307252322 
4.760000000002245, -1.3431787332306584 
4.770000000002222, -1.3436455794168602 
4.7800000000021985, -1.3440012714380098 
4.790000000002175, -1.3441894113546873 
4.800000000002152, -1.3441717297734246 
4.810000000002129, -1.3439226360645553 
4.820000000002105, -1.343425949994311 
4.830000000002082, -1.3426744733241782 
4.840000000002059, -1.341672184003111 
4.850000000002035, -1.340439496343701 
4.860000000002012, -1.3390223964461778 
4.870000000001989, -1.3375045491541642 
4.880000000001965, -1.3360160751153258 
4.890000000001942, -1.3347226150983604 
4.900000000001919, -1.3337739183245758 
4.9100000000018955, -1.333223873390327 
4.920000000001872, -1.3329926640692251 
4.930000000001849, -1.3329195326223338 
