t, s[1].omega / s[0].omega 
0, -0.01999782553547059 
0.009999999999999995, -0.01983667058370104 
0.019999999999999934, -0.019779295210079824 
0.029999999999999874, -0.019803882348774855 
0.04000000000000012, -0.019878183330690913 
0.050000000000000405, -0.019965876077695947 
0.06000000000000069, -0.020033917198913336 
0.07000000000000098, -0.02005788228096696 
0.08000000000000126, -0.02002333835459933 
0.09000000000000155, -0.019923740719829802 
0.10000000000000184, -0.01975687161669627 
0.11000000000000212, -0.01952169526991876 
0.12000000000000241, -0.01921663783935259 
0.130000000000002, -0.01883966661337918 
0.1400000000000009, -0.018390275937026836 
0.1499999999999998, -0.01787315029974151 
0.1599999999999987, -0.017302410203017166 
0.1699999999999976, -0.016704147000290867 
0.1799999999999965, -0.01611469025159763 
0.1899999999999954, -0.015574029326840627 
0.1999999999999943, -0.015117032750195322 
0.2099999999999932, -0.014766409043310497 
0.2199999999999921, -0.01452945447745066 
0.229999999999991, -0.014398056889412791 
0.2399999999999899, -0.014350825311910256 
0.2499999999999888, -0.014357100715357864 
0.2599999999999877, -0.014382778588872672 
0.2699999999999866, -0.014396645940253045 
0.2799999999999855, -0.01437492075812089 
0.2899999999999844, -0.014302455055297153 
0.2999999999999833, -0.014170974221520732 
0.3099999999999822, -0.013975988646675328 
0.3199999999999811, -0.013713983290570159 
0.32999999999998, -0.013380857877199757 
0.3399999999999789, -0.012972114178501113 
0.3499999999999778, -0.012485070750726971 
0.35999999999997667, -0.011922990677244637 
0.36999999999997557, -0.011299939358119088 
0.37999999999997447, -0.010643688947012734 
0.38999999999997337, -0.009993628119886005 
0.39999999999997227, -0.009393054293683043 
0.40999999999997117, -0.008879145825147542 
0.41999999999997006, -0.008475369048300268 
0.42999999999996896, -0.008188590652420996 
0.43999999999996786, -0.00800994901190382 
0.44999999999996676, -0.00791776817528667 
0.45999999999996566, -0.00788187208081553 
0.46999999999996456, -0.007869146028796806 
0.47999999999996346, -0.007849290115880786 
0.48999999999996235, -0.007798855885936975 
0.49999999999996125, -0.007702286755578243 
0.5099999999999602, -0.007550299202338587 
0.519999999999959, -0.007337042070025749 
0.529999999999958, -0.007057485372431549 
0.5399999999999568, -0.006705984340307771 
0.5499999999999557, -0.006276584618910784 
0.5599999999999546, -0.005765448202858033 
0.5699999999999535, -0.005175330436039192 
0.5799999999999524, -0.004520810974129887 
0.5899999999999513, -0.003831292505476533 
0.5999999999999502, -0.003148450980700602 
0.6099999999999491, -0.0025176423969860673 
0.619999999999948, -0.0019771213070571567 
0.6299999999999469, -0.0015502945230993824 
0.6399999999999458, -0.0012432385918143053 
0.6499999999999447, -0.0010461576763916415 
0.6599999999999436, -0.000936741177927128 
0.6699999999999425, -0.0008846451622974728 
0.6799999999999414, -0.0008569540911465166 
0.6899999999999403, -0.0008236776912237595 
0.6999999999999392, -0.0007615382325132906 
0.7099999999999381, -0.0006548898560404673 
0.719999999999937, -0.0004941182619468437 
0.7299999999999359, -0.0002728940006479954 
0.7399999999999348, 5.225751029405421e-7 
0.7499999999999337, 1.3816883640978913e-7 
0.7599999999999326, 0.000011943523100223621 
0.7699999999999315, 0.0000956665754601949 
0.7799999999999304, 0.0002581959338937943 
0.7899999999999293, 0.0004839687138402379 
0.7999999999999282, 0.0007424256660443683 
0.8099999999999271, 0.0009910539890247336 
0.819999999999926, 0.001184381694070664 
0.8299999999999249, 0.0012847787500767662 
0.8399999999999238, 0.0012698855055599616 
0.8499999999999227, 0.001134731786036208 
0.8599999999999216, 0.0008900673768218872 
0.8699999999999205, 0.0005589211546530904 
0.8799999999999194, 0.0001720681863708508 
0.8899999999999183, -5.779120576941767e-7 
0.8999999999999172, -4.5538082837864615e-7 
0.9099999999999161, -1.4882838481219687e-7 
0.919999999999915, -3.763867958540489e-7 
0.9299999999999139, 2.2007961475261643e-7 
0.9399999999999128, 5.768341714203362e-7 
0.9499999999999117, 0.0000011227206270238662 
0.9599999999999106, 6.668918826093819e-7 
0.9699999999999095, 0.000013303827728669514 
0.9799999999999084, 0.00010060299109650961 
0.9899999999999073, 0.0002659224603968316 
0.9999999999999062, 0.0004928606058082206 
1.0099999999999052, 0.0007500774657737843 
1.019999999999904, 0.000994708050099398 
1.029999999999903, 0.0011815663625395015 
1.039999999999902, 0.001273832695882873 
1.0499999999999008, 0.0012501674978566933 
1.0599999999998997, 0.0011065635570278757 
1.0699999999998986, 0.0008545592046390202 
1.0799999999998975, 0.000517755479992759 
1.0899999999998964, 0.0001272308309173036 
1.0999999999998953, -6.071922465468925e-7 
1.1099999999998942, -5.051543259335881e-7 
1.119999999999893, -4.294393924205638e-7 
1.129999999999892, -6.332167224602747e-8 
1.1399999999998909, 2.0258815266353166e-7 
1.1499999999998898, 6.080547336910586e-7 
1.1599999999998887, 7.964077194193892e-8 
1.1699999999998876, 2.984557167779302e-7 
1.1799999999998865, 0.000015951913027841916 
1.1899999999998854, 0.00010680433639380946 
1.1999999999998843, 0.0002748502605362171 
1.2099999999998832, 0.0005028471018965134 
1.219999999999882, 0.0007586917064575799 
1.229999999999881, 0.0009992006499424254 
1.2399999999998799, 0.001179506887095802 
1.2499999999998788, 0.001263617394712553 
1.2599999999998777, 0.001231211300429304 
1.2699999999998766, 0.0010792345393939875 
1.2799999999998755, 0.0008200029966630362 
1.2899999999998744, 0.00047767760337396784 
1.2999999999998733, 0.00008362422250937011 
1.3099999999998722, -5.686312648593571e-10 
1.319999999999871, -0.0000012646185068770807 
1.32999999999987, -6.137179515311184e-7 
1.3399999999998689, -3.2571847537061043e-7 
1.3499999999998678, -3.5194458694629777e-7 
1.3599999999998666, 1.317286130621305e-7 
1.3699999999998655, 6.744444767666494e-9 
1.3799999999998644, 0.0000016443795440370833 
1.3899999999998633, 0.00001813668295116759 
1.3999999999998622, 0.00011251604615125554 
1.4099999999998611, 0.00028322075640905767 
1.41999999999986, 0.0005121660367710544 
1.429999999999859, 0.0007665042233603807 
1.4399999999998578, 0.00100276767793402 
1.4499999999998567, 0.001176440671119015 
1.4599999999998556, 0.0012523722143802595 
1.4699999999998545, 0.0012112581031892523 
1.4799999999998534, 0.001050987552771754 
1.4899999999998523, 0.0007846430539768122 
1.4999999999998512, 0.0004369329503308195 
1.5099999999998501, 0.00003949421406806299 
1.519999999999849, -0.000001966040836275909 
1.529999999999848, -1.2961998548828185e-7 
1.5399999999998468, -2.7885471087170487e-7 
1.5499999999998457, -1.5159223730316418e-8 
1.5599999999998446, -2.957135983775002e-7 
1.5699999999998435, 2.954131754478661e-7 
1.5799999999998424, 0.0000013248192085111488 
1.5899999999998413, 3.8529452248408035e-8 
1.5999999999998402, 0.000020277972129049354 
1.6099999999998391, 0.00011815668241311293 
1.619999999999838, 0.00029145103007806745 
1.629999999999837, 0.0005212337076530859 
1.6399999999998358, 0.0007739321679699444 
1.6499999999998347, 0.001005828941281138 
1.6599999999998336, 0.0011727911437900865 
1.6699999999998325, 0.0012405240746138264 
1.6799999999998314, 0.001190737620857097 
1.6899999999998303, 0.0010222544160199206 
1.6999999999998292, 0.0007489126867935414 
1.709999999999828, 0.00039595553228449835 
1.719999999999827, -0.0000018188760512510226 
1.729999999999826, -2.5803509587973207e-7 
1.7399999999998248, -3.0308232516291774e-7 
1.7499999999998237, -4.495911634820215e-7 
1.7599999999998226, -1.5781391062537732e-7 
1.7699999999998215, 7.975190060916137e-7 
1.7799999999998204, 7.14771486468518e-8 
1.7899999999998193, 9.916337814102922e-8 
1.7999999999998182, 2.65596185681172e-7 
1.809999999999817, 0.000024252599027357832 
1.819999999999816, 0.00012560098916609681 
1.8299999999998149, 0.0003014131417858279 
1.8399999999998138, 0.000531919686419874 
1.8499999999998127, 0.0007828436944337131 
1.8599999999998116, 0.0010102524124233456 
1.8699999999998105, 0.0011704266020244696 
1.8799999999998094, 0.0012299411729298282 
1.8899999999998083, 0.001171517101964804 
1.8999999999998072, 0.0009949006428208163 
1.909999999999806, 0.000714674980055285 
1.919999999999805, 0.00035660517863915877 
1.9299999999998039, -0.0000013994678854542434 
1.9399999999998028, -0.0000017459324222929787 
1.9499999999998017, -6.660217443584901e-7 
1.9599999999998006, -0.000001464713727233246 
1.9699999999997995, -3.6937541228535266e-7 
1.9799999999997984, -3.2402050440892436e-7 
1.9899999999997973, 5.659404491434939e-7 
1.9999999999997962, 3.4035487177048567e-7 
2.0099999999998173, 5.202859924990454e-7 
2.0199999999998384, 0.000026071929764319824 
2.0299999999998595, 0.00013085624433257652 
2.0399999999998806, 0.00030911005894106375 
2.0499999999999017, 0.0005402236024609946 
2.059999999999923, 0.0007892373144519551 
2.069999999999944, 0.0010120380794558044 
2.079999999999965, 0.0011653503834800874 
2.089999999999986, 0.0012166310217499314 
2.100000000000007, 0.0011496084809915783 
2.1100000000000283, 0.0009649427598362071 
2.1200000000000494, 0.0006779511672137218 
2.1300000000000705, 0.0003149076041567475 
2.1400000000000916, -2.781106089491384e-7 
2.1500000000001127, -2.2427511119434813e-7 
2.160000000000134, -9.802109230676418e-8 
2.170000000000155, -2.2696793349988682e-8 
2.180000000000176, -2.539603309377076e-7 
2.190000000000197, 3.700617133661219e-7 
2.2000000000002182, -2.776208631927708e-9 
2.2100000000002393, 2.6827816053248415e-7 
2.2200000000002604, 0.000001930583177739545 
2.2300000000002815, 0.000029771761349572854 
2.2400000000003026, 0.0001379589262285185 
2.2500000000003237, 0.0003185788346626305 
2.260000000000345, 0.0005501837160101637 
2.270000000000366, 0.0007971537213219178 
2.280000000000387, 0.0010152300632057666 
2.290000000000408, 0.0011616100025112605 
2.3000000000004293, 0.0012046434773092017 
2.3100000000004504, 0.0011290625260042763 
2.3200000000004715, 0.0009364311336423831 
2.3300000000004926, 0.0006427900045612503 
2.3400000000005137, 0.0002749086288216595 
2.3500000000005348, -0.0000016800544225322775 
2.360000000000556, -3.7668119619807014e-7 
2.370000000000577, -3.8101555681599113e-7 
2.380000000000598, -8.985965929277697e-8 
2.390000000000619, -8.747215833137713e-7 
2.4000000000006403, -3.6607123781364903e-7 
2.4100000000006614, 9.306423369017869e-7 
2.4200000000006825, 2.661130574494307e-7 
2.4300000000007036, 5.170407920593486e-7 
2.4400000000007247, 0.00003209584461984185 
2.450000000000746, 0.00014364848910105086 
2.460000000000767, 0.00032655434447483093 
2.470000000000788, 0.0005585312220094864 
2.480000000000809, 0.0008033224853308943 
2.49000000000083, 0.0010165586258935968 
2.5000000000008513, 0.0011559379862171198 
2.5100000000008724, 0.0011907139477318382 
2.5200000000008935, 0.0011066176726441707 
2.5300000000009146, 0.0009061073350025718 
2.5400000000009357, 0.0006059362283383124 
2.550000000000957, 0.00023335583778680757 
2.560000000000978, -0.000001588983155166788 
2.570000000000999, -3.657818608338451e-7 
2.58000000000102, -4.0405114497462453e-7 
2.5900000000010412, -0.0000012819020247635554 
2.6000000000010624, -3.938565731480202e-7 
2.6100000000010835, 3.250738953448497e-8 
2.6200000000011046, 1.1848499404506727e-7 
2.6300000000011257, 7.202516249452437e-7 
2.6400000000011468, 0.00000102668735337695 
2.650000000001168, 0.00003633805606556976 
2.660000000001189, 0.0001512183745299435 
2.67000000000121, 0.00033632937377458844 
2.680000000001231, 0.000568558822923732 
2.6900000000012523, 0.000811037421403359 
2.7000000000012734, 0.001019319674015267 
2.7100000000012945, 0.0011516323461337361 
2.7200000000013156, 0.0011781416524081116 
2.7300000000013367, 0.001085573146312731 
2.740000000001358, 0.0008772695038304067 
2.750000000001379, 0.0005706858518679583 
2.7600000000014, 0.0001935419244003842 
2.770000000001421, -0.000001803481289477053 
2.780000000001442, -0.0000019952093539059952 
2.7900000000014633, -5.223242482549703e-7 
2.8000000000014844, -3.2491751653770955e-7 
2.8100000000015055, 9.919714131726697e-8 
2.8200000000015266, 4.7380397921063343e-7 
2.8300000000015477, 8.266553907542278e-7 
2.840000000001569, 5.344772081095292e-7 
2.85000000000159, 1.8063095056107113e-7 
2.860000000001611, 0.00003921595046000582 
2.870000000001632, 0.00015738178387027213 
2.8800000000016532, 0.00034461259893755623 
2.8900000000016743, 0.0005769717198794285 
2.9000000000016954, 0.0008170024028330807 
2.9100000000017165, 0.0010202180430005808 
2.9200000000017377, 0.0011454003656720029 
2.9300000000017588, 0.0011636368862708282 
2.94000000000178, 0.0010626424034318343 
2.950000000001801, 0.0008466343754900291 
2.960000000001822, 0.0005337588907040944 
2.970000000001843, 0.00015218980941749863 
2.9800000000018643, -0.0000019652445459066043 
2.9900000000018854, -0.0000019990349007159633 
3.0000000000019065, -0.0000011030556545779708 
3.0100000000019276, -0.0000012194660033238092 
3.0200000000019487, -4.8927787988889e-7 
3.03000000000197, -1.3543462421130482e-7 
3.040000000001991, 5.092506702229245e-7 
3.050000000002012, 7.028241189506529e-8 
3.060000000002033, 5.209083853559978e-7 
3.070000000002054, 0.0000432716378315548 
3.0800000000020753, 0.00016468038386038443 
3.0900000000020964, 0.000353945222671279 
3.1000000000021175, 0.0005863114904147885 
3.1100000000021386, 0.0008237608088967025 
3.1200000000021597, 0.0010218000277656182 
3.130000000002181, 0.0011397913488899697 
3.140000000002202, 0.0011497511648276232 
3.150000000002223, 0.0010403780985595943 
3.160000000002244, 0.0008167547646656328 
3.1700000000022652, 0.0004977073350089175 
3.1800000000022863, 0.00011184947176081828 
3.1900000000023074, -2.5421619617573316e-7 
3.2000000000023285, -1.4230166291972044e-8 
3.2100000000023496, -0.0000010602095288906152 
3.2200000000023707, 2.4014028793708883e-8 
3.230000000002392, 3.745359611540166e-7 
3.240000000002413, -7.164858671045459e-7 
3.250000000002434, 2.4358576224604915e-7 
3.260000000002455, 4.0352063603823743e-7 
3.2700000000024763, 0.000001668092432135523 
3.2800000000024974, 0.00004812287615653893 
3.2900000000025185, 0.00017272820120541916 
3.3000000000025396, 0.00036393718350285207 
3.3100000000025607, 0.000596184688888162 
3.3200000000025818, 0.0008309173790740987 
3.330000000002603, 0.0010236700816999165 
3.340000000002624, 0.0011344101773199315 
3.350000000002645, 0.0011360897243384359 
3.360000000002666, 0.0010183854763715348 
3.3700000000026873, 0.000787235609824568 
3.3800000000027084, 0.00046213541728647487 
3.3900000000027295, 0.00007212376076221555 
3.4000000000027506, -0.0000014298280281902157 
3.4100000000027717, -0.0000015298219369836787 
3.420000000002793, -7.253394065974645e-8 
3.430000000002814, -0.0000013625296388989724 
3.440000000002835, -6.260631974259636e-7 
3.450000000002856, -2.27455193010884e-7 
3.460000000002877, 0.0000010704623285138833 
3.4700000000028983, 3.938293117797518e-7 
3.4800000000029194, 0.0000010267943761906622 
3.4900000000029405, 0.000051171891169491224 
3.5000000000029616, 0.00017892459914380608 
3.5100000000029827, 0.0003719852769347512 
3.520000000003004, 0.0006039870493626236 
3.530000000003025, 0.0008358691570953623 
3.540000000003046, 0.001023228745103398 
3.550000000003067, 0.0011266620756943358 
3.5600000000030882, 0.0011200627394001297 
3.5700000000031094, 0.0009940795815807468 
3.5800000000031305, 0.000755496726259051 
3.5900000000031516, 0.0004244674590692915 
3.6000000000031727, 0.00003044083086825207 
3.6100000000031938, -0.0000015212794067967863 
3.620000000003215, -3.934772020212034e-7 
3.630000000003236, -7.069155601497701e-7 
3.640000000003257, -6.787265462848171e-7 
3.650000000003278, 4.833527692072292e-7 
3.6600000000032993, -5.062897418852775e-7 
3.6700000000033204, -3.0027284798495493e-7 
3.6800000000033415, 3.855331111945272e-7 
3.6900000000033626, 0.000002575662446937323 
3.7000000000033837, 0.00005639782675615579 
3.710000000003405, 0.00018724868940166517 
3.720000000003426, 0.0003820685560717251 
3.730000000003447, 0.0006136983097294938 
3.740000000003468, 0.0008425976976657661 
3.750000000003489, 0.00102446002974799 
3.7600000000035103, 0.001120533124849429 
3.7700000000035314, 0.0011056572151067767 
3.7800000000035525, 0.0009714470439642368 
3.7900000000035736, 0.0007255231834026904 
3.8000000000035947, 0.00038868575759590604 
3.810000000003616, -5.011597261541028e-7 
3.820000000003637, -1.8900184051921835e-7 
3.830000000003658, -6.311541921818152e-7 
3.840000000003679, -4.5441677714372256e-7 
3.8500000000037002, -0.0000012332525897202488 
3.8600000000037213, 3.907730222317357e-7 
3.8700000000037424, 9.457378135743281e-7 
3.8800000000037635, 8.118316816672854e-8 
3.8900000000037847, 6.926625032178124e-7 
3.9000000000038058, 0.0000022655665190518326 
3.910000000003827, 0.00005974749565864282 
3.920000000003848, 0.00019364255266052347 
3.930000000003869, 0.0003901245524663405 
3.94000000000389, 0.0006212529560717337 
3.9500000000039113, 0.0008470368864551055 
3.9600000000039324, 0.001023299543948101 
3.9700000000039535, 0.0011119620741900495 
3.9800000000039746, 0.0010888156409568392 
3.9900000000039957, 0.0009464343908481031 
4.000000000004016, 0.0006932657886145979 
4.010000000003993, 0.0003507454060295304 
4.02000000000397, -3.66377889092576e-8 
4.030000000003946, -7.446531351719124e-7 
4.040000000003923, -0.0000011928146040130277 
4.0500000000039, -4.4404237015150446e-7 
4.0600000000038765, -0.000001247684714430573 
4.070000000003853, -5.77824094614864e-7 
4.08000000000383, 9.570259375107516e-8 
4.090000000003807, 0.0000010898115954478123 
4.100000000003783, 0.0000016447758615354105 
4.11000000000376, 0.000003333802850233122 
4.120000000003737, 0.00006445883143717325 
4.130000000003713, 0.00020134441683547247 
4.14000000000369, 0.00039939204765280937 
4.150000000003667, 0.0006298913835943829 
4.1600000000036434, 0.0008524301016229523 
4.17000000000362, 0.0010229944088528435 
4.180000000003597, 0.0011041994685155958 
4.1900000000035735, 0.0010727909297334804 
4.20000000000355, 0.0009222957114730487 
4.210000000003527, 0.0006619787016578959 
4.220000000003504, 0.00031389944259898125 
4.23000000000348, -5.218066225749914e-7 
4.240000000003457, -0.0000021213661860460287 
4.250000000003434, -2.889906643114209e-7 
4.26000000000341, -3.435426039493258e-7 
4.270000000003387, -0.0000011196290476056813 
4.280000000003364, -6.424441017877564e-7 
4.2900000000033405, 1.7515211489900495e-7 
4.300000000003317, 1.4230771204632457e-7 
4.310000000003294, 6.568563812526143e-7 
4.320000000003271, 0.000004646315421374212 
4.330000000003247, 0.00006939446314631032 
4.340000000003224, 0.00020921280071188692 
4.350000000003201, 0.00040872541946428533 
4.360000000003177, 0.0006384649297090982 
4.370000000003154, 0.0008576274441765659 
4.380000000003131, 0.0010223950237370732 
4.390000000003107, 0.001096096670730771 
4.400000000003084, 0.0010564354012733363 
4.410000000003061, 0.000897884095534786 
4.4200000000030375, 0.0006305155850962697 
4.430000000003014, 0.0002770017091213881 
4.440000000002991, -1.9675387469923566e-7 
4.450000000002968, -3.806701445729424e-7 
4.460000000002944, -0.0000012499796678127166 
4.470000000002921, -5.78661086857181e-7 
4.480000000002898, -5.498945604268648e-7 
4.490000000002874, -2.3174555996696345e-7 
4.500000000002851, -6.9864432942017e-7 
4.510000000002828, 0.0000011687234987356225 
4.520000000002804, 2.0491202582397765e-7 
4.530000000002781, 0.000005771209265308113 
4.540000000002758, 0.00007412056009657955 
4.5500000000027345, 0.0002168114610467376 
4.560000000002711, 0.00041768633961971875 
4.570000000002688, 0.0006465345663829363 
4.580000000002665, 0.0008621910920933163 
4.590000000002641, 0.0010210662077510938 
4.600000000002618, 0.0010872215867765273 
4.610000000002595, 0.001039319796361631 
4.620000000002571, 0.0008727727003776458 
4.630000000002548, 0.0005984515892733806 
4.640000000002525, 0.00023962871843096668 
