t, s[1].omega / s[0].omega 
0, -0.7299976800312694 
0.009999999999999995, -0.7297458949905009 
0.019999999999999934, -0.7294536344647771 
0.029999999999999874, -0.729118205221974 
0.04000000000000012, -0.7287382697631761 
0.050000000000000405, -0.7283164608207945 
0.06000000000000069, -0.7278607776346259 
0.07000000000000098, -0.7273849910972815 
0.08000000000000126, -0.7269089681547838 
0.09000000000000155, -0.7264595896328209 
0.10000000000000184, -0.7260722543894967 
0.11000000000000212, -0.7257923403401599 
0.12000000000000241, -0.7256756569488332 
0.130000000000002, -0.7257869433197193 
0.1400000000000009, -0.7261958223337465 
0.1499999999999998, -0.7269701225518641 
0.1599999999999987, -0.7281667612187339 
0.1699999999999976, -0.7298202105168473 
0.1799999999999965, -0.7319283540331736 
0.1899999999999954, -0.7344366079921101 
0.1999999999999943, -0.7372250865738845 
0.2099999999999932, -0.740109561141278 
0.2199999999999921, -0.7428684526302309 
0.229999999999991, -0.745295589339224 
0.2399999999999899, -0.7472552735053528 
0.2499999999999888, -0.7487071899261573 
0.2599999999999877, -0.7496903042228158 
0.2699999999999866, -0.7502844650695625 
0.2799999999999855, -0.7505751654583468 
0.2899999999999844, -0.7506332773098807 
0.2999999999999833, -0.7505080269854408 
0.3099999999999822, -0.7502270163088566 
0.3199999999999811, -0.7497984473852102 
0.32999999999998, -0.7492132448130884 
0.3399999999999789, -0.7484466683652317 
0.3499999999999778, -0.7474602628558383 
0.35999999999997667, -0.7462059376159619 
0.36999999999997557, -0.7446345783274488 
0.37999999999997447, -0.7427113208976832 
0.38999999999997337, -0.7404379650714359 
0.39999999999997227, -0.7378804369988343 
0.40999999999997117, -0.735194756412908 
0.41999999999997006, -0.7326317496211878 
0.42999999999996896, -0.7304852110741116 
0.43999999999996786, -0.7289784237987494 
0.44999999999996676, -0.7281642747354188 
0.45999999999996566, -0.7279246174157123 
0.46999999999996456, -0.728056167818113 
0.47999999999996346, -0.728362658957649 
0.48999999999996235, -0.7287022899910636 
0.49999999999996125, -0.7289923749840261 
0.5099999999999602, -0.7291936192380157 
0.519999999999959, -0.7292913249683661 
0.529999999999958, -0.7292806761743915 
0.5399999999999568, -0.729156986863117 
0.5499999999999557, -0.7289096213436211 
0.5599999999999546, -0.7285183609260079 
0.5699999999999535, -0.7279520288308128 
0.5799999999999524, -0.7271705703253003 
0.5899999999999513, -0.7261327572683439 
0.5999999999999502, -0.7248106668226615 
0.6099999999999491, -0.7232075513263422 
0.619999999999948, -0.7213696757178838 
0.6299999999999469, -0.7193823340486754 
0.6399999999999458, -0.7173499415545478 
0.6499999999999447, -0.7153716351997395 
0.6599999999999436, -0.7135249706099248 
0.6699999999999425, -0.7118616790558854 
0.6799999999999414, -0.7104114627415926 
0.6899999999999403, -0.7091880431160948 
0.6999999999999392, -0.7081939740009552 
0.7099999999999381, -0.7074234148609456 
0.719999999999937, -0.7068635428467627 
0.7299999999999359, -0.7064956173538051 
0.7399999999999348, -0.7062963965828153 
0.7499999999999337, -0.7062400770404866 
0.7599999999999326, -0.7063004900277631 
0.7699999999999315, -0.7064531111619148 
0.7799999999999304, -0.7066765150617689 
0.7899999999999293, -0.7069530832015231 
0.7999999999999282, -0.7072688619521073 
0.8099999999999271, -0.7076124174524746 
0.819999999999926, -0.7079725452023027 
0.8299999999999249, -0.7083351299124578 
0.8399999999999238, -0.7086804086501425 
0.8499999999999227, -0.7089826774968598 
0.8599999999999216, -0.7092138551415106 
0.8699999999999205, -0.7093499103056726 
0.8799999999999194, -0.7093767593508659 
0.8899999999999183, -0.7092924130151359 
0.8999999999999172, -0.709104964098622 
0.9099999999999161, -0.7088286916970189 
0.919999999999915, -0.7084810362724103 
0.9299999999999139, -0.7080820740065945 
0.9399999999999128, -0.7076569697221315 
0.9499999999999117, -0.7072413836067439 
0.9599999999999106, -0.7068896315904464 
0.9699999999999095, -0.7066849248143738 
0.9799999999999084, -0.7067496950285141 
0.9899999999999073, -0.707251541206549 
0.9999999999999062, -0.7083969020965681 
1.0099999999999052, -0.7104015455173801 
1.019999999999904, -0.713428278918393 
1.029999999999903, -0.7174954745510835 
1.039999999999902, -0.7223913346847148 
1.0499999999999008, -0.7276634392092528 
1.0599999999998997, -0.7327383485976404 
1.0699999999998986, -0.7371270694615581 
1.0799999999998975, -0.7405782158474856 
1.0899999999998964, -0.7430860180611562 
1.0999999999998953, -0.7447936157622305 
1.1099999999998942, -0.745887479398479 
1.119999999999893, -0.746534483609839 
1.129999999999892, -0.7468599993597196 
1.1399999999998909, -0.7469477003540959 
1.1499999999998898, -0.7468461007449808 
1.1599999999998887, -0.7465745194921852 
1.1699999999998876, -0.7461258468132588 
1.1799999999998865, -0.7454654850213107 
1.1899999999998854, -0.7445267818405771 
1.1999999999998843, -0.7432047135463654 
1.2099999999998832, -0.7413530620110823 
1.219999999999882, -0.7387967576659001 
1.229999999999881, -0.735376941092076 
1.2399999999998799, -0.7310378888531448 
1.2499999999998788, -0.7259257509995883 
1.2599999999998777, -0.7204202148187395 
1.2699999999998766, -0.7150381329434649 
1.2799999999998755, -0.7102547570482365 
1.2899999999998744, -0.7063627660862523 
1.2999999999998733, -0.7034396336382126 
1.3099999999998722, -0.7014001448918294 
1.319999999999871, -0.70007494163076 
1.32999999999987, -0.6992750213644527 
1.3399999999998689, -0.69883021929667 
1.3499999999998678, -0.6986052495911581 
1.3599999999998666, -0.6985012396840354 
1.3699999999998655, -0.6984499086020055 
1.3799999999998644, -0.6984053300770896 
1.3899999999998633, -0.6983361277754209 
1.3999999999998622, -0.6982194877242855 
1.4099999999998611, -0.6980375740511199 
1.41999999999986, -0.697776530830216 
1.429999999999859, -0.6974277983378842 
1.4399999999998578, -0.6969906236998887 
1.4499999999998567, -0.6964736891435719 
1.4599999999998556, -0.6958938135365017 
1.4699999999998545, -0.6952714944873869 
1.4799999999998534, -0.6946255203116635 
1.4899999999998523, -0.6939696444823787 
1.4999999999998512, -0.6933126675047211 
1.5099999999998501, -0.6926609870725536 
1.519999999999849, -0.6920217236689601 
1.529999999999848, -0.691405122717974 
1.5399999999998468, -0.6908259843019311 
1.5499999999998457, -0.690304429770022 
1.5599999999998446, -0.6898662591348068 
1.5699999999998435, -0.6895428638587473 
1.5799999999998424, -0.6893704882632707 
1.5899999999998413, -0.6893886919610843 
1.5999999999998402, -0.6896380643141491 
1.6099999999998391, -0.6901573780620852 
1.619999999999838, -0.6909802404230949 
1.629999999999837, -0.6921308413009464 
1.6399999999998358, -0.6936178256895624 
1.6499999999998347, -0.6954252500429293 
1.6599999999998336, -0.6975010468609202 
1.6699999999998325, -0.6997472596930956 
1.6799999999998314, -0.7020212052969212 
1.6899999999998303, -0.7041569278192578 
1.6999999999998292, -0.7060051698491685 
1.709999999999828, -0.7074725979313488 
1.719999999999827, -0.708536862510968 
1.729999999999826, -0.7092320697915813 
1.7399999999998248, -0.7096198160126481 
1.7499999999998237, -0.7097637455136199 
1.7599999999998226, -0.7097151434168552 
1.7699999999998215, -0.709507831525455 
1.7799999999998204, -0.7091578731488736 
1.7899999999998193, -0.7086646661282925 
1.7999999999998182, -0.7080117811225539 
1.809999999999817, -0.7071672121143053 
1.819999999999816, -0.7060835528947226 
1.8299999999998149, -0.7046992624864012 
1.8399999999998138, -0.7029429062887141 
1.8499999999998127, -0.7007436729879406 
1.8599999999998116, -0.6980546247868593 
1.8699999999998105, -0.6948976326480639 
1.8799999999998094, -0.6914253694162253 
1.8899999999998083, -0.6879509364920412 
1.8999999999998072, -0.6848710773660663 
1.909999999999806, -0.6824973226303237 
1.919999999999805, -0.6809296364382547 
1.9299999999998039, -0.6800669496601559 
1.9399999999998028, -0.6797081233410837 
1.9499999999998017, -0.6796489730126201 
1.9599999999998006, -0.6797315203659374 
1.9699999999997995, -0.679852372371075 
1.9799999999997984, -0.6799514782597894 
1.9899999999997973, -0.6799965549310009 
1.9999999999997962, -0.6799698866047627 
2.0099999999998173, -0.67985901801898 
2.0199999999998384, -0.6796508960828016 
2.0299999999998595, -0.6793288575448237 
2.0399999999998806, -0.678872450238953 
2.0499999999999017, -0.6782606509389477 
2.059999999999923, -0.6774787531917884 
2.069999999999944, -0.6765272998850917 
2.079999999999965, -0.6754286129250916 
2.089999999999986, -0.6742257957479025 
2.100000000000007, -0.6729731757377233 
2.1100000000000283, -0.6717232897071822 
2.1200000000000494, -0.6705174836588079 
2.1300000000000705, -0.6693834479820662 
2.1400000000000916, -0.6683381370049156 
2.1500000000001127, -0.6673925831568871 
2.160000000000134, -0.6665559887457224 
2.170000000000155, -0.6658381149721093 
2.180000000000176, -0.665250072195094 
2.190000000000197, -0.6648040009410667 
2.2000000000002182, -0.6645121588426361 
2.2100000000002393, -0.6643858636889098 
2.2200000000002604, -0.6644346537434814 
2.2300000000002815, -0.6646658747177874 
2.2400000000003026, -0.6650846569951837 
2.2500000000003237, -0.6656939256647415 
2.260000000000345, -0.6664937503385887 
2.270000000000366, -0.6674791076176001 
2.280000000000387, -0.66863525466958 
2.290000000000408, -0.6699308721197168 
2.3000000000004293, -0.6713113443944433 
2.3100000000004504, -0.6726973412793219 
2.3200000000004715, -0.6739943364793443 
2.3300000000004926, -0.675113281834747 
2.3400000000005137, -0.6759931998865676 
2.3500000000005348, -0.6766126064927271 
2.360000000000556, -0.676984522181258 
2.370000000000577, -0.6771413326723457 
2.380000000000598, -0.6771194356725627 
2.390000000000619, -0.6769492511030971 
2.4000000000006403, -0.6766508484003244 
2.4100000000006614, -0.6762331563776286 
2.4200000000006825, -0.6756949106275718 
2.4300000000007036, -0.675026495228114 
2.4400000000007247, -0.6742127112101842 
2.450000000000746, -0.6732368928631878 
2.460000000000767, -0.6720863531791168 
2.470000000000788, -0.6707575178134467 
2.480000000000809, -0.6692572019744079 
2.49000000000083, -0.6675988792501057 
2.5000000000008513, -0.6658049518313403 
2.5100000000008724, -0.6639349191452328 
2.5200000000008935, -0.6621266653180985 
2.5300000000009146, -0.6605829645640648 
2.5400000000009357, -0.6594747254997672 
2.550000000000957, -0.6588484767189109 
2.560000000000978, -0.6586248140092078 
2.570000000000999, -0.6586647427075333 
2.58000000000102, -0.6588345037931908 
2.5900000000010412, -0.6590361650363533 
2.6000000000010624, -0.6592099375947417 
2.6100000000010835, -0.6593241054449099 
2.6200000000011046, -0.6593632030999107 
2.6300000000011257, -0.6593186023951949 
2.6400000000011468, -0.6591821325275574 
2.650000000001168, -0.6589422652705784 
2.660000000001189, -0.6585825766205554 
2.67000000000121, -0.6580828304740793 
2.680000000001231, -0.6574234349779406 
2.6900000000012523, -0.6565933314377979 
2.7000000000012734, -0.6555990184894607 
2.7100000000012945, -0.6544696635224192 
2.7200000000013156, -0.6532536113918245 
2.7300000000013367, -0.6520068389828075 
2.740000000001358, -0.6507797676229038 
2.750000000001379, -0.6496092769429603 
2.7600000000014, -0.6485180030888016 
2.770000000001421, -0.6475184332936864 
2.780000000001442, -0.6466181646355122 
2.7900000000014633, -0.6458240208903904 
2.8000000000014844, -0.6451443812401362 
2.8100000000015055, -0.6445900043842746 
2.8200000000015266, -0.644173868385313 
2.8300000000015477, -0.6439104815655844 
2.840000000001569, -0.643815016921039 
2.85000000000159, -0.6439025363406431 
2.860000000001611, -0.6441874473294313 
2.870000000001632, -0.6446831145956373 
2.8800000000016532, -0.6454012155674654 
2.8900000000016743, -0.6463500283359427 
2.9000000000016954, -0.6475305331849012 
2.9100000000017165, -0.6489293960533026 
2.9200000000017377, -0.6505092963948751 
2.9300000000017588, -0.6522002212413919 
2.94000000000178, -0.6538990987024234 
2.950000000001801, -0.6554849966807692 
2.960000000001822, -0.6568483530640559 
2.970000000001843, -0.6579197468278258 
2.9800000000018643, -0.6586811059569182 
2.9900000000018854, -0.6591555110418104 
3.0000000000019065, -0.6593863859943179 
3.0100000000019276, -0.6594188386278023 
3.0200000000019487, -0.659288628496413 
3.03000000000197, -0.6590177061179212 
3.040000000001991, -0.6586131671800511 
3.050000000002012, -0.6580670641340565 
3.060000000002033, -0.6573556564063809 
3.070000000002054, -0.656437498151357 
3.0800000000020753, -0.655250280839811 
3.0900000000020964, -0.6537070599047783 
3.1000000000021175, -0.651694621285339 
3.1100000000021386, -0.6490825832901254 
3.1200000000021597, -0.645761639952583 
3.130000000002181, -0.6417287919898828 
3.140000000002202, -0.6371923735157032 
3.150000000002223, -0.6325915791012342 
3.160000000002244, -0.6284467148549864 
3.1700000000022652, -0.625132829843581 
3.1800000000022863, -0.6227627834237661 
3.1900000000023074, -0.6212328164128879 
3.2000000000023285, -0.620338795672902 
3.2100000000023496, -0.6198708025849141 
3.2200000000023707, -0.619658831709489 
3.230000000002392, -0.6195823293248621 
3.240000000002413, -0.6195626462979552 
3.250000000002434, -0.6195508861893438 
3.260000000002455, -0.6195168171565151 
3.2700000000024763, -0.6194405836181949 
3.2800000000024974, -0.6193073373719501 
3.2900000000025185, -0.6191045399543234 
3.3000000000025396, -0.6188217578200566 
3.3100000000025607, -0.618452673423865 
3.3200000000025818, -0.6179983580189274 
3.330000000002603, -0.6174697642623722 
3.340000000002624, -0.6168870196510243 
3.350000000002645, -0.6162746727418253 
3.360000000002666, -0.6156549437350602 
3.3700000000026873, -0.6150426454709172 
3.3800000000027084, -0.6144441672987045 
3.3900000000027295, -0.6138601354983417 
3.4000000000027506, -0.6132895544641002 
3.4100000000027717, -0.6127333697124026 
3.420000000002793, -0.612196676204173 
3.430000000002814, -0.6116899450158495 
3.440000000002835, -0.6112300299379294 
3.450000000002856, -0.6108415038395438 
3.460000000002877, -0.6105584841066549 
3.4700000000028983, -0.6104267866998099 
3.4800000000029194, -0.6105060197955268 
3.4900000000029405, -0.6108709862413052 
3.5000000000029616, -0.6116113422990868 
3.5100000000029827, -0.6128276549390188 
3.520000000003004, -0.6146207159585932 
3.530000000003025, -0.6170697353596941 
3.540000000003046, -0.6201960457352163 
3.550000000003067, -0.6239167358267099 
3.5600000000030882, -0.6280103217556593 
3.5700000000031094, -0.6321332666622664 
3.5800000000031305, -0.635910184227784 
3.5900000000031516, -0.6390589659050886 
3.6000000000031727, -0.6414668105524508 
3.6100000000031938, -0.6431743575701342 
3.620000000003215, -0.6443045252042812 
3.630000000003236, -0.6449952737459844 
3.640000000003257, -0.6453628406174621 
3.650000000003278, -0.6454906506159268 
3.6600000000032993, -0.6454306517023788 
3.6700000000033204, -0.6452076659941749 
3.6800000000033415, -0.6448223648805864 
3.6900000000033626, -0.6442514138630556 
3.7000000000033837, -0.6434448170224754 
3.710000000003405, -0.6423219590271454 
3.720000000003426, -0.6407706966248367 
3.730000000003447, -0.6386586288212766 
3.740000000003468, -0.6358690819837348 
3.750000000003489, -0.6323657162333844 
3.7600000000035103, -0.6282595315170388 
3.7700000000035314, -0.6238220471219947 
3.7800000000035525, -0.6194116311596181 
3.7900000000035736, -0.6153550301769324 
3.8000000000035947, -0.6118631047066417 
3.810000000003616, -0.609016037009532 
3.820000000003637, -0.6067958893496647 
3.830000000003658, -0.6051301139625327 
3.840000000003679, -0.6039254857680376 
3.8500000000037002, -0.6030884523147607 
3.8600000000037213, -0.6025351232626728 
3.8700000000037424, -0.6021950280171121 
3.8800000000037635, -0.6020115821505269 
3.8900000000037847, -0.6019409753171131 
3.9000000000038058, -0.6019504253494203 
3.910000000003827, -0.6020163470140955 
3.920000000003848, -0.6021227620180051 
3.930000000003869, -0.6022600646292656 
3.94000000000389, -0.602423955826771 
3.9500000000039113, -0.6026139969114018 
3.9600000000039324, -0.6028310600458175 
3.9700000000039535, -0.603073377427186 
3.9800000000039746, -0.6033320763390939 
3.9900000000039957, -0.6035884319729402 
4.000000000004016, -0.6038152525721758 
4.010000000003993, -0.6039828595642927 
4.02000000000397, -0.60406695696243 
4.030000000003946, -0.6040541169645877 
4.040000000003923, -0.6039424232256662 
4.0500000000039, -0.6037382272761604 
4.0600000000038765, -0.6034518303231223 
4.070000000003853, -0.6030944060807977 
4.08000000000383, -0.6026771229009714 
4.090000000003807, -0.6022125731883418 
4.100000000003783, -0.6017184974131973 
4.11000000000376, -0.6012239624447548 
4.120000000003737, -0.6007780130444288 
4.130000000003713, -0.6004595727983255 
4.14000000000369, -0.6003839491161875 
4.150000000003667, -0.600695127162456 
4.1600000000036434, -0.6015275699142065 
4.17000000000362, -0.6029300793306437 
4.180000000003597, -0.6047859300716232 
4.1900000000035735, -0.6068156430716429 
4.20000000000355, -0.6087107578387012 
4.210000000003527, -0.6102934583238807 
4.220000000003504, -0.6115484843750887 
4.23000000000348, -0.6125383595244418 
4.240000000003457, -0.6133235004774529 
4.250000000003434, -0.6139395866615824 
4.26000000000341, -0.6144063675679318 
4.270000000003387, -0.6147382997591408 
4.280000000003364, -0.6149485573550917 
4.2900000000033405, -0.6150485653582236 
4.300000000003317, -0.6150461136005855 
4.310000000003294, -0.6149435574346762 
4.320000000003271, -0.6147365908386608 
4.330000000003247, -0.6144139060235021 
4.340000000003224, -0.613958398438814 
4.350000000003201, -0.6133509724669912 
4.360000000003177, -0.6125777043743325 
4.370000000003154, -0.611639260024986 
4.380000000003131, -0.6105583554065854 
4.390000000003107, -0.6093796168286679 
4.400000000003084, -0.6081598370088939 
4.410000000003061, -0.6069534952956426 
4.4200000000030375, -0.6058016039623825 
4.430000000003014, -0.6047284043637023 
4.440000000002991, -0.6037447072483675 
4.450000000002968, -0.6028539255435856 
4.460000000002944, -0.6020575720792108 
4.470000000002921, -0.601358926897418 
4.480000000002898, -0.6007649800918136 
4.490000000002874, -0.6002872491805671 
4.500000000002851, -0.5999420059857058 
4.510000000002828, -0.5997502350967883 
4.520000000002804, -0.5997374816189249 
4.530000000002781, -0.5999336363817422 
4.540000000002758, -0.600372565603255 
4.5500000000027345, -0.601091211953192 
4.560000000002711, -0.6021272963637034 
4.570000000002688, -0.6035140717051548 
4.580000000002665, -0.6052700868841042 
4.590000000002641, -0.6073826656571002 
4.600000000002618, -0.609787582214363 
4.610000000002595, -0.6123550343236812 
4.620000000002571, -0.614898619739032 
4.630000000002548, -0.617217231140238 
4.640000000002525, -0.6191544032336662 
4.6500000000025015, -0.6206386849000791 
4.660000000002478, -0.6216818818254579 
4.670000000002455, -0.6223464513500241 
4.6800000000024315, -0.6227091841196281 
4.690000000002408, -0.6228376343845549 
4.700000000002385, -0.6227802016793244 
4.710000000002362, -0.6225640479641277 
4.720000000002338, -0.6221953922412345 
4.730000000002315, -0.6216589464440515 
4.740000000002292, -0.6209149471063713 
4.750000000002268, -0.6198933889414513 
4.760000000002245, -0.6184867677745427 
4.770000000002222, -0.6165466265788639 
4.7800000000021985, -0.6138967657122112 
4.790000000002175, -0.6103830017111014 
4.800000000002152, -0.6059681913028929 
4.810000000002129, -0.6008320011845667 
4.820000000002105, -0.5953820986425161 
4.830000000002082, -0.5901255907333431 
4.840000000002059, -0.585482637453724 
4.850000000002035, -0.5816758047779793 
4.860000000002012, -0.5787363017153727 
4.870000000001989, -0.5765734064287928 
4.880000000001965, -0.575045419711927 
4.890000000001942, -0.5740061075514885 
4.900000000001919, -0.5733271722867437 
4.9100000000018955, -0.5729054225883089 
4.920000000001872, -0.5726622289797172 
