t, s[1].omega / s[0].omega 
0, -0.559997739093297 
0.009999999999999995, -0.5597744810450016 
0.019999999999999934, -0.5595528403261715 
0.029999999999999874, -0.5593226628906109 
0.04000000000000012, -0.5590718749939965 
0.050000000000000405, -0.5587908143714583 
0.06000000000000069, -0.5584747349998429 
0.07000000000000098, -0.5581241638429673 
0.08000000000000126, -0.5577441193727121 
0.09000000000000155, -0.5573435122797228 
0.10000000000000184, -0.5569356571566807 
0.11000000000000212, -0.5565403666904556 
0.12000000000000241, -0.5561878613856619 
0.130000000000002, -0.5559245879115795 
0.1400000000000009, -0.5558206386214424 
0.1499999999999998, -0.5559772435580943 
0.1599999999999987, -0.5565299987747017 
0.1699999999999976, -0.5576386413744452 
0.1799999999999965, -0.5594493758657905 
0.1899999999999954, -0.5620202996702166 
0.1999999999999943, -0.5652308538875194 
0.2099999999999932, -0.5687488545270242 
0.2199999999999921, -0.5721326662065094 
0.229999999999991, -0.5750269071170091 
0.2399999999999899, -0.5772884223904068 
0.2499999999999888, -0.5789568476690343 
0.2599999999999877, -0.5801500491802656 
0.2699999999999866, -0.5809867369822365 
0.2799999999999855, -0.581558935527167 
0.2899999999999844, -0.5819315833983694 
0.2999999999999833, -0.5821489882969035 
0.3099999999999822, -0.5822403556737958 
0.3199999999999811, -0.5822231911354655 
0.32999999999998, -0.5821051552480934 
0.3399999999999789, -0.5818851132734476 
0.3499999999999778, -0.5815541408586722 
0.35999999999997667, -0.5810974573808348 
0.36999999999997557, -0.5804984658619045 
0.37999999999997447, -0.5797456620358103 
0.38999999999997337, -0.5788413813797578 
0.39999999999997227, -0.5778085066333596 
0.40999999999997117, -0.5766900211803145 
0.41999999999997006, -0.5755396796754987 
0.42999999999996896, -0.5744083609122546 
0.43999999999996786, -0.5733335925220403 
0.44999999999996676, -0.5723364829851963 
0.45999999999996566, -0.5714249709001095 
0.46999999999996456, -0.5705996891709256 
0.47999999999996346, -0.5698593725953328 
0.48999999999996235, -0.5692045553063231 
0.49999999999996125, -0.5686396681743753 
0.5099999999999602, -0.5681741523345208 
0.519999999999959, -0.5678231490132002 
0.529999999999958, -0.567608091196758 
0.5399999999999568, -0.5675573143312744 
0.5499999999999557, -0.567706645249707 
0.5599999999999546, -0.5680997423146033 
0.5699999999999535, -0.5687876223371838 
0.5799999999999524, -0.569826198726378 
0.5899999999999513, -0.5712697606245013 
0.5999999999999502, -0.5731575589313805 
0.6099999999999491, -0.5754914446987296 
0.619999999999948, -0.578207479851084 
0.6299999999999469, -0.5811551343392808 
0.6399999999999458, -0.5841074001592338 
0.6499999999999447, -0.5868157631676123 
0.6599999999999436, -0.5890881058123899 
0.6699999999999425, -0.5908395990577324 
0.6799999999999414, -0.5920877112006113 
0.6899999999999403, -0.5929095075722486 
0.6999999999999392, -0.593397214957998 
0.7099999999999381, -0.5936312935953488 
0.719999999999937, -0.5936703878711402 
0.7299999999999359, -0.5935503972548204 
0.7399999999999348, -0.5932862829403633 
0.7499999999999337, -0.5928732808835572 
0.7599999999999326, -0.5922863426167042 
0.7699999999999315, -0.591478041529015 
0.7799999999999304, -0.5903768456420393 
0.7899999999999293, -0.5888904315870096 
0.7999999999999282, -0.5869220323456552 
0.8099999999999271, -0.5844071113379417 
0.819999999999926, -0.5813645932088649 
0.8299999999999249, -0.5779324551562197 
0.8399999999999238, -0.5743495661411915 
0.8499999999999227, -0.570882321323373 
0.8599999999999216, -0.5677437451515146 
0.8699999999999205, -0.5650531695270565 
0.8799999999999194, -0.5628426458376732 
0.8899999999999183, -0.5610863344873984 
0.8999999999999172, -0.5597300925588475 
0.9099999999999161, -0.5587117679743194 
0.919999999999915, -0.557972152654224 
0.9299999999999139, -0.557459677996955 
0.9399999999999128, -0.5571317431793376 
0.9499999999999117, -0.5569545287987736 
0.9599999999999106, -0.5569022724202546 
0.9699999999999095, -0.5569564507675843 
0.9799999999999084, -0.5571050286888722 
0.9899999999999073, -0.5573417549452926 
0.9999999999999062, -0.5576652935501738 
1.0099999999999052, -0.5580777298993796 
1.019999999999904, -0.5585817748826172 
1.029999999999903, -0.5591761032251718 
1.039999999999902, -0.5598491236200422 
1.0499999999999008, -0.5605732229200011 
1.0599999999998997, -0.561303292249512 
1.0699999999998986, -0.5619829796923246 
1.0799999999998975, -0.5625579357221883 
1.0899999999998964, -0.5629896350151079 
1.0999999999998953, -0.5632620878399434 
1.1099999999998942, -0.563378999367588 
1.119999999999893, -0.5633551986431418 
1.129999999999892, -0.5632077513947183 
1.1399999999998909, -0.5629497006999473 
1.1499999999998898, -0.5625865468261282 
1.1599999999998887, -0.5621142554392554 
1.1699999999998876, -0.5615174506962395 
1.1799999999998865, -0.5607666802527691 
1.1899999999998854, -0.5598138278720071 
1.1999999999998843, -0.5585851193766501 
1.2099999999998832, -0.5569729148774065 
1.219999999999882, -0.5548332459279296 
1.229999999999881, -0.5520076993261407 
1.2399999999998799, -0.5483955218553762 
1.2499999999998788, -0.5440706068988098 
1.2599999999998777, -0.5393560340561065 
1.2699999999998766, -0.5347431328499382 
1.2799999999998755, -0.5306835934786706 
1.2899999999998744, -0.5274259901991621 
1.2999999999998733, -0.5249990868679066 
1.3099999999998722, -0.5232925167183577 
1.319999999999871, -0.5221458605144136 
1.32999999999987, -0.5214043531233958 
1.3399999999998689, -0.5209418042286187 
1.3499999999998678, -0.5206642383480421 
1.3599999999998666, -0.5205053884164793 
1.3699999999998655, -0.5204201452532871 
1.3799999999998644, -0.5203785738494813 
1.3899999999998633, -0.5203613400781961 
1.3999999999998622, -0.5203566566077334 
1.4099999999998611, -0.5203585704957291 
1.41999999999986, -0.5203662138717393 
1.429999999999859, -0.5203833557127486 
1.4399999999998578, -0.5204173052186029 
1.4499999999998567, -0.5204762761072079 
1.4599999999998556, -0.520565098483968 
1.4699999999998545, -0.520680541485637 
1.4799999999998534, -0.5208086350970443 
1.4899999999998523, -0.5209261338041358 
1.4999999999998512, -0.5210062068745989 
1.5099999999998501, -0.5210256932494837 
1.519999999999849, -0.5209701572569891 
1.529999999999848, -0.5208346940424173 
1.5399999999998468, -0.5206212851828051 
1.5499999999998457, -0.5203349757043525 
1.5599999999998446, -0.5199806961746265 
1.5699999999998435, -0.5195613899100598 
1.5799999999998424, -0.5190772806054693 
1.5899999999998413, -0.5185257888567756 
1.5999999999998402, -0.5179014287701287 
1.6099999999998391, -0.5171945667295317 
1.619999999999838, -0.5163869398872417 
1.629999999999837, -0.515440799560201 
1.6399999999998358, -0.5142804481697827 
1.6499999999998347, -0.5127768431797456 
1.6599999999998336, -0.5107703555978924 
1.6699999999998325, -0.5081709362757074 
1.6799999999998314, -0.5050946827401813 
1.6899999999998303, -0.5018862233766151 
1.6999999999998292, -0.4989549045324875 
1.709999999999828, -0.49657496042282556 
1.719999999999827, -0.4948186841734323 
1.729999999999826, -0.4936148267493817 
1.7399999999998248, -0.49283538419527806 
1.7499999999998237, -0.4923533411068182 
1.7599999999998226, -0.49206644640710184 
1.7699999999998215, -0.49190074931753147 
1.7799999999998204, -0.4918059692123312 
1.7899999999998193, -0.49174915861157764 
1.7999999999998182, -0.49170923268724753 
1.809999999999817, -0.4916730734914373 
1.819999999999816, -0.4916332139422443 
1.8299999999998149, -0.4915868621874738 
1.8399999999998138, -0.49153582619280434 
1.8499999999998127, -0.49148657692530284 
1.8599999999998116, -0.4914493845443976 
1.8699999999998105, -0.49143560258573304 
1.8799999999998094, -0.4914531139105657 
1.8899999999998083, -0.49150141198842734 
1.8999999999998072, -0.49156880421338567 
1.909999999999806, -0.4916337942626603 
1.919999999999805, -0.4916706197359404 
1.9299999999998039, -0.49165633529627834 
1.9399999999998028, -0.49157584557000744 
1.9499999999998017, -0.4914229105757991 
1.9599999999998006, -0.4911978115752481 
1.9699999999997995, -0.4909037616420708 
1.9799999999997984, -0.4905437567324637 
1.9899999999997973, -0.4901184715543683 
1.9999999999997962, -0.4896249794505304 
2.0099999999998173, -0.48905567020196183 
2.0199999999998384, -0.48839643647305503 
2.0299999999998595, -0.48762265151959205 
2.0399999999998806, -0.4866906650864816 
2.0499999999999017, -0.48552275598931843 
2.059999999999923, -0.48398906868097596 
2.069999999999944, -0.4819077891912447 
2.079999999999965, -0.479107288547805 
2.089999999999986, -0.47556887626778044 
2.100000000000007, -0.4715511637972984 
2.1100000000000283, -0.4675292043404825 
2.1200000000000494, -0.46396107338057757 
2.1300000000000705, -0.46109892030225935 
2.1400000000000916, -0.4589721717620711 
2.1500000000001127, -0.4574767142143984 
2.160000000000134, -0.4564660719704855 
2.170000000000155, -0.45580359934231024 
2.180000000000176, -0.45538122644298823 
2.190000000000197, -0.45512061489635114 
2.2000000000002182, -0.45496791268421016 
2.2100000000002393, -0.45488754427244527 
2.2200000000002604, -0.454857046046221 
2.2300000000002815, -0.4548634160330943 
2.2400000000003026, -0.4549008692511733 
2.2500000000003237, -0.4549696577390329 
2.260000000000345, -0.4550754063108505 
2.270000000000366, -0.45522814446445975 
2.280000000000387, -0.45544003614931095 
2.290000000000408, -0.45572106924968175 
2.3000000000004293, -0.4560729618848667 
2.3100000000004504, -0.4564831618485007 
2.3200000000004715, -0.45692225571789546 
2.3300000000004926, -0.4573478404259556 
2.3400000000005137, -0.4577147277473764 
2.3500000000005348, -0.45798675680553946 
2.360000000000556, -0.45814387881426466 
2.370000000000577, -0.45818169745971254 
2.380000000000598, -0.45810565935793984 
2.390000000000619, -0.4579239624364984 
2.4000000000006403, -0.4576417661287341 
2.4100000000006614, -0.45725705682847195 
2.4200000000006825, -0.4567572172183179 
2.4300000000007036, -0.45611498614911283 
2.4400000000007247, -0.45528263609324915 
2.450000000000746, -0.45418391544855147 
2.460000000000767, -0.4527057140820424 
2.470000000000788, -0.4506976292401893 
2.480000000000809, -0.4479977735059455 
2.49000000000083, -0.44450559211879737 
2.5000000000008513, -0.4402887229543729 
2.5100000000008724, -0.43564151773071014 
2.5200000000008935, -0.4310053148745453 
2.5300000000009146, -0.4267882159247055 
2.5400000000009357, -0.42322960895826495 
2.550000000000957, -0.4203863746315789 
2.560000000000978, -0.4181965178190965 
2.570000000000999, -0.41654955868277976 
2.58000000000102, -0.4153316220904154 
2.5900000000010412, -0.4144456123911543 
2.6000000000010624, -0.41381650709861495 
2.6100000000010835, -0.4133900726862504 
2.6200000000011046, -0.4131296288911968 
2.6300000000011257, -0.41301291679470814 
2.6400000000011468, -0.4130297877320763 
2.650000000001168, -0.41318082372637777 
2.660000000001189, -0.41347669904617945 
2.67000000000121, -0.4139378179086182 
2.680000000001231, -0.414593336908586 
2.6900000000012523, -0.4154780309821615 
2.7000000000012734, -0.41662477026257766 
2.7100000000012945, -0.418050431749213 
2.7200000000013156, -0.4197356285551753 
2.7300000000013367, -0.4216054650356365 
2.740000000001358, -0.4235269304039265 
2.750000000001379, -0.42533686103350155 
2.7600000000014, -0.42689289879295134 
2.770000000001421, -0.4281156864549251 
2.780000000001442, -0.4289961565941315 
2.7900000000014633, -0.42957262864517015 
2.8000000000014844, -0.4299007507531513 
2.8100000000015055, -0.4300324379924736 
2.8200000000015266, -0.43000621608913603 
2.8300000000015477, -0.42984472385968686 
2.840000000001569, -0.4295550423442324 
2.85000000000159, -0.4291295441727045 
2.860000000001611, -0.42854689578734606 
2.870000000001632, -0.42777447710565647 
2.8800000000016532, -0.4267748827086407 
2.8900000000016743, -0.42551936876882124 
2.9000000000016954, -0.4240077078785083 
2.9100000000017165, -0.42228590176683395 
2.9200000000017377, -0.420447042931756 
2.9300000000017588, -0.418608080926715 
2.94000000000178, -0.41687455313063637 
2.950000000001801, -0.41531508727827965 
2.960000000001822, -0.41395655382523067 
2.970000000001843, -0.41279451450122345 
2.9800000000018643, -0.4118080452588897 
2.9900000000018854, -0.41097180500389563 
3.0000000000019065, -0.4102634246029059 
3.0100000000019276, -0.40966713942401584 
3.0200000000019487, -0.40917531653367256 
3.03000000000197, -0.4087892822651953 
3.040000000001991, -0.40852039657634176 
3.050000000002012, -0.4083919536597316 
3.060000000002033, -0.40844224390448974 
3.070000000002054, -0.4087288563831482 
3.0800000000020753, -0.4093337418829729 
3.0900000000020964, -0.4103671634637684 
3.1000000000021175, -0.4119656338762203 
3.1100000000021386, -0.41427380591418733 
3.1200000000021597, -0.4173956316033286 
3.130000000002181, -0.42130742524453507 
3.140000000002202, -0.42576462795663356 
3.150000000002223, -0.43029576051270446 
3.160000000002244, -0.4343638377420276 
3.1700000000022652, -0.4376090971551526 
3.1800000000022863, -0.43996230295364996 
3.1900000000023074, -0.4415626688855987 
3.2000000000023285, -0.44261212952634327 
3.2100000000023496, -0.44328499289344514 
3.2200000000023707, -0.44370390040755436 
3.230000000002392, -0.4439473548547202 
3.240000000002413, -0.4440633777390384 
3.250000000002434, -0.44408025781078714 
3.260000000002455, -0.44401341663025723 
3.2700000000024763, -0.4438696420441001 
3.2800000000024974, -0.44365010324672616 
3.2900000000025185, -0.44335329895849895 
3.3000000000025396, -0.4429786863564523 
3.3100000000025607, -0.4425309653793132 
3.3200000000025818, -0.44202375937223354 
3.330000000002603, -0.4414804248434593 
3.340000000002624, -0.4409303067319835 
3.350000000002645, -0.4404013382307931 
3.360000000002666, -0.4399125118671778 
3.3700000000026873, -0.4394699074969973 
3.3800000000027084, -0.4390676401579802 
3.3900000000027295, -0.4386924300717522 
3.4000000000027506, -0.43832918223602124 
3.4100000000027717, -0.43796526830868565 
3.420000000002793, -0.4375925291969792 
3.430000000002814, -0.4372073928673772 
3.440000000002835, -0.43681017516011 
3.450000000002856, -0.4364045461846941 
3.460000000002877, -0.4359977303593082 
3.4700000000028983, -0.4356016239315408 
3.4800000000029194, -0.43523468218073386 
3.4900000000029405, -0.4349238612713836 
3.5000000000029616, -0.4347045589408087 
3.5100000000029827, -0.4346137795018903 
3.520000000003004, -0.4346681580367524 
3.530000000003025, -0.43481948690975375 
3.540000000003046, -0.43490108520607773 
3.550000000003067, -0.4346280416912879 
3.5600000000030882, -0.4337333663451811 
3.5700000000031094, -0.4321876228395836 
3.5800000000031305, -0.43026654243833296 
3.5900000000031516, -0.4283637148426852 
3.6000000000031727, -0.4267608030927071 
3.6100000000031938, -0.425555148036367 
3.620000000003215, -0.4247159698295112 
3.630000000003236, -0.42416194187244993 
3.640000000003257, -0.4238092870077537 
3.650000000003278, -0.4235905165071075 
3.6600000000032993, -0.4234572394237411 
3.6700000000033204, -0.4233770569838688 
3.6800000000033415, -0.4233294198274889 
3.6900000000033626, -0.42330225157484785 
3.7000000000033837, -0.4232897820922223 
3.710000000003405, -0.4232915122521036 
3.720000000003426, -0.4233119648394186 
3.730000000003447, -0.42336058771090057 
3.740000000003468, -0.4234508683378898 
3.750000000003489, -0.42359766078431027 
3.7600000000035103, -0.4238122749374297 
3.7700000000035314, -0.4240961341435793 
3.7800000000035525, -0.42443537375497903 
3.7900000000035736, -0.4247996913062925 
3.8000000000035947, -0.4251477243236804 
3.810000000003616, -0.4254376417347224 
3.820000000003637, -0.4256377224772553 
3.830000000003658, -0.4257314617856953 
3.840000000003679, -0.4257157913558398 
3.8500000000037002, -0.4255951558084668 
3.8600000000037213, -0.4253750211094638 
3.8700000000037424, -0.4250566596518589 
3.8800000000037635, -0.4246331439386458 
3.8900000000037847, -0.42408550517739513 
3.9000000000038058, -0.42337784084976454 
3.910000000003827, -0.42245057315631407 
3.920000000003848, -0.4212125958262566 
3.930000000003869, -0.41953725446664825 
3.94000000000389, -0.4172752209294601 
3.9500000000039113, -0.41430393491274503 
3.9600000000039324, -0.4106176216027408 
3.9700000000039535, -0.4064071507851764 
3.9800000000039746, -0.40203875043932 
3.9900000000039957, -0.39791334006091594 
4.000000000004016, -0.39431522687593273 
4.010000000003993, -0.3913576688656738 
4.02000000000397, -0.389021157337875 
4.030000000003946, -0.38721969458970057 
4.040000000003923, -0.38585118680918834 
4.0500000000039, -0.3848235221635745 
4.0600000000038765, -0.3840637348195601 
4.070000000003853, -0.3835187826493794 
4.08000000000383, -0.38315333085746134 
4.090000000003807, -0.3829471776377777 
4.100000000003783, -0.38289338055980504 
4.11000000000376, -0.3829973934296934 
4.120000000003737, -0.3832771670037606 
4.130000000003713, -0.38376387835548076 
4.14000000000369, -0.3845024721636213 
4.150000000003667, -0.38555028041291234 
4.1600000000036434, -0.3869705182331792 
4.17000000000362, -0.3888159672663631 
4.180000000003597, -0.39109904273691176 
4.1900000000035735, -0.39375266591491764 
4.20000000000355, -0.3966043933820442 
4.210000000003527, -0.39939912421589563 
4.220000000003504, -0.401880737625807 
4.23000000000348, -0.40388418148087507 
4.240000000003457, -0.40537088577963337 
4.250000000003434, -0.40639660881205864 
4.26000000000341, -0.4070553822773831 
4.270000000003387, -0.40743857488175345 
4.280000000003364, -0.4076173348732796 
4.2900000000033405, -0.40763990501616326 
4.300000000003317, -0.4075346878071664 
4.310000000003294, -0.40731424333536215 
4.320000000003271, -0.40697880584006024 
4.330000000003247, -0.4065197331306375 
4.340000000003224, -0.4059241656578621 
4.350000000003201, -0.405182184583056 
4.360000000003177, -0.4042963273593546 
4.370000000003154, -0.40329020436684004 
4.380000000003131, -0.4022102939428695 
4.390000000003107, -0.4011170012106474 
4.400000000003084, -0.400068350981606 
4.410000000003061, -0.399105416416534 
4.4200000000030375, -0.3982464915789439 
4.430000000003014, -0.39749018043385587 
4.440000000002991, -0.39682306151341107 
4.450000000002968, -0.3962275065962788 
4.460000000002944, -0.3956872916404451 
4.470000000002921, -0.3951906163887153 
4.480000000002898, -0.3947312808402233 
4.490000000002874, -0.39430909719206997 
4.500000000002851, -0.3939304632833337 
4.510000000002828, -0.39360972565807206 
4.520000000002804, -0.39337169706115616 
4.530000000002781, -0.393255408507265 
4.540000000002758, -0.3933185480120659 
4.5500000000027345, -0.3936403943968484 
4.560000000002711, -0.39431737336806283 
4.570000000002688, -0.3954393049544952 
4.580000000002665, -0.39703085586863074 
4.590000000002641, -0.3989603678006234 
4.600000000002618, -0.400881178406682 
4.610000000002595, -0.402331855425018 
4.620000000002571, -0.4030099779336621 
4.630000000002548, -0.4029677077044279 
4.640000000002525, -0.40250930020315223 
4.6500000000025015, -0.40194429332125126 
4.660000000002478, -0.4014517059876924 
4.670000000002455, -0.40108784366317324 
4.6800000000024315, -0.4008432226729389 
4.690000000002408, -0.4006869445767447 
4.700000000002385, -0.40058822166527175 
4.710000000002362, -0.4005233013935573 
4.720000000002338, -0.4004759803372365 
4.730000000002315, -0.40043620945609415 
4.740000000002292, -0.4003987051310468 
4.750000000002268, -0.4003622196805985 
4.760000000002245, -0.4003295565383561 
4.770000000002222, -0.40030804374439644 
4.7800000000021985, -0.4003097876487393 
4.790000000002175, -0.40035070563078756 
4.800000000002152, -0.4004474213570165 
4.810000000002129, -0.40061189408072073 
4.820000000002105, -0.40084502991332716 
4.830000000002082, -0.4011319111658607 
4.840000000002059, -0.40144176441028756 
4.850000000002035, -0.4017342612687006 
4.860000000002012, -0.4019700833718766 
4.870000000001989, -0.4021204387273015 
4.880000000001965, -0.40217085249128004 
