t, s[1].omega / s[0].omega 
0, -0.5999977268961401 
0.009999999999999995, -0.599771379621907 
0.019999999999999934, -0.5995423397329026 
0.029999999999999874, -0.5992990461545555 
0.04000000000000012, -0.5990281658897052 
0.050000000000000405, -0.598719812630083 
0.06000000000000069, -0.5983704849138911 
0.07000000000000098, -0.5979834885827322 
0.08000000000000126, -0.5975682522235475 
0.09000000000000155, -0.5971402375783433 
0.10000000000000184, -0.5967225889805474 
0.11000000000000212, -0.5963500836244094 
0.12000000000000241, -0.5960756438172103 
0.130000000000002, -0.595979453613689 
0.1400000000000009, -0.5961801389146955 
0.1499999999999998, -0.5968458773528276 
0.1599999999999987, -0.59819977429367 
0.1699999999999976, -0.6005074953405962 
0.1799999999999965, -0.6040273201509778 
0.1899999999999954, -0.6089030146602792 
0.1999999999999943, -0.6150116083288156 
0.2099999999999932, -0.6218567365577669 
0.2199999999999921, -0.6286550863684678 
0.229999999999991, -0.6346444177912305 
0.2399999999999899, -0.63939163988718 
0.2499999999999888, -0.64285758893535 
0.2599999999999877, -0.6452457591107672 
0.2699999999999866, -0.6468243182319873 
0.2799999999999855, -0.6478272333984234 
0.2899999999999844, -0.648426675445775 
0.2999999999999833, -0.6487381266499469 
0.3099999999999822, -0.6488331849564902 
0.3199999999999811, -0.6487504034468258 
0.32999999999998, -0.6485019792359646 
0.3399999999999789, -0.6480766556143702 
0.3499999999999778, -0.6474401311043103 
0.35999999999997667, -0.6465353831878958 
0.36999999999997557, -0.6452873315667049 
0.37999999999997447, -0.6436182893826977 
0.38999999999997337, -0.641478695461484 
0.39999999999997227, -0.6388862637468186 
0.40999999999997117, -0.6359497359011922 
0.41999999999997006, -0.6328522035968817 
0.42999999999996896, -0.6297975329472079 
0.43999999999996786, -0.6269542550983931 
0.44999999999996676, -0.6244276403566014 
0.45999999999996566, -0.6222626319482683 
0.46999999999996456, -0.6204620487945363 
0.47999999999996346, -0.6190054225775473 
0.48999999999996235, -0.6178621737217844 
0.49999999999996125, -0.6169989018586396 
0.5099999999999602, -0.6163827575583577 
0.519999999999959, -0.6159828492782078 
0.529999999999958, -0.61577094450211 
0.5399999999999568, -0.6157220566125438 
0.5499999999999557, -0.615815070740497 
0.5599999999999546, -0.6160333405806133 
0.5699999999999535, -0.6163650897507473 
0.5799999999999524, -0.6168033528891117 
0.5899999999999513, -0.6173450028442 
0.5999999999999502, -0.6179881826085406 
0.6099999999999491, -0.6187275076627561 
0.619999999999948, -0.6195472583847927 
0.6299999999999469, -0.6204147345739798 
0.6399999999999458, -0.6212781418991209 
0.6499999999999447, -0.6220732972133234 
0.6599999999999436, -0.6227387437817347 
0.6699999999999425, -0.6232318910289706 
0.6799999999999414, -0.6235368254508108 
0.6899999999999403, -0.6236606745510117 
0.6999999999999392, -0.623623236211664 
0.7099999999999381, -0.6234466183619936 
0.719999999999937, -0.6231485365620014 
0.7299999999999359, -0.6227394788179986 
0.7399999999999348, -0.62222255723946 
0.7499999999999337, -0.6215950509122298 
0.7599999999999326, -0.6208512703296802 
0.7699999999999315, -0.6199866394384212 
0.7799999999999304, -0.6190021035284722 
0.7899999999999293, -0.6179053359200646 
0.7999999999999282, -0.616701168358156 
0.8099999999999271, -0.6153646177076608 
0.819999999999926, -0.6138118436492032 
0.8299999999999249, -0.6119279632854913 
0.8399999999999238, -0.6096978555371279 
0.8499999999999227, -0.6073334266675519 
0.8599999999999216, -0.6052024155176757 
0.8699999999999205, -0.603597639811387 
0.8799999999999194, -0.6025955490761375 
0.8899999999999183, -0.6020958419470696 
0.8999999999999172, -0.6019325024364846 
0.9099999999999161, -0.6019533669577325 
0.919999999999915, -0.6020489652827623 
0.9299999999999139, -0.6021509794894848 
0.9399999999999128, -0.6022203823436787 
0.9499999999999117, -0.6022353767919185 
0.9599999999999106, -0.6021823278159634 
0.9699999999999095, -0.6020499399660229 
0.9799999999999084, -0.6018262811037942 
0.9899999999999073, -0.6014985078241523 
0.9999999999999062, -0.6010554239418178 
1.0099999999999052, -0.6004925665155533 
1.019999999999904, -0.5998179715339609 
1.029999999999903, -0.5990549979579718 
1.039999999999902, -0.5982389483377617 
1.0499999999999008, -0.5974079826617793 
1.0599999999998997, -0.5965931444007638 
1.0699999999998986, -0.5958128166314893 
1.0799999999998975, -0.5950733719124809 
1.0899999999998964, -0.5943739642465139 
1.0999999999998953, -0.5937121699778751 
1.1099999999998942, -0.5930882868205678 
1.119999999999893, -0.5925078564789379 
1.129999999999892, -0.5919830884714992 
1.1399999999998909, -0.5915340551722503 
1.1499999999998898, -0.5911901989411918 
1.1599999999998887, -0.5909922919120094 
1.1699999999998876, -0.5909947085745164 
1.1799999999998865, -0.5912676727055175 
1.1899999999998854, -0.5918988612983805 
1.1999999999998843, -0.5929931392599699 
1.2099999999998832, -0.5946679510231868 
1.219999999999882, -0.5970398721363008 
1.229999999999881, -0.6001958783415439 
1.2399999999998799, -0.6041445644660206 
1.2499999999998788, -0.6087550274990161 
1.2599999999998777, -0.6137182295232988 
1.2699999999998766, -0.6185863393242534 
1.2799999999998755, -0.622909595470756 
1.2899999999998744, -0.6263955343570574 
1.2999999999998733, -0.6289754735715326 
1.3099999999998722, -0.6307512108837857 
1.319999999999871, -0.6318947695439354 
1.32999999999987, -0.6325732402450627 
1.3399999999998689, -0.6329162610826391 
1.3499999999998678, -0.6330110871849299 
1.3599999999998666, -0.632907947965579 
1.3699999999998655, -0.6326260212064997 
1.3799999999998644, -0.6321563104897728 
1.3899999999998633, -0.631460578873829 
1.3999999999998622, -0.6304670436068276 
1.4099999999998611, -0.6290658221840453 
1.41999999999986, -0.6271118379717031 
1.429999999999859, -0.6244494023225489 
1.4399999999998578, -0.6209726229913187 
1.4499999999998567, -0.6167122094284232 
1.4599999999998556, -0.6118932488038921 
1.4699999999998545, -0.6068963997951478 
1.4799999999998534, -0.6021285806656779 
1.4899999999998523, -0.5978945817859638 
1.4999999999998512, -0.5943459963905916 
1.5099999999998501, -0.5915039835093484 
1.519999999999849, -0.5893102149141571 
1.529999999999848, -0.5876716225494522 
1.5399999999998468, -0.5864884659981926 
1.5499999999998457, -0.5856683739015442 
1.5599999999998446, -0.5851318666480221 
1.5699999999998435, -0.5848135769759014 
1.5799999999998424, -0.584661575452679 
1.5899999999998413, -0.584635981709593 
1.5999999999998402, -0.5847074159354688 
1.6099999999998391, -0.5848555684319163 
1.619999999999838, -0.585067999015686 
1.629999999999837, -0.5853390529827384 
1.6399999999998358, -0.5856684314586333 
1.6499999999998347, -0.5860586120641355 
1.6599999999998336, -0.586510374923044 
1.6699999999998325, -0.5870166240247702 
1.6799999999998314, -0.5875565159203451 
1.6899999999998303, -0.5880935664490993 
1.6999999999998292, -0.5885808801150906 
1.709999999999828, -0.5889726972927789 
1.719999999999827, -0.5892364407245179 
1.729999999999826, -0.5893585324269741 
1.7399999999998248, -0.5893419764471943 
1.7499999999998237, -0.5891991252295259 
1.7599999999998226, -0.58894436828083 
1.7699999999998215, -0.5885893768230556 
1.7799999999998204, -0.5881412124083154 
1.7899999999998193, -0.5876026359109272 
1.7999999999998182, -0.5869740212585272 
1.809999999999817, -0.586256552398877 
1.819999999999816, -0.5854560990569373 
1.8299999999998149, -0.5845854855544145 
1.8399999999998138, -0.5836591003530398 
1.8499999999998127, -0.582669971461039 
1.8599999999998116, -0.5815467523090332 
1.8699999999998105, -0.5801261085879388 
1.8799999999998094, -0.5782252669505913 
1.8899999999998083, -0.5758364164270001 
1.8999999999998072, -0.5732507925702405 
1.909999999999806, -0.5709091186496946 
1.919999999999805, -0.5691244457880957 
1.9299999999998039, -0.5679638518808144 
1.9399999999998028, -0.5673198241890931 
1.9499999999998017, -0.5670281509821009 
1.9599999999998006, -0.56694148965662 
1.9699999999997995, -0.5669532846609604 
1.9799999999997984, -0.5669951909600689 
1.9899999999997973, -0.5670262333257645 
1.9999999999997962, -0.5670221474667098 
2.0099999999998173, -0.5669674516234178 
2.0199999999998384, -0.5668504641216765 
2.0299999999998595, -0.5666609783265426 
2.0399999999998806, -0.5663904167160757 
2.0499999999999017, -0.5660342416637656 
2.059999999999923, -0.56559570040553 
2.069999999999944, -0.5650887266277702 
2.079999999999965, -0.5645372143056776 
2.089999999999986, -0.5639694695486945 
2.100000000000007, -0.5634100133814155 
2.1100000000000283, -0.5628730967110374 
2.1200000000000494, -0.562361131283138 
2.1300000000000705, -0.5618679919631695 
2.1400000000000916, -0.5613846203062913 
2.1500000000001127, -0.5609040347033718 
2.160000000000134, -0.5604242784742494 
2.170000000000155, -0.5599495876124515 
2.180000000000176, -0.5594909946608404 
2.190000000000197, -0.5590675698379264 
2.2000000000002182, -0.5587090697320141 
2.2100000000002393, -0.5584603838978247 
2.2200000000002604, -0.5583879254747793 
2.2300000000002815, -0.5585877947890407 
2.2400000000003026, -0.5591947435761979 
2.2500000000003237, -0.5603890045408417 
2.260000000000345, -0.5623939574158087 
2.270000000000366, -0.5654508841192665 
2.280000000000387, -0.569751029964318 
2.290000000000408, -0.5753139321557289 
2.3000000000004293, -0.5818494098814131 
2.3100000000004504, -0.5887220674135596 
2.3200000000004715, -0.5951385815344372 
2.3300000000004926, -0.6004822205234808 
2.3400000000005137, -0.6045242714432405 
2.3500000000005348, -0.6073716472345005 
2.360000000000556, -0.6092814216292048 
2.370000000000577, -0.610514522053425 
2.380000000000598, -0.6112754144783415 
2.390000000000619, -0.611705618079686 
2.4000000000006403, -0.6118956996018612 
2.4100000000006614, -0.6118985026181929 
2.4200000000006825, -0.6117385116594183 
2.4300000000007036, -0.6114170565563439 
2.4400000000007247, -0.6109145487257668 
2.450000000000746, -0.6101917798764613 
2.460000000000767, -0.6091936272508002 
2.470000000000788, -0.6078599991828634 
2.480000000000809, -0.6061480136719335 
2.49000000000083, -0.6040621345616825 
2.5000000000008513, -0.6016762074984114 
2.5100000000008724, -0.5991268503898509 
2.5200000000008935, -0.5965755075376638 
2.5300000000009146, -0.5941624915881072 
2.5400000000009357, -0.5919798984055694 
2.550000000000957, -0.5900703370246823 
2.560000000000978, -0.5884408668774392 
2.570000000000999, -0.5870793434033411 
2.58000000000102, -0.5859665226304077 
2.5900000000010412, -0.585082871132481 
2.6000000000010624, -0.5844114877868573 
2.6100000000010835, -0.5839388759961752 
2.6200000000011046, -0.5836548504059388 
2.6300000000011257, -0.5835523265290141 
2.6400000000011468, -0.5836273352868895 
2.650000000001168, -0.5838793218730507 
2.660000000001189, -0.584311562771747 
2.67000000000121, -0.5849312872079708 
2.680000000001231, -0.5857487531460481 
2.6900000000012523, -0.5867741248144583 
2.7000000000012734, -0.5880108059226439 
2.7100000000012945, -0.5894446210159086 
2.7200000000013156, -0.5910309204247872 
2.7300000000013367, -0.5926863563559441 
2.740000000001358, -0.5942952759106475 
2.750000000001379, -0.5957354476574244 
2.7600000000014, -0.5969128447114106 
2.770000000001421, -0.5977844610383548 
2.780000000001442, -0.5983567115760079 
2.7900000000014633, -0.5986660907171018 
2.8000000000014844, -0.5987572924797699 
2.8100000000015055, -0.5986682164572297 
2.8200000000015266, -0.5984226433138851 
2.8300000000015477, -0.5980272943140283 
2.840000000001569, -0.5974698283538677 
2.85000000000159, -0.5967153158177348 
2.860000000001611, -0.595699461618018 
2.870000000001632, -0.5943174200433837 
2.8800000000016532, -0.5924088939821681 
2.8900000000016743, -0.5897468737109489 
2.9000000000016954, -0.5860536723194409 
2.9100000000017165, -0.5810881146988706 
2.9200000000017377, -0.5748278382438923 
2.9300000000017588, -0.5676515830083341 
2.94000000000178, -0.5603076210767601 
2.950000000001801, -0.5536037568116485 
2.960000000001822, -0.5480715347474165 
2.970000000001843, -0.5438621906046024 
2.9800000000018643, -0.5408530889651145 
2.9900000000018854, -0.5388036680838549 
3.0000000000019065, -0.5374632676898579 
3.0100000000019276, -0.536619990825762 
3.0200000000019487, -0.5361124546847646 
3.03000000000197, -0.5358249332021494 
3.040000000001991, -0.5356775395609445 
3.050000000002012, -0.5356165540685858 
3.060000000002033, -0.5356066341987183 
3.070000000002054, -0.5356252358943043 
3.0800000000020753, -0.5356590806180527 
3.0900000000020964, -0.5357022953697712 
3.1000000000021175, -0.5357555919428041 
3.1100000000021386, -0.535825451374192 
3.1200000000021597, -0.5359220067189365 
3.130000000002181, -0.5360547210804059 
3.140000000002202, -0.5362263470346753 
3.150000000002223, -0.5364274831577611 
3.160000000002244, -0.5366349883730416 
3.1700000000022652, -0.5368163006476243 
3.1800000000022863, -0.5369383278112342 
3.1900000000023074, -0.5369763160946284 
3.2000000000023285, -0.5369181332590212 
3.2100000000023496, -0.5367629012888575 
3.2200000000023707, -0.5365163864311042 
3.230000000002392, -0.5361862749565905 
3.240000000002413, -0.5357791058464777 
3.250000000002434, -0.5352991657623265 
3.260000000002455, -0.5347489794870375 
3.2700000000024763, -0.5341308961872724 
3.2800000000024974, -0.5334490102898932 
3.2900000000025185, -0.5327094733200624 
3.3000000000025396, -0.5319143254013691 
3.3100000000025607, -0.531039800285338 
3.3200000000025818, -0.5299916278760792 
3.330000000002603, -0.5285572298816239 
3.340000000002624, -0.5264382688996474 
3.350000000002645, -0.5234560574082201 
3.360000000002666, -0.5198131238846747 
3.3700000000026873, -0.5160759679848839 
3.3800000000027084, -0.5128277537357638 
3.3900000000027295, -0.5103690767428246 
3.4000000000027506, -0.5087002085359341 
3.4100000000027717, -0.5076619892133847 
3.420000000002793, -0.5070635104181396 
3.430000000002814, -0.5067440352969065 
3.440000000002835, -0.5065877203727341 
3.450000000002856, -0.5065177876315882 
3.460000000002877, -0.5064856374452607 
3.4700000000028983, -0.5064610750275326 
3.4800000000029194, -0.5064252634273304 
3.4900000000029405, -0.5063663947470932 
3.5000000000029616, -0.506277698736142 
3.5100000000029827, -0.5061573230999628 
3.520000000003004, -0.5060093319707925 
3.530000000003025, -0.5058444952725789 
3.540000000003046, -0.5056791561522221 
3.550000000003067, -0.5055310894480269 
3.5600000000030882, -0.5054131146572526 
3.5700000000031094, -0.5053271792827296 
3.5800000000031305, -0.5052620858823111 
3.5900000000031516, -0.505196430527117 
3.6000000000031727, -0.5051054807862188 
3.6100000000031938, -0.5049684564696285 
3.620000000003215, -0.5047727791314305 
3.630000000003236, -0.5045142536705195 
3.640000000003257, -0.5041946364014958 
3.650000000003278, -0.5038188066135108 
3.6600000000032993, -0.5033930439837033 
3.6700000000033204, -0.502924952691796 
3.6800000000033415, -0.5024250451993435 
3.6900000000033626, -0.5019097802767974 
3.7000000000033837, -0.5014053651893031 
3.710000000003405, -0.5009499693594037 
3.720000000003426, -0.5005879577247118 
3.730000000003447, -0.5003433705435018 
3.740000000003468, -0.500158838479341 
3.750000000003489, -0.4998159526362964 
3.7600000000035103, -0.49893509667626545 
3.7700000000035314, -0.49718840938134967 
3.7800000000035525, -0.4946290657658676 
3.7900000000035736, -0.49174341202337074 
3.8000000000035947, -0.4891106605959942 
3.810000000003616, -0.48706885854018606 
3.820000000003637, -0.48566671596637007 
3.830000000003658, -0.4847898105028012 
3.840000000003679, -0.48428303900308195 
3.8500000000037002, -0.4840118151172542 
3.8600000000037213, -0.4838781514853966 
3.8700000000037424, -0.4838168723291772 
3.8800000000037635, -0.48378668278382647 
3.8900000000037847, -0.48376197515277275 
3.9000000000038058, -0.48372695835337093 
3.910000000003827, -0.4836721728995378 
3.920000000003848, -0.48359307307347094 
3.930000000003869, -0.4834902088907125 
3.94000000000389, -0.48337018821867483 
3.9500000000039113, -0.48324604490404593 
3.9600000000039324, -0.48313541022980167 
3.9700000000039535, -0.4830557067773187 
3.9800000000039746, -0.4830174542131743 
3.9900000000039957, -0.4830185390057712 
4.000000000004016, -0.4830425833469502 
4.010000000003993, -0.4830628683512745 
4.02000000000397, -0.4830502728162398 
4.030000000003946, -0.48298123476606536 
4.040000000003923, -0.48284196059872525 
4.0500000000039, -0.48262792141838007 
4.0600000000038765, -0.4823404431120375 
4.070000000003853, -0.4819828576243209 
4.08000000000383, -0.48155767896176344 
4.090000000003807, -0.48106505324456483 
4.100000000003783, -0.48050200665746995 
4.11000000000376, -0.4798615586267383 
4.120000000003737, -0.47912995465900926 
4.130000000003713, -0.4782784169310528 
4.14000000000369, -0.47724289218055205 
4.150000000003667, -0.4758850569027301 
4.1600000000036434, -0.47394462911150825 
4.17000000000362, -0.4710473020748953 
4.180000000003597, -0.46688459185325726 
4.1900000000035735, -0.461550947297899 
4.20000000000355, -0.4556933990721707 
4.210000000003527, -0.45018587774520313 
4.220000000003504, -0.4456439039400236 
4.23000000000348, -0.4422483868200156 
4.240000000003457, -0.4398773181417921 
4.250000000003434, -0.43829675448947014 
4.26000000000341, -0.4372779561899067 
4.270000000003387, -0.43664016589397353 
4.280000000003364, -0.43625434351036363 
4.2900000000033405, -0.4360334153202584 
4.300000000003317, -0.4359207852288057 
4.310000000003294, -0.43588101013469316 
4.320000000003271, -0.43589331096383954 
4.330000000003247, -0.43594756788897693 
4.340000000003224, -0.4360422065400238 
4.350000000003201, -0.43618325557302 
4.360000000003177, -0.43638359965809903 
4.370000000003154, -0.4366611334432653 
4.380000000003131, -0.4370344908161895 
4.390000000003107, -0.4375157328285798 
4.400000000003084, -0.4381010788628961 
4.410000000003061, -0.4387632125857442 
4.4200000000030375, -0.43945054820408663 
4.430000000003014, -0.44009726739953 
4.440000000002991, -0.4406413326047211 
4.450000000002968, -0.44104074671594173 
4.460000000002944, -0.4412791344654695 
4.470000000002921, -0.44136006279328754 
4.480000000002898, -0.4412962218985119 
4.490000000002874, -0.44109941117321927 
4.500000000002851, -0.4407734280145963 
4.510000000002828, -0.4403089145208268 
4.520000000002804, -0.43967811746342694 
4.530000000002781, -0.43882758045854614 
4.540000000002758, -0.43766762793058034 
4.5500000000027345, -0.43606026729187386 
4.560000000002711, -0.43381478626162007 
4.570000000002688, -0.43071455721124785 
4.580000000002665, -0.4266066457768457 
4.590000000002641, -0.4215471350526581 
4.600000000002618, -0.4158951026854131 
4.610000000002595, -0.41021788691866645 
4.620000000002571, -0.40504583126440846 
4.630000000002548, -0.4006848177741117 
4.640000000002525, -0.3972006704357042 
4.6500000000025015, -0.3945090161651813 
4.660000000002478, -0.39246931008073627 
4.670000000002455, -0.3909415837709301 
4.6800000000024315, -0.38980981046427415 
4.690000000002408, -0.38898677704821116 
4.700000000002385, -0.3884115171196326 
4.710000000002362, -0.3880450159045006 
4.720000000002338, -0.3878665537644883 
4.730000000002315, -0.38787146318841037 
4.740000000002292, -0.388070434351267 
4.750000000002268, -0.38849023718045994 
4.760000000002245, -0.38917545406175674 
4.770000000002222, -0.39019020532130716 
4.7800000000021985, -0.3916175116442136 
4.790000000002175, -0.39355153722207514 
4.800000000002152, -0.3960750141753671 
4.810000000002129, -0.39921431297310644 
4.820000000002105, -0.4028770320048018 
4.830000000002082, -0.40680844156546137 
4.840000000002059, -0.41062834458382425 
4.850000000002035, -0.413965766047587 
4.860000000002012, -0.41660287346971386 
4.870000000001989, -0.41851583951683313 
4.880000000001965, -0.41980982029898917 
4.890000000001942, -0.42062993622582123 
4.900000000001919, -0.42110560654393225 
4.9100000000018955, -0.42133177269119704 
