t, s[1].omega / s[0].omega 
0, -0.5999977270365722 
0.009999999999999995, -0.5997727680658296 
0.019999999999999934, -0.5995473482801632 
0.029999999999999874, -0.5993086581719107 
0.04000000000000012, -0.5990418682929866 
0.050000000000000405, -0.5987358751873035 
0.06000000000000069, -0.5983865428339381 
0.07000000000000098, -0.5979971650467847 
0.08000000000000126, -0.5975777013986235 
0.09000000000000155, -0.597144672723435 
0.10000000000000184, -0.5967229890216925 
0.11000000000000212, -0.5963503500867307 
0.12000000000000241, -0.5960845528532293 
0.130000000000002, -0.5960138395830912 
0.1400000000000009, -0.596269833088612 
0.1499999999999998, -0.5970408974919511 
0.1599999999999987, -0.5985798171582417 
0.1699999999999976, -0.6011922542404033 
0.1799999999999965, -0.6051824958650384 
0.1899999999999954, -0.6107309917948307 
0.1999999999999943, -0.6177127386946472 
0.2099999999999932, -0.6255607866227659 
0.2199999999999921, -0.6333582034198164 
0.229999999999991, -0.6402059150316464 
0.2399999999999899, -0.6455985388296896 
0.2499999999999888, -0.6495022398925904 
0.2599999999999877, -0.6521677754762867 
0.2699999999999866, -0.6539152533894903 
0.2799999999999855, -0.6550185901363093 
0.2899999999999844, -0.6556761670899774 
0.2999999999999833, -0.656019251113792 
0.3099999999999822, -0.656128272898617 
0.3199999999999811, -0.6560460163350642 
0.32999999999998, -0.6557855366431251 
0.3399999999999789, -0.6553334056447861 
0.3499999999999778, -0.6546497932811428 
0.35999999999997667, -0.6536681051871828 
0.36999999999997557, -0.6522993532373209 
0.37999999999997447, -0.6504492537692649 
0.38999999999997337, -0.6480544032638502 
0.39999999999997227, -0.6451303563803158 
0.40999999999997117, -0.6418024673764994 
0.41999999999997006, -0.6382870477141915 
0.42999999999996896, -0.6348259677098613 
0.43999999999996786, -0.6316178113489185 
0.44999999999996676, -0.6287842801393296 
0.45999999999996566, -0.6263746383844385 
0.46999999999996456, -0.6243882884210812 
0.47999999999996346, -0.6227974972393926 
0.48999999999996235, -0.621562980573437 
0.49999999999996125, -0.6206424094412164 
0.5099999999999602, -0.6199943494599865 
0.519999999999959, -0.6195799680393203 
0.529999999999958, -0.619363939886941 
0.5399999999999568, -0.6193151781685837 
0.5499999999999557, -0.6194075308204587 
0.5599999999999546, -0.619620371982258 
0.5699999999999535, -0.6199389570528486 
0.5799999999999524, -0.6203543384655071 
0.5899999999999513, -0.6208624422283362 
0.5999999999999502, -0.621461627448747 
0.6099999999999491, -0.6221480236716792 
0.619999999999948, -0.6229087283770396 
0.6299999999999469, -0.6237148691196441 
0.6399999999999458, -0.6245187854724306 
0.6499999999999447, -0.625259724748331 
0.6599999999999436, -0.625878087435652 
0.6699999999999425, -0.6263313592326349 
0.6799999999999414, -0.6266024537305073 
0.6899999999999403, -0.6266968972484951 
0.6999999999999392, -0.6266330955121499 
0.7099999999999381, -0.6264323202073034 
0.719999999999937, -0.6261122432847663 
0.7299999999999359, -0.6256844804500872 
0.7399999999999348, -0.6251552164178246 
0.7499999999999337, -0.6245282197463129 
0.7599999999999326, -0.6238102883652606 
0.7699999999999315, -0.6230194890707806 
0.7799999999999304, -0.6221954431539849 
0.7899999999999293, -0.6214067670530833 
0.7999999999999282, -0.6207426686325823 
0.8099999999999271, -0.6202698462742531 
0.819999999999926, -0.6199561490165284 
0.8299999999999249, -0.6196314195350188 
0.8399999999999238, -0.6190966674849229 
0.8499999999999227, -0.6183335543163408 
0.8599999999999216, -0.6175532339275939 
0.8699999999999205, -0.6170035811920689 
0.8799999999999194, -0.616785593069501 
0.8899999999999183, -0.6168466036636889 
0.8999999999999172, -0.6170698055627785 
0.9099999999999161, -0.617346832014892 
0.919999999999915, -0.6176041759155222 
0.9299999999999139, -0.6178009870218311 
0.9399999999999128, -0.617917715882919 
0.9499999999999117, -0.6179451781152953 
0.9599999999999106, -0.6178766950848318 
0.9699999999999095, -0.6177032567919387 
0.9799999999999084, -0.6174112923737586 
0.9899999999999073, -0.616983188420655 
0.9999999999999062, -0.6164012311426791 
1.0099999999999052, -0.6156551983806622 
1.019999999999904, -0.6147515933735069 
1.029999999999903, -0.6137194173151233 
1.039999999999902, -0.6126070680779419 
1.0499999999999008, -0.6114701605564629 
1.0599999999998997, -0.6103569591510974 
1.0699999999998986, -0.60929943877111 
1.0799999999998975, -0.6083128884620256 
1.0899999999998964, -0.6074013940637625 
1.0999999999998953, -0.6065648084668321 
1.1099999999998942, -0.6058042870336033 
1.119999999999893, -0.6051256238834024 
1.129999999999892, -0.6045409267254624 
1.1399999999998909, -0.6040694354967829 
1.1499999999998898, -0.603738017151749 
1.1599999999998887, -0.6035815392202557 
1.1699999999998876, -0.6036431393844066 
1.1799999999998865, -0.6039743314500635 
1.1899999999998854, -0.6046347644763734 
1.1999999999998843, -0.6056910798540605 
1.2099999999998832, -0.6072134982487105 
1.219999999999882, -0.6092674742807973 
1.229999999999881, -0.6118965101681374 
1.2399999999998799, -0.6150929638923872 
1.2499999999998788, -0.6187603505792427 
1.2599999999998777, -0.6226860081295588 
1.2699999999998766, -0.6265577516178777 
1.2799999999998755, -0.6300443260235301 
1.2899999999998744, -0.6329050477034909 
1.2999999999998733, -0.6350540142880695 
1.3099999999998722, -0.6365418183849401 
1.319999999999871, -0.6374890175144667 
1.32999999999987, -0.638024901847414 
1.3399999999998689, -0.638254689439957 
1.3499999999998678, -0.6382498924974089 
1.3599999999998666, -0.6380492835619627 
1.3699999999998655, -0.6376615739977194 
1.3799999999998644, -0.6370654335479318 
1.3899999999998633, -0.6362049842569952 
1.3999999999998622, -0.6349802708034917 
1.4099999999998611, -0.6332345800631978 
1.41999999999986, -0.6307470181158135 
1.429999999999859, -0.6272520572813619 
1.4399999999998578, -0.6225203379834229 
1.4499999999998567, -0.61651328764578 
1.4599999999998556, -0.6095336756378791 
1.4699999999998545, -0.6022125948233621 
1.4799999999998534, -0.5952779782803949 
1.4899999999998523, -0.5892766164257495 
1.4999999999998512, -0.5844510173661408 
1.5099999999998501, -0.5807877306149359 
1.519999999999849, -0.5781310336517105 
1.529999999999848, -0.5762783240347683 
1.5399999999998468, -0.5750345837490068 
1.5499999999998457, -0.5742350270177825 
1.5599999999998446, -0.5737500350386776 
1.5699999999998435, -0.5734821934854829 
1.5799999999998424, -0.5733606727491889 
1.5899999999998413, -0.5733353771498779 
1.5999999999998402, -0.5733718946231586 
1.6099999999998391, -0.5734476523624294 
1.619999999999838, -0.5735493609575173 
1.629999999999837, -0.573671517491807 
1.6399999999998358, -0.5738152955929692 
1.6499999999998347, -0.5739866941689578 
1.6599999999998336, -0.574192810747821 
1.6699999999998325, -0.5744360776455153 
1.6799999999998314, -0.5747081502257498 
1.6899999999998303, -0.5749867321595223 
1.6999999999998292, -0.575238299523291 
1.709999999999828, -0.5754266264780601 
1.719999999999827, -0.5755229164139251 
1.729999999999826, -0.5755120030921569 
1.7399999999998248, -0.5753921854162953 
1.7499999999998237, -0.5751706557320597 
1.7599999999998226, -0.574858220049175 
1.7699999999998215, -0.5744658749275027 
1.7799999999998204, -0.5740040668528027 
1.7899999999998193, -0.5734846119403824 
1.7999999999998182, -0.5729252830888658 
1.809999999999817, -0.5723573036858528 
1.819999999999816, -0.5718355289253918 
1.8299999999998149, -0.5714485645183838 
1.8399999999998138, -0.5713194796530611 
1.8499999999998127, -0.5715770463118657 
1.8599999999998116, -0.5722743544725105 
1.8699999999998105, -0.573272117898221 
1.8799999999998094, -0.5742074328938007 
1.8899999999998083, -0.5746947698431233 
1.8999999999998072, -0.5746370602712438 
1.909999999999806, -0.5742752087724888 
1.919999999999805, -0.573928023449052 
1.9299999999998039, -0.5737667253977737 
1.9399999999998028, -0.5737986777854766 
1.9499999999998017, -0.5739535115903116 
1.9599999999998006, -0.5741536280142883 
1.9699999999997995, -0.5743423023662729 
1.9799999999997984, -0.5744856722151126 
1.9899999999997973, -0.5745656783657993 
1.9999999999997962, -0.5745723572114094 
2.0099999999998173, -0.5744981032209796 
2.0199999999998384, -0.5743342605952325 
2.0299999999998595, -0.5740700241403628 
2.0399999999998806, -0.5736938791587955 
2.0499999999999017, -0.5731978031326105 
2.059999999999923, -0.5725834485421399 
2.069999999999944, -0.5718674960751777 
2.079999999999965, -0.5710820215984315 
2.089999999999986, -0.5702676771791105 
2.100000000000007, -0.5694624685831162 
2.1100000000000283, -0.5686923288095556 
2.1200000000000494, -0.5679680461809301 
2.1300000000000705, -0.5672885272811944 
2.1400000000000916, -0.5666471620164516 
2.1500000000001127, -0.5660378577847605 
2.160000000000134, -0.5654590190018063 
2.170000000000155, -0.5649156082278302 
2.180000000000176, -0.564420378019188 
2.190000000000197, -0.5639953674898376 
2.2000000000002182, -0.5636743329128486 
2.2100000000002393, -0.5635063703293539 
2.2200000000002604, -0.5635607049110669 
2.2300000000002815, -0.5639323330733638 
2.2400000000003026, -0.5647476174947081 
2.2500000000003237, -0.5661675724886134 
2.260000000000345, -0.5683837482312252 
2.270000000000366, -0.5715968956622252 
2.280000000000387, -0.5759638772520382 
2.290000000000408, -0.5815025706965453 
2.3000000000004293, -0.5879760195601281 
2.3100000000004504, -0.5948400188793947 
2.3200000000004715, -0.6013643033455968 
2.3300000000004926, -0.6069138516540044 
2.3400000000005137, -0.6111849619120628 
2.3500000000005348, -0.6142185056165884 
2.360000000000556, -0.6162465477167194 
2.370000000000577, -0.6175359448121862 
2.380000000000598, -0.6183076517276422 
2.390000000000619, -0.618717949416085 
2.4000000000006403, -0.6188664805452373 
2.4100000000006614, -0.6188092835549146 
2.4200000000006825, -0.6185686021769846 
2.4300000000007036, -0.6181378228339223 
2.4400000000007247, -0.6174822840437144 
2.450000000000746, -0.6165381044203226 
2.460000000000767, -0.6152135411493426 
2.470000000000788, -0.6134010831423236 
2.480000000000809, -0.6110100847465005 
2.49000000000083, -0.6080202804588222 
2.5000000000008513, -0.6045311492684335 
2.5100000000008724, -0.6007632274470776 
2.5200000000008935, -0.5969941198334959 
2.5300000000009146, -0.593469601720434 
2.5400000000009357, -0.5903476664218613 
2.550000000000957, -0.5876940038167715 
2.560000000000978, -0.585508116818785 
2.570000000000999, -0.5837539258684151 
2.58000000000102, -0.58238195983465 
2.5900000000010412, -0.581341660352731 
2.6000000000010624, -0.5805867873807539 
2.6100000000010835, -0.5800771532740977 
2.6200000000011046, -0.5797788479964087 
2.6300000000011257, -0.5796640825892843 
2.6400000000011468, -0.5797111018949542 
2.650000000001168, -0.5799042556961125 
2.660000000001189, -0.5802341323304688 
2.67000000000121, -0.5806975037396522 
2.680000000001231, -0.5812965855972875 
2.6900000000012523, -0.5820367623275917 
2.7000000000012734, -0.5829216847691258 
2.7100000000012945, -0.5839450835658919 
2.7200000000013156, -0.5850804903791242 
2.7300000000013367, -0.5862733923055048 
2.740000000001358, -0.5874430177449388 
2.750000000001379, -0.5884983383760934 
2.7600000000014, -0.5893630266579363 
2.770000000001421, -0.589995019915549 
2.780000000001442, -0.5903895378755474 
2.7900000000014633, -0.5905673845131311 
2.8000000000014844, -0.5905587405823438 
2.8100000000015055, -0.590390547714857 
2.8200000000015266, -0.5900794616528267 
2.8300000000015477, -0.5896285722051574 
2.840000000001569, -0.5890253409404025 
2.85000000000159, -0.5882386760841568 
2.860000000001611, -0.5872133942167714 
2.870000000001632, -0.5858601335261678 
2.8800000000016532, -0.5840387620453985 
2.8900000000016743, -0.5815366928629065 
2.9000000000016954, -0.5780587741250581 
2.9100000000017165, -0.573280208509054 
2.9200000000017377, -0.5670334259196974 
2.9300000000017588, -0.5595876968347145 
2.94000000000178, -0.5517410347387873 
2.950000000001801, -0.544492405095976 
2.960000000001822, -0.5385529900048891 
2.970000000001843, -0.5341392252322822 
2.9800000000018643, -0.5310965369149921 
2.9900000000018854, -0.5291173121539058 
3.0000000000019065, -0.5278907421836379 
3.0100000000019276, -0.5271651725317553 
3.0200000000019487, -0.526758064640964 
3.03000000000197, -0.5265450309456966 
3.040000000001991, -0.5264444306611442 
3.050000000002012, -0.526403856316735 
3.060000000002033, -0.5263900995478086 
3.070000000002054, -0.526382479931935 
3.0800000000020753, -0.5263690003112341 
3.0900000000020964, -0.526344715702081 
3.1000000000021175, -0.5263114962225075 
3.1100000000021386, -0.5262779088166138 
3.1200000000021597, -0.5262575907715946 
3.130000000002181, -0.5262649572215259 
3.140000000002202, -0.5263087206343849 
3.150000000002223, -0.5263857271498988 
3.160000000002244, -0.526478521862066 
3.1700000000022652, -0.5265587780085076 
3.1800000000022863, -0.5265955097211965 
3.1900000000023074, -0.5265638623176027 
3.2000000000023285, -0.5264500322375893 
3.2100000000023496, -0.5262509090868532 
3.2200000000023707, -0.5259703893349531 
3.230000000002392, -0.5256153009598108 
3.240000000002413, -0.5251928236261103 
3.250000000002434, -0.5247099581144063 
3.260000000002455, -0.5241749453130018 
3.2700000000024763, -0.5236003970394127 
3.2800000000024974, -0.5230075961526154 
3.2900000000025185, -0.5224299473107246 
3.3000000000025396, -0.5219094909579051 
3.3100000000025607, -0.5214731050996962 
3.3200000000025818, -0.5210711721424512 
3.330000000002603, -0.5204881286937494 
3.340000000002624, -0.5193239113894761 
3.350000000002645, -0.5172090109800209 
3.360000000002666, -0.5141850254273773 
3.3700000000026873, -0.5108014855833023 
3.3800000000027084, -0.5077357296764379 
3.3900000000027295, -0.5053856209835315 
3.4000000000027506, -0.503801395082187 
3.4100000000027717, -0.5028376577909005 
3.420000000002793, -0.5023034104054492 
3.430000000002814, -0.5020359709519617 
3.440000000002835, -0.5019190190101159 
3.450000000002856, -0.5018766338398895 
3.460000000002877, -0.5018616020811295 
3.4700000000028983, -0.501845039591946 
3.4800000000029194, -0.5018090522851455 
3.4900000000029405, -0.501742362618043 
3.5000000000029616, -0.5016384671127992 
3.5100000000029827, -0.5014958309521896 
3.520000000003004, -0.501319303546023 
3.530000000003025, -0.5011212643986425 
3.540000000003046, -0.5009205480493552 
3.550000000003067, -0.5007379195643104 
3.5600000000030882, -0.5005889893841504 
3.5700000000031094, -0.5004776110091627 
3.5800000000031305, -0.5003932224895113 
3.5900000000031516, -0.5003138125228511 
3.6000000000031727, -0.500213196141756 
3.6100000000031938, -0.5000688831277343 
3.620000000003215, -0.4998668418067743 
3.630000000003236, -0.49960193799814545 
3.640000000003257, -0.4992755160960362 
3.650000000003278, -0.4988924847780911 
3.6600000000032993, -0.49845955694812244 
3.6700000000033204, -0.4979852786395009 
3.6800000000033415, -0.49748192255436463 
3.6900000000033626, -0.4969691005408838 
3.7000000000033837, -0.49647842340868076 
3.710000000003405, -0.49605661268227985 
3.720000000003426, -0.4957595333307748 
3.730000000003447, -0.4956211341325735 
3.740000000003468, -0.4955778014114312 
3.750000000003489, -0.49536310151782487 
3.7600000000035103, -0.4944955736754175 
3.7700000000035314, -0.4925441662443907 
3.7800000000035525, -0.48956064224890516 
3.7900000000035736, -0.48615381823457565 
3.8000000000035947, -0.4830459440075757 
3.810000000003616, -0.48064750423619723 
3.820000000003637, -0.4790091919540894 
3.830000000003658, -0.47798803490538433 
3.840000000003679, -0.47739815406947406 
3.8500000000037002, -0.4770817849189804 
3.8600000000037213, -0.47692580999669554 
3.8700000000037424, -0.4768558272225539 
3.8800000000037635, -0.47682511793222593 
3.8900000000037847, -0.47680498323855786 
3.9000000000038058, -0.4767779754228938 
3.910000000003827, -0.4767339167733303 
3.920000000003848, -0.47666824545822883 
3.930000000003869, -0.4765821093050645 
3.94000000000389, -0.4764832769477911 
3.9500000000039113, -0.47638637013271123 
3.9600000000039324, -0.47631071481690646 
3.9700000000039535, -0.4762750120545113 
3.9800000000039746, -0.4762900074646687 
3.9900000000039957, -0.4763521984391099 
4.000000000004016, -0.4764420007530131 
4.010000000003993, -0.47652812953349705 
4.02000000000397, -0.47657666078639804 
4.030000000003946, -0.47656025472893954 
4.040000000003923, -0.47646304046153104 
4.0500000000039, -0.4762799152446413 
4.0600000000038765, -0.47601236198031466 
4.070000000003853, -0.4756637030915919 
4.08000000000383, -0.4752354670445943 
4.090000000003807, -0.4747250383836608 
4.100000000003783, -0.47412384832985677 
4.11000000000376, -0.4734147617130809 
4.120000000003737, -0.4725662945554303 
4.130000000003713, -0.4715191695243651 
4.14000000000369, -0.4701579522331536 
4.150000000003667, -0.4682629643810393 
4.1600000000036434, -0.46546446342850006 
4.17000000000362, -0.4612924983013513 
4.180000000003597, -0.4554564667222206 
4.1900000000035735, -0.44826056081931337 
4.20000000000355, -0.44066594114967994 
4.210000000003527, -0.43376435557813753 
4.220000000003504, -0.42820866898367277 
4.23000000000348, -0.42410794301010507 
4.240000000003457, -0.4212493882931887 
4.250000000003434, -0.4193287226313786 
4.26000000000341, -0.4180709614084436 
4.270000000003387, -0.41726635579276944 
4.280000000003364, -0.4167676361712032 
4.2900000000033405, -0.4164761340331988 
4.300000000003317, -0.4163279937065781 
4.310000000003294, -0.4162836323645521 
4.320000000003271, -0.41632062938934017 
4.330000000003247, -0.4164294131366276 
4.340000000003224, -0.4166109811741814 
4.350000000003201, -0.41687580411541286 
4.360000000003177, -0.4172428010697722 
4.370000000003154, -0.41773688995325664 
4.380000000003131, -0.41838342178553756 
4.390000000003107, -0.4191983382558794 
4.400000000003084, -0.42017484322291504 
4.410000000003061, -0.42127121827839487 
4.4200000000030375, -0.4224085656214358 
4.430000000003014, -0.42348610319159147 
4.440000000002991, -0.42441043635869874 
4.450000000002968, -0.4251219731687438 
4.460000000002944, -0.4256027990270071 
4.470000000002921, -0.4258659033675115 
4.480000000002898, -0.42593731971195614 
4.490000000002874, -0.42584121736114905 
4.500000000002851, -0.4255907274711765 
4.510000000002828, -0.42518255160576157 
4.520000000002804, -0.42459240139247745 
4.530000000002781, -0.42376921173365883 
4.540000000002758, -0.4226280059423564 
4.5500000000027345, -0.4210452436840777 
4.560000000002711, -0.41886797029919254 
4.570000000002688, -0.41595602224158046 
4.580000000002665, -0.41226788194271136 
4.590000000002641, -0.40795312786217675 
4.600000000002618, -0.40336027673298325 
4.610000000002595, -0.3989129328589477 
4.620000000002571, -0.39494288929117927 
4.630000000002548, -0.3916076867498581 
4.640000000002525, -0.38891458126537637 
4.6500000000025015, -0.3867881662419176 
4.660000000002478, -0.38512764486107415 
4.670000000002455, -0.3838387180747478 
4.6800000000024315, -0.3828460938096031 
4.690000000002408, -0.3820958438739527 
4.700000000002385, -0.38155392010161177 
4.710000000002362, -0.3812041212311853 
4.720000000002338, -0.3810469911925616 
4.730000000002315, -0.38110028094493553 
4.740000000002292, -0.38140127572080734 
4.750000000002268, -0.3820111090525776 
4.760000000002245, -0.3830207752936733 
4.770000000002222, -0.3845573180866766 
4.7800000000021985, -0.38678557119551116 
4.790000000002175, -0.3898945613652714 
4.800000000002152, -0.394049046104641 
4.810000000002129, -0.3992863142952393 
4.820000000002105, -0.40537547066588664 
4.830000000002082, -0.41174772532559284 
4.840000000002059, -0.41764976049287694 
4.850000000002035, -0.4224854905288189 
4.860000000002012, -0.42605273168403396 
4.870000000001989, -0.4284897310059039 
4.880000000001965, -0.4300727403960553 
4.890000000001942, -0.4310637540821842 
4.900000000001919, -0.4316562339712283 
