t, s[1].omega / s[0].omega 
0, -0.5099977543020415 
0.009999999999999995, -0.509789428231 
0.019999999999999934, -0.509606507164825 
0.029999999999999874, -0.5094314961564608 
0.04000000000000012, -0.509242728200439 
0.050000000000000405, -0.5090213334589656 
0.06000000000000069, -0.5087554984795182 
0.07000000000000098, -0.508441121529957 
0.08000000000000126, -0.5080801873403828 
0.09000000000000155, -0.5076788885743464 
0.10000000000000184, -0.507246964732808 
0.11000000000000212, -0.506798969043116 
0.12000000000000241, -0.506357800574153 
0.130000000000002, -0.5059607423991184 
0.1400000000000009, -0.5056678568553348 
0.1499999999999998, -0.5055708414885611 
0.1599999999999987, -0.505795532350552 
0.1699999999999976, -0.5064814960585294 
0.1799999999999965, -0.5077123488517447 
0.1899999999999954, -0.5093875008950969 
0.1999999999999943, -0.5111165786522067 
0.2099999999999932, -0.5123318738852031 
0.2199999999999921, -0.5126719304157149 
0.229999999999991, -0.5122604204830278 
0.2399999999999899, -0.5115328444251757 
0.2499999999999888, -0.5108694760777392 
0.2599999999999877, -0.510432368546059 
0.2699999999999866, -0.5102181740522319 
0.2799999999999855, -0.510158507829304 
0.2899999999999844, -0.5101815062452413 
0.2999999999999833, -0.5102332014013043 
0.3099999999999822, -0.5102786008259246 
0.3199999999999811, -0.5102963874102147 
0.32999999999998, -0.5102733130267258 
0.3399999999999789, -0.5102001749295165 
0.3499999999999778, -0.510069746786793 
0.35999999999997667, -0.5098766865413801 
0.36999999999997557, -0.5096192842638179 
0.37999999999997447, -0.5093023657375666 
0.38999999999997337, -0.5089396605698651 
0.39999999999997227, -0.5085532780021079 
0.40999999999997117, -0.5081689100466877 
0.41999999999997006, -0.5078080982296485 
0.42999999999996896, -0.5074812810131519 
0.43999999999996786, -0.5071851874595715 
0.44999999999996676, -0.5069056377331874 
0.45999999999996566, -0.5066239039555438 
0.46999999999996456, -0.5063232738332919 
0.47999999999996346, -0.5059931016255401 
0.48999999999996235, -0.5056297342983815 
0.49999999999996125, -0.5052355672781528 
0.5099999999999602, -0.5048180275513343 
0.519999999999959, -0.5043898236381963 
0.529999999999958, -0.5039712158631022 
0.5399999999999568, -0.5035947992522476 
0.5499999999999557, -0.5033132271137493 
0.5599999999999546, -0.5032098782470422 
0.5699999999999535, -0.5034105756477788 
0.5799999999999524, -0.5040891021358853 
0.5899999999999513, -0.5054482894851052 
0.5999999999999502, -0.5076457424938642 
0.6099999999999491, -0.5106454520941088 
0.619999999999948, -0.5140665526553959 
0.6299999999999469, -0.5172381772808516 
0.6399999999999458, -0.5195757189076887 
0.6499999999999447, -0.5209522918881029 
0.6599999999999436, -0.5216472663655031 
0.6699999999999425, -0.5220163464867376 
0.6799999999999414, -0.5222811744772955 
0.6899999999999403, -0.5225225523150822 
0.6999999999999392, -0.5227474419101921 
0.7099999999999381, -0.5229405607465512 
0.719999999999937, -0.5230867768031937 
0.7299999999999359, -0.5231762746694039 
0.7399999999999348, -0.5232032115133386 
0.7499999999999337, -0.5231631006858783 
0.7599999999999326, -0.5230508548753374 
0.7699999999999315, -0.5228601705251845 
0.7799999999999304, -0.5225846482728972 
0.7899999999999293, -0.5222208401300431 
0.7999999999999282, -0.5217726494232044 
0.8099999999999271, -0.521255085547839 
0.819999999999926, -0.5206943684145136 
0.8299999999999249, -0.5201225904826929 
0.8399999999999238, -0.5195686768075458 
0.8499999999999227, -0.5190502878754409 
0.8599999999999216, -0.5185707319342556 
0.8699999999999205, -0.5181216545560108 
0.8799999999999194, -0.5176891862152755 
0.8899999999999183, -0.5172602045705929 
0.8999999999999172, -0.5168264103915258 
0.9099999999999161, -0.5163858759817042 
0.919999999999915, -0.5159432080322052 
0.9299999999999139, -0.5155098490455965 
0.9399999999999128, -0.5151056980471737 
0.9499999999999117, -0.5147628174582215 
0.9599999999999106, -0.5145318088874434 
0.9699999999999095, -0.5144913526400022 
0.9799999999999084, -0.5147609322963349 
0.9899999999999073, -0.515514936292992 
0.9999999999999062, -0.5169913516767999 
1.0099999999999052, -0.5194778968803929 
1.019999999999904, -0.5232442403964735 
1.029999999999903, -0.5283897602911574 
1.039999999999902, -0.5346402147204189 
1.0499999999999008, -0.5412692207636081 
1.0599999999998997, -0.5473537552358568 
1.0699999999998986, -0.5522445611701542 
1.0799999999998975, -0.5558055714220809 
1.0899999999998964, -0.558259205059844 
1.0999999999998953, -0.5599170233893067 
1.1099999999998942, -0.5610328275678602 
1.119999999999893, -0.5617774562579946 
1.129999999999892, -0.5622588807711894 
1.1399999999998909, -0.562544595554784 
1.1499999999998898, -0.5626761306694885 
1.1599999999998887, -0.5626770021569321 
1.1699999999998876, -0.5625568315003113 
1.1799999999998865, -0.5623136461128723 
1.1899999999998854, -0.5619359363431183 
1.1999999999998843, -0.5614061083186215 
1.2099999999998832, -0.5607069670502487 
1.219999999999882, -0.5598316850218252 
1.229999999999881, -0.5587945135568573 
1.2399999999998799, -0.5576358707153328 
1.2499999999998788, -0.5564161035206823 
1.2599999999998777, -0.5551994647063475 
1.2699999999998766, -0.5540374317809591 
1.2799999999998755, -0.5529601707266251 
1.2899999999998744, -0.5519779420839559 
1.2999999999998733, -0.5510883747396013 
1.3099999999998722, -0.550284589452098 
1.319999999999871, -0.54956129589922 
1.32999999999987, -0.548918370454672 
1.3399999999998689, -0.548362727817467 
1.3499999999998678, -0.5479095382814558 
1.3599999999998666, -0.5475835405270342 
1.3699999999998655, -0.5474208201388547 
1.3799999999998644, -0.5474711541057006 
1.3899999999998633, -0.5478008195911916 
1.3999999999998622, -0.5484954523013597 
1.4099999999998611, -0.549661823746599 
1.41999999999986, -0.5514258799380268 
1.429999999999859, -0.553921705173697 
1.4399999999998578, -0.5572628484939287 
1.4499999999998567, -0.5614875248702642 
1.4599999999998556, -0.5664821604326484 
1.4699999999998545, -0.5719222526723262 
1.4799999999998534, -0.577303695230542 
1.4899999999998523, -0.5821016967103163 
1.4999999999998512, -0.5859695786090311 
1.5099999999998501, -0.5888258878237976 
1.519999999999849, -0.5907902283058352 
1.529999999999848, -0.592061481818896 
1.5399999999998468, -0.5928294974478808 
1.5499999999998457, -0.5932394730098209 
1.5599999999998446, -0.5933885430744595 
1.5699999999998435, -0.5933334506721212 
1.5799999999998424, -0.5930984395214602 
1.5899999999998413, -0.5926797521955149 
1.5999999999998402, -0.5920464370350597 
1.6099999999998391, -0.5911389423556318 
1.619999999999838, -0.5898692964956659 
1.629999999999837, -0.5881304049005415 
1.6399999999998358, -0.5858247313531677 
1.6499999999998347, -0.5829159985541383 
1.6599999999998336, -0.5794837443239788 
1.6699999999998325, -0.5757360755713858 
1.6799999999998314, -0.5719533189883308 
1.6899999999998303, -0.5683951452510512 
1.6999999999998292, -0.5652342381746334 
1.709999999999828, -0.5625448260971446 
1.719999999999827, -0.5603281881379851 
1.729999999999826, -0.5585460072624804 
1.7399999999998248, -0.5571455073729922 
1.7499999999998237, -0.5560736452169428 
1.7599999999998226, -0.5552833387182484 
1.7699999999998215, -0.5547353192266904 
1.7799999999998204, -0.5543981057038695 
1.7899999999998193, -0.5542474616500093 
1.7999999999998182, -0.5542659357344614 
1.809999999999817, -0.5544426628914574 
1.819999999999816, -0.5547733654895717 
1.8299999999998149, -0.5552602947427424 
1.8399999999998138, -0.5559115679175629 
1.8499999999998127, -0.5567389438839411 
1.8599999999998116, -0.5577527033994064 
1.8699999999998105, -0.5589525076433667 
1.8799999999998094, -0.5603148384056198 
1.8899999999998083, -0.5617815201072018 
1.8999999999998072, -0.5632582106671379 
1.909999999999806, -0.5646308649180489 
1.919999999999805, -0.5657969651047543 
1.9299999999998039, -0.5666941109729225 
1.9399999999998028, -0.5673085982006164 
1.9499999999998017, -0.5676629749011614 
1.9599999999998006, -0.5677953078306567 
1.9699999999997995, -0.5677420667190394 
1.9799999999997984, -0.5675283116436528 
1.9899999999997973, -0.5671630985834815 
1.9999999999997962, -0.5666366168728177 
2.0099999999998173, -0.5659161619861998 
2.0199999999998384, -0.5649387494674738 
2.0299999999998595, -0.5635987394368907 
2.0399999999998806, -0.5617306622373912 
2.0499999999999017, -0.5590943258054418 
2.059999999999923, -0.555386875177408 
2.069999999999944, -0.5503300087423242 
2.079999999999965, -0.5438637377964199 
2.089999999999986, -0.5363517385226322 
2.100000000000007, -0.5285649962963336 
2.1100000000000283, -0.5213597998026137 
2.1200000000000494, -0.5153161009753229 
2.1300000000000705, -0.5106193311792604 
2.1400000000000916, -0.5071673046863227 
2.1500000000001127, -0.5047307772954398 
2.160000000000134, -0.5030644541309272 
2.170000000000155, -0.5019575616785612 
2.180000000000176, -0.5012468396427302 
2.190000000000197, -0.5008128775383855 
2.2000000000002182, -0.5005714417200662 
2.2100000000002393, -0.5004647915330143 
2.2200000000002604, -0.5004546414383239 
2.2300000000002815, -0.500517057021429 
2.2400000000003026, -0.500639094074711 
2.2500000000003237, -0.5008167880245145 
2.260000000000345, -0.501053864417043 
2.270000000000366, -0.5013601834901031 
2.280000000000387, -0.501748637983636 
2.290000000000408, -0.502229447722722 
2.3000000000004293, -0.5028020110363604 
2.3100000000004504, -0.5034467075816758 
2.3200000000004715, -0.5041213225392364 
2.3300000000004926, -0.5047667144548516 
2.3400000000005137, -0.5053216789815649 
2.3500000000005348, -0.5057397811595729 
2.360000000000556, -0.5059985484385752 
2.370000000000577, -0.5060973432673993 
2.380000000000598, -0.5060480398695009 
2.390000000000619, -0.5058648603110222 
2.4000000000006403, -0.5055568373792524 
2.4100000000006614, -0.505122923514195 
2.4200000000006825, -0.504548048498143 
2.4300000000007036, -0.5037979979809831 
2.4400000000007247, -0.5028108284057582 
2.450000000000746, -0.5014823942882474 
2.460000000000767, -0.49964484322329517 
2.470000000000788, -0.4970445067906034 
2.480000000000809, -0.4933481086907676 
2.49000000000083, -0.4882397170844962 
2.5000000000008513, -0.48165202893357817 
2.5100000000008724, -0.4740065979529847 
2.5200000000008935, -0.46616570113797345 
2.5300000000009146, -0.45902947416808415 
2.5400000000009357, -0.45314520899398225 
2.550000000000957, -0.4486320614399758 
2.560000000000978, -0.44533570991967075 
2.570000000000999, -0.44300420836617016 
2.58000000000102, -0.44139226600350084 
2.5900000000010412, -0.4403006453294357 
2.6000000000010624, -0.4395811688242963 
2.6100000000010835, -0.4391290079922384 
2.6200000000011046, -0.4388726238780912 
2.6300000000011257, -0.4387651287715846 
2.6400000000011468, -0.43877794861955727 
2.650000000001168, -0.4388966416289601 
2.660000000001189, -0.43911842658991873 
2.67000000000121, -0.4394508239511469 
2.680000000001231, -0.43991054969341414 
2.6900000000012523, -0.4405213631307082 
2.7000000000012734, -0.44130912501417124 
2.7100000000012945, -0.4422923707312389 
2.7200000000013156, -0.44346815803964706 
2.7300000000013367, -0.4447968387961924 
2.740000000001358, -0.4461950116182695 
2.750000000001379, -0.44754757422868996 
2.7600000000014, -0.4487396136209935 
2.770000000001421, -0.44969112917053844 
2.780000000001442, -0.45037271904461884 
2.7900000000014633, -0.45079674235678147 
2.8000000000014844, -0.4509963101654454 
2.8100000000015055, -0.45100620416929715 
2.8200000000015266, -0.4508511727277823 
2.8300000000015477, -0.45054004840220746 
2.840000000001569, -0.4500621467873189 
2.85000000000159, -0.44938318421384177 
2.860000000001611, -0.4484396009640462 
2.870000000001632, -0.4471328427397294 
2.8800000000016532, -0.44533029109313294 
2.8900000000016743, -0.4428872169762882 
2.9000000000016954, -0.43970618446009013 
2.9100000000017165, -0.43582628693484954 
2.9200000000017377, -0.4314810161024951 
2.9300000000017588, -0.4270475467395648 
2.94000000000178, -0.42290095896565594 
2.950000000001801, -0.4192867767116696 
2.960000000001822, -0.41629114639750864 
2.970000000001843, -0.41388599021363354 
2.9800000000018643, -0.41198967823893035 
2.9900000000018854, -0.4105100096500289 
3.0000000000019065, -0.40936572154841844 
3.0100000000019276, -0.4084938934522452 
3.0200000000019487, -0.4078505668144666 
3.03000000000197, -0.4074090888981939 
3.040000000001991, -0.4071584187244251 
3.050000000002012, -0.40710235914898824 
3.060000000002033, -0.4072600868409729 
3.070000000002054, -0.4076680751885714 
3.0800000000020753, -0.40838323034434243 
3.0900000000020964, -0.4094864385677706 
3.1000000000021175, -0.411084247108526 
3.1100000000021386, -0.4133034213590622 
3.1200000000021597, -0.4162685708644086 
3.130000000002181, -0.4200501883722906 
3.140000000002202, -0.4245807890890343 
3.150000000002223, -0.42957626818892336 
3.160000000002244, -0.4345501771255137 
3.1700000000022652, -0.4389786091617432 
3.1800000000022863, -0.4425196730663414 
3.1900000000023074, -0.44510597222457593 
3.2000000000023285, -0.44686817989811 
3.2100000000023496, -0.44800466008884704 
3.2200000000023707, -0.4486956367260958 
3.230000000002392, -0.4490740600800901 
3.240000000002413, -0.4492269452734316 
3.250000000002434, -0.44920541752839027 
3.260000000002455, -0.44903406365229576 
3.2700000000024763, -0.448717554115028 
3.2800000000024974, -0.44824553424148705 
3.2900000000025185, -0.44759801751298633 
3.3000000000025396, -0.4467539244251366 
3.3100000000025607, -0.4457042153542471 
3.3200000000025818, -0.4444668734435339 
3.330000000002603, -0.44309521109186073 
3.340000000002624, -0.4416704086587309 
3.350000000002645, -0.4402790844923047 
3.360000000002666, -0.4389889433653737 
3.3700000000026873, -0.4378360674116305 
3.3800000000027084, -0.43682676569861556 
3.3900000000027295, -0.4359478785047579 
3.4000000000027506, -0.43517826130297943 
3.4100000000027717, -0.4344973983886556 
3.420000000002793, -0.4338903378877971 
3.430000000002814, -0.4333499339813588 
3.440000000002835, -0.43287791976933976 
3.450000000002856, -0.4324861702877508 
3.460000000002877, -0.4321991593073139 
3.4700000000028983, -0.4320583683180411 
3.4800000000029194, -0.4321293055881471 
3.4900000000029405, -0.43251159950299234 
3.5000000000029616, -0.4333517140843367 
3.5100000000029827, -0.4348548012917717 
3.520000000003004, -0.43728450669781915 
3.530000000003025, -0.4409249068103761 
3.540000000003046, -0.4459643662005101 
3.550000000003067, -0.4522858344897999 
3.5600000000030882, -0.459276858287094 
3.5700000000031094, -0.4659341880766824 
3.5800000000031305, -0.47136475144642576 
3.5900000000031516, -0.47524719532557913 
3.6000000000031727, -0.4777973148648269 
3.6100000000031938, -0.47942116172259236 
3.620000000003215, -0.48046274622227375 
3.630000000003236, -0.48114283712705214 
3.640000000003257, -0.4815877171223657 
3.650000000003278, -0.4818677841475113 
3.6600000000032993, -0.48202281069557973 
3.6700000000033204, -0.4820751645099657 
3.6800000000033415, -0.4820361998379403 
3.6900000000033626, -0.4819095361465324 
3.7000000000033837, -0.4816934266100553 
3.710000000003405, -0.4813836285488337 
3.720000000003426, -0.48097763153347267 
3.730000000003447, -0.48048009034950984 
3.740000000003468, -0.47990759815496203 
3.750000000003489, -0.47928954623670866 
3.7600000000035103, -0.47866281004217576 
3.7700000000035314, -0.4780618127948255 
3.7800000000035525, -0.4775090048651288 
3.7900000000035736, -0.47701049244153104 
3.8000000000035947, -0.47655806428337033 
3.810000000003616, -0.4761354674901172 
3.820000000003637, -0.4757254506541068 
3.830000000003658, -0.4753148243285172 
3.840000000003679, -0.47489665174624285 
3.8500000000037002, -0.4744704019479566 
3.8600000000037213, -0.4740416043313475 
3.8700000000037424, -0.4736223418094891 
3.8800000000037635, -0.4732334585524902 
3.8900000000037847, -0.4729090846185414 
3.9000000000038058, -0.4727039727953454 
3.910000000003827, -0.4727037550040462 
3.920000000003848, -0.47303654775381043 
3.930000000003869, -0.47387940905549186 
3.94000000000389, -0.47544241497018813 
3.9500000000039113, -0.47789854482615135 
3.9600000000039324, -0.4812325786565597 
3.9700000000039535, -0.48506484763925367 
3.9800000000039746, -0.4886655467143207 
3.9900000000039957, -0.4913372719742129 
4.000000000004016, -0.4928715096544904 
4.010000000003993, -0.49356012527968246 
4.02000000000397, -0.4938306770966075 
4.030000000003946, -0.49397226581261017 
4.040000000003923, -0.49410322480925944 
4.0500000000039, -0.4942436903432224 
4.0600000000038765, -0.4943790992139232 
4.070000000003853, -0.49449065178729945 
4.08000000000383, -0.4945643754878433 
4.090000000003807, -0.4945912971607661 
4.100000000003783, -0.4945652853054397 
4.11000000000376, -0.4944811459314832 
4.120000000003737, -0.49433387661766004 
4.130000000003713, -0.49411945397438284 
4.14000000000369, -0.4938372192550922 
4.150000000003667, -0.4934932378376204 
4.1600000000036434, -0.49310288293139315 
4.17000000000362, -0.4926902100902829 
4.180000000003597, -0.49228279925973994 
4.1900000000035735, -0.491903622972626 
4.20000000000355, -0.4915638706532886 
4.210000000003527, -0.4912603303788938 
4.220000000003504, -0.4909782985635913 
4.23000000000348, -0.49069810041059087 
4.240000000003457, -0.4904018387937669 
4.250000000003434, -0.4900776136093383 
4.26000000000341, -0.48972052824646817 
4.270000000003387, -0.48933168668592436 
4.280000000003364, -0.48891696911325944 
4.2900000000033405, -0.48848692612242717 
4.300000000003317, -0.4880585164174664 
4.310000000003294, -0.48765910005128826 
4.320000000003271, -0.48733296579744 
4.330000000003247, -0.487150139374787 
4.340000000003224, -0.48721513931600435 
4.350000000003201, -0.487667734788932 
4.360000000003177, -0.4886569513599085 
4.370000000003154, -0.4902596473806399 
4.380000000003131, -0.4923374768147758 
4.390000000003107, -0.4944312123904783 
4.400000000003084, -0.4959089578717598 
4.410000000003061, -0.49639684082832575 
4.4200000000030375, -0.496054078619314 
4.430000000003014, -0.49535412345686414 
4.440000000002991, -0.4946956654146654 
4.450000000002968, -0.49424815917082743 
4.460000000002944, -0.4940140502529742 
4.470000000002921, -0.4939306960940392 
4.480000000002898, -0.49393078211208286 
4.490000000002874, -0.49396316380786287 
4.500000000002851, -0.4939942392132516 
4.510000000002828, -0.4940032349751715 
4.520000000002804, -0.49397715432299905 
4.530000000002781, -0.4939071902814394 
4.540000000002758, -0.49378698231300017 
4.5500000000027345, -0.49361272351770014 
4.560000000002711, -0.49338488576073447 
4.570000000002688, -0.4931107258865811 
4.580000000002665, -0.4928058278430467 
4.590000000002641, -0.49249257654239165 
4.600000000002618, -0.4921947123990438 
4.610000000002595, -0.4919297014787462 
4.620000000002571, -0.49170255749174896 
4.630000000002548, -0.49150428984140226 
4.640000000002525, -0.4913157009116539 
4.6500000000025015, -0.4911144526963893 
4.660000000002478, -0.49088183245067063 
4.670000000002455, -0.4906064271094842 
4.6800000000024315, -0.49028427199418145 
4.690000000002408, -0.4899170093714599 
4.700000000002385, -0.4895100026116371 
4.710000000002362, -0.48907168508562293 
4.720000000002338, -0.48861468859571 
4.730000000002315, -0.4881589341282232 
4.740000000002292, -0.48773665473012306 
4.750000000002268, -0.48739857737591147 
4.760000000002245, -0.4872179996093606 
4.770000000002222, -0.48728349381682934 
4.7800000000021985, -0.48766140810633296 
4.790000000002175, -0.48830754422934736 
4.800000000002152, -0.4889509364272661 
4.810000000002129, -0.4890888038061051 
4.820000000002105, -0.48826786622278695 
4.830000000002082, -0.48649488822548725 
4.840000000002059, -0.4842739208515658 
4.850000000002035, -0.48219871390806845 
4.860000000002012, -0.4806033893922449 
4.870000000001989, -0.4795361487651738 
4.880000000001965, -0.4788953677911144 
4.890000000001942, -0.4785465779984602 
