t, s[1].omega / s[0].omega 
0, -0.499997755948561 
0.009999999999999995, -0.49978006699011557 
0.019999999999999934, -0.4995718557079368 
0.029999999999999874, -0.49936323809958383 
0.04000000000000012, -0.49914197618044287 
0.050000000000000405, -0.4988973687588104 
0.06000000000000069, -0.4986226184278274 
0.07000000000000098, -0.49831522099282505 
0.08000000000000126, -0.49797607290290813 
0.09000000000000155, -0.49760834129122156 
0.10000000000000184, -0.4972168475231976 
0.11000000000000212, -0.49680828123916554 
0.12000000000000241, -0.49639226750761545 
0.130000000000002, -0.49598310808021423 
0.1400000000000009, -0.49560167014949486 
0.1499999999999998, -0.4952760840039819 
0.1599999999999987, -0.49503842369145634 
0.1699999999999976, -0.4949130002663054 
0.1799999999999965, -0.4948934076271597 
0.1899999999999954, -0.49491623644373767 
0.1999999999999943, -0.4948597601240767 
0.2099999999999932, -0.49459899722821793 
0.2199999999999921, -0.494095073961044 
0.229999999999991, -0.4934318559516709 
0.2399999999999899, -0.49275547587034463 
0.2499999999999888, -0.4921835695200009 
0.2599999999999877, -0.4917640749966271 
0.2699999999999866, -0.4914882557856612 
0.2799999999999855, -0.49132106156523225 
0.2899999999999844, -0.49122372858847757 
0.2999999999999833, -0.4911640961576119 
0.3099999999999822, -0.49111883489364294 
0.3199999999999811, -0.4910721234131478 
0.32999999999998, -0.49101345294533577 
0.3399999999999789, -0.4909357568806527 
0.3499999999999778, -0.4908343018173296 
0.35999999999997667, -0.49070645303185384 
0.36999999999997557, -0.49055221941059945 
0.37999999999997447, -0.49037517915382195 
0.38999999999997337, -0.4901829890503345 
0.39999999999997227, -0.4899864984628544 
0.40999999999997117, -0.48979697400166666 
0.41999999999997006, -0.48962211869601946 
0.42999999999996896, -0.4894626868300012 
0.43999999999996786, -0.48931156662731395 
0.44999999999996676, -0.4891559720143369 
0.45999999999996566, -0.48898162522704275 
0.46999999999996456, -0.48877677743469594 
0.47999999999996346, -0.4885343472004042 
0.48999999999996235, -0.4882518706956249 
0.49999999999996125, -0.48793013675547775 
0.5099999999999602, -0.487571635729504 
0.519999999999959, -0.4871795436524676 
0.529999999999958, -0.4867574600423473 
0.5399999999999568, -0.48630979135578867 
0.5499999999999557, -0.4858424465922394 
0.5599999999999546, -0.48536314534537095 
0.5699999999999535, -0.4848798879249706 
0.5799999999999524, -0.4843950574555914 
0.5899999999999513, -0.4838924588097623 
0.5999999999999502, -0.483319133571029 
0.6099999999999491, -0.4825774259470543 
0.619999999999948, -0.4815569181947678 
0.6299999999999469, -0.4802150163637732 
0.6399999999999458, -0.47864560817261304 
0.6499999999999447, -0.4770511188989506 
0.6599999999999436, -0.47563302812736064 
0.6699999999999425, -0.4745046404839335 
0.6799999999999414, -0.4736811685422368 
0.6899999999999403, -0.4731175677698561 
0.6999999999999392, -0.47274886642506814 
0.7099999999999381, -0.47251408642732295 
0.719999999999937, -0.4723651777324136 
0.7299999999999359, -0.4722676767371305 
0.7399999999999348, -0.472198211270981 
0.7499999999999337, -0.47214150870396343 
0.7599999999999326, -0.4720879767335192 
0.7699999999999315, -0.4720321675344021 
0.7799999999999304, -0.4719721088109665 
0.7899999999999293, -0.47190927261610155 
0.7999999999999282, -0.4718486913328782 
0.8099999999999271, -0.4717984638297909 
0.819999999999926, -0.4717678960004529 
0.8299999999999249, -0.47176409692430055 
0.8399999999999238, -0.4717879412646927 
0.8499999999999227, -0.4718312730783293 
0.8599999999999216, -0.4718772090492064 
0.8699999999999205, -0.47190400509345815 
0.8799999999999194, -0.4718908330480486 
0.8899999999999183, -0.4718225809950364 
0.8999999999999172, -0.4716915942568238 
0.9099999999999161, -0.47149635234498505 
0.919999999999915, -0.4712385648665743 
0.9299999999999139, -0.4709202100029775 
0.9399999999999128, -0.4705412352949188 
0.9499999999999117, -0.4700978642019451 
0.9599999999999106, -0.46958102110320266 
0.9699999999999095, -0.46897417753173976 
0.9799999999999084, -0.46824976658559897 
0.9899999999999073, -0.4673633453358563 
0.9999999999999062, -0.4662457917568815 
1.0099999999999052, -0.46479806475940044 
1.019999999999904, -0.4629019871724448 
1.029999999999903, -0.46046694227656904 
1.039999999999902, -0.4575121250620048 
1.0499999999999008, -0.45422714893482874 
1.0599999999998997, -0.4509309621245084 
1.0699999999998986, -0.44793834494144313 
1.0799999999998975, -0.44544356774856897 
1.0899999999998964, -0.4434964668810412 
1.0999999999998953, -0.4420474318987564 
1.1099999999998942, -0.4410044696763663 
1.119999999999893, -0.4402718795286947 
1.129999999999892, -0.43976810331317007 
1.1399999999998909, -0.43943041080561185 
1.1499999999998898, -0.43921354604166024 
1.1599999999998887, -0.43908649895182206 
1.1699999999998876, -0.43902929942758656 
1.1799999999998865, -0.43903050301050994 
1.1899999999998854, -0.4390854701766176 
1.1999999999998843, -0.43919526666471603 
1.2099999999998832, -0.43936580342603265 
1.219999999999882, -0.43960660525958906 
1.229999999999881, -0.43992841870458693 
1.2399999999998799, -0.4403389858356251 
1.2499999999998788, -0.44083705490347214 
1.2599999999998777, -0.4414062212771378 
1.2699999999998766, -0.44201193662441013 
1.2799999999998755, -0.44260528510991304 
1.2899999999998744, -0.44313404144557234 
1.2999999999998733, -0.44355619794268797 
1.3099999999998722, -0.4438486306379727 
1.319999999999871, -0.4440071339709998 
1.32999999999987, -0.44404001002764515 
1.3399999999998689, -0.4439600033793014 
1.3499999999998678, -0.4437778573611067 
1.3599999999998666, -0.44349816714656837 
1.3699999999998655, -0.4431166995769386 
1.3799999999998644, -0.4426180813216102 
1.3899999999998633, -0.441973173507753 
1.3999999999998622, -0.4411363497263278 
1.4099999999998611, -0.44004458010237774 
1.41999999999986, -0.43862295976755805 
1.429999999999859, -0.4368036443210266 
1.4399999999998578, -0.4345615774068915 
1.4499999999998567, -0.43195456252173237 
1.4599999999998556, -0.4291359136801319 
1.4699999999998545, -0.42631567915104285 
1.4799999999998534, -0.42368969602090284 
1.4899999999998523, -0.42138512385284344 
1.4999999999998512, -0.4194493878641049 
1.5099999999998501, -0.41787108605007817 
1.519999999999849, -0.4166086460018862 
1.529999999999848, -0.4156121793616213 
1.5399999999998468, -0.4148357059917263 
1.5499999999998457, -0.4142422970213727 
1.5599999999998446, -0.41380535773838967 
1.5699999999998435, -0.41350831862787363 
1.5799999999998424, -0.41334398955415574 
1.5899999999998413, -0.41331415477890754 
1.5999999999998402, -0.4134295873419124 
1.6099999999998391, -0.4137103784877295 
1.619999999999838, -0.41418614484060406 
1.629999999999837, -0.4148951405025999 
1.6399999999998358, -0.41588048523198784 
1.6499999999998347, -0.41718085550570755 
1.6599999999998336, -0.4188131414289223 
1.6699999999998325, -0.42074810018481407 
1.6799999999998314, -0.42288896879838783 
1.6899999999998303, -0.425072804467814 
1.6999999999998292, -0.42710933112244265 
1.709999999999828, -0.4288429876638721 
1.719999999999827, -0.43019755905168616 
1.729999999999826, -0.43117683726641387 
1.7399999999998248, -0.4318334646064594 
1.7499999999998237, -0.4322345976203593 
1.7599999999998226, -0.4324405776320738 
1.7699999999998215, -0.43249679968431964 
1.7799999999998204, -0.4324330149675914 
1.7899999999998193, -0.43226529108881256 
1.7999999999998182, -0.43199832431549723 
1.809999999999817, -0.4316275971112626 
1.819999999999816, -0.4311419251107429 
1.8299999999998149, -0.430527491786213 
1.8399999999998138, -0.42977434489205607 
1.8499999999998127, -0.42888491523580513 
1.8599999999998116, -0.42788136088094386 
1.8699999999998105, -0.4268065279196622 
1.8799999999998094, -0.42571553994070915 
1.8899999999998083, -0.42466139482214443 
1.8999999999998072, -0.4236824518850771 
1.909999999999806, -0.4227975549764197 
1.919999999999805, -0.4220087145918702 
1.9299999999998039, -0.4213075675584914 
1.9399999999998028, -0.42068188812510376 
1.9499999999998017, -0.4201202731946877 
1.9599999999998006, -0.4196148087347981 
1.9699999999997995, -0.4191623821395856 
1.9799999999997984, -0.41876547712459977 
1.9899999999997973, -0.41843312240342856 
1.9999999999997962, -0.4181824288670599 
2.0099999999998173, -0.4180409358224974 
2.0199999999998384, -0.4180497219064837 
2.0299999999998595, -0.4182666927518703 
2.0399999999998806, -0.41876824155496567 
2.0499999999999017, -0.4196451362052285 
2.059999999999923, -0.42098523591298614 
2.069999999999944, -0.42283462521334314 
2.079999999999965, -0.4251389934704813 
2.089999999999986, -0.427697636792207 
2.100000000000007, -0.430192452181221 
2.1100000000000283, -0.43231640610672917 
2.1200000000000494, -0.4339128267304425 
2.1300000000000705, -0.43500374891458427 
2.1400000000000916, -0.43570938454945657 
2.1500000000001127, -0.43615748071859645 
2.160000000000134, -0.43644144163719306 
2.170000000000155, -0.4366182041582973 
2.180000000000176, -0.4367196510159773 
2.190000000000197, -0.43676322500760073 
2.2000000000002182, -0.4367584807119016 
2.2100000000002393, -0.43671049236174825 
2.2200000000002604, -0.43662158408830853 
2.2300000000002815, -0.43649244992746256 
2.2400000000003026, -0.436323324636132 
2.2500000000003237, -0.4361155396141737 
2.260000000000345, -0.43587339726918917 
2.270000000000366, -0.4356057452309227 
2.280000000000387, -0.4353261676119968 
2.290000000000408, -0.4350508792763466 
2.3000000000004293, -0.43479451365460403 
2.3100000000004504, -0.4345654438143118 
2.3200000000004715, -0.43436290046306214 
2.3300000000004926, -0.4341773600673749 
2.3400000000005137, -0.4339939719891447 
2.3500000000005348, -0.4337972510700667 
2.360000000000556, -0.4335748403853 
2.370000000000577, -0.4333190541508628 
2.380000000000598, -0.4330263336558051 
2.390000000000619, -0.43269561498220266 
2.4000000000006403, -0.43232658062796964 
2.4100000000006614, -0.43191826093563507 
2.4200000000006825, -0.4314679415945829 
2.4300000000007036, -0.43096996083834976 
2.4400000000007247, -0.43041362632377006 
2.450000000000746, -0.4297790195442393 
2.460000000000767, -0.42902911754802986 
2.470000000000788, -0.42809779611817333 
2.480000000000809, -0.4268791708116413 
2.49000000000083, -0.425236880155569 
2.5000000000008513, -0.4230607113490053 
2.5100000000008724, -0.42036656464575134 
2.5200000000008935, -0.4173596399867847 
2.5300000000009146, -0.414370062709675 
2.5400000000009357, -0.41169920714156705 
2.550000000000957, -0.40951113745848494 
2.560000000000978, -0.4078291212455209 
2.570000000000999, -0.4065913587778554 
2.58000000000102, -0.40570667161070106 
2.5900000000010412, -0.4050873742500628 
2.6000000000010624, -0.4046622364603337 
2.6100000000010835, -0.4043784790779445 
2.6200000000011046, -0.40419941402396187 
2.6300000000011257, -0.4041011404765674 
2.6400000000011468, -0.404069677274031 
2.650000000001168, -0.40409891731465947 
2.660000000001189, -0.4041893491462198 
2.67000000000121, -0.40434724900740726 
2.680000000001231, -0.40458381483495787 
2.6900000000012523, -0.4049134565518934 
2.7000000000012734, -0.40535031121632326 
2.7100000000012945, -0.4059023408974145 
2.7200000000013156, -0.4065635196700666 
2.7300000000013367, -0.4073067666576017 
2.740000000001358, -0.40808240938420315 
2.750000000001379, -0.4088263101778865 
2.7600000000014, -0.40947625932367737 
2.770000000001421, -0.4099882930873844 
2.780000000001442, -0.41034391024493794 
2.7900000000014633, -0.4105462392688858 
2.8000000000014844, -0.41061029481187744 
2.8100000000015055, -0.41055342985362453 
2.8200000000015266, -0.4103888422852684 
2.8300000000015477, -0.4101219636880075 
2.840000000001569, -0.4097484356085867 
2.85000000000159, -0.4092526117719079 
2.860000000001611, -0.40860636538230866 
2.870000000001632, -0.40776923574389673 
2.8800000000016532, -0.4066926157470874 
2.8900000000016743, -0.40533192051069544 
2.9000000000016954, -0.40366865535661633 
2.9100000000017165, -0.40173574467111584 
2.9200000000017377, -0.3996283604719907 
2.9300000000017588, -0.39748443845810927 
2.94000000000178, -0.3954417942330855 
2.950000000001801, -0.39359941077909555 
2.960000000001822, -0.39200364549613553 
2.970000000001843, -0.39065744261924473 
2.9800000000018643, -0.38953850579337546 
2.9900000000018854, -0.388615359703802 
3.0000000000019065, -0.38785754275969936 
3.0100000000019276, -0.38724067900452036 
3.0200000000019487, -0.3867484418562472 
3.03000000000197, -0.3863731417579786 
3.040000000001991, -0.38611605170561025 
3.050000000002012, -0.3859880838077962 
3.060000000002033, -0.38601109779345116 
3.070000000002054, -0.38621984901985357 
3.0800000000020753, -0.3866641771170471 
3.0900000000020964, -0.3874102176799993 
3.1000000000021175, -0.3885378530798134 
3.1100000000021386, -0.3901292578893888 
3.1200000000021597, -0.39224168841266555 
3.130000000002181, -0.39486170909615453 
3.140000000002202, -0.39785575783344906 
3.150000000002223, -0.4009595863458431 
3.160000000002244, -0.4038487610177999 
3.1700000000022652, -0.4062656032965992 
3.1800000000022863, -0.40810656495664555 
3.1900000000023074, -0.4094102247218598 
3.2000000000023285, -0.4102853607457944 
3.2100000000023496, -0.41084723014584246 
3.2200000000023707, -0.41118808662226664 
3.230000000002392, -0.4113724990453321 
3.240000000002413, -0.411442421434007 
3.250000000002434, -0.4114235996829211 
3.260000000002455, -0.41133061832057194 
3.2700000000024763, -0.41117047030674164 
3.2800000000024974, -0.41094531114964994 
3.2900000000025185, -0.4106551430569573 
3.3000000000025396, -0.4103009321686672 
3.3100000000025607, -0.409888057155924 
3.3200000000025818, -0.4094290606655405 
3.330000000002603, -0.4089440000099696 
3.340000000002624, -0.4084572399334433 
3.350000000002645, -0.40799149384266703 
3.360000000002666, -0.40756184732333567 
3.3700000000026873, -0.4071726047086629 
3.3800000000027084, -0.4068180587875987 
3.3900000000027295, -0.4064862152075941 
3.4000000000027506, -0.40616339691189235 
3.4100000000027717, -0.40583781879072206 
3.420000000002793, -0.40550124969033413 
3.430000000002814, -0.40514899786160347 
3.440000000002835, -0.404779030589075 
3.450000000002856, -0.40439097941393376 
3.460000000002877, -0.4039854073470333 
3.4700000000028983, -0.40356331700357534 
3.4800000000029194, -0.4031255051366228 
3.4900000000029405, -0.40267086960440396 
3.5000000000029616, -0.4021919813030125 
3.5100000000029827, -0.401665376298139 
3.520000000003004, -0.40103480900602284 
3.530000000003025, -0.4001927401602582 
3.540000000003046, -0.39898289927164754 
3.550000000003067, -0.39726049859505946 
3.5600000000030882, -0.395008795551104 
3.5700000000031094, -0.3924156357200498 
3.5800000000031305, -0.3898040289867696 
3.5900000000031516, -0.3874675337902188 
3.6000000000031727, -0.3855614367364685 
3.6100000000031938, -0.3841050322103423 
3.620000000003215, -0.38303949590086256 
3.630000000003236, -0.38228140279758926 
3.640000000003257, -0.38175248260059036 
3.650000000003278, -0.38139047358217104 
3.6600000000032993, -0.3811502114078485 
3.6700000000033204, -0.3810011375045163 
3.6800000000033415, -0.3809242348680969 
3.6900000000033626, -0.3809095300495437 
3.7000000000033837, -0.3809544256172133 
3.710000000003405, -0.3810627377924253 
3.720000000003426, -0.3812440712566836 
3.730000000003447, -0.38151290572364877 
3.740000000003468, -0.38188649665399754 
3.750000000003489, -0.38238058859535123 
3.7600000000035103, -0.3830023873877722 
3.7700000000035314, -0.38374172276678903 
3.7800000000035525, -0.3845639226853158 
3.7900000000035736, -0.38541007676532346 
3.8000000000035947, -0.3862085870851948 
3.810000000003616, -0.3868945620921026 
3.820000000003637, -0.3874264478682852 
3.830000000003658, -0.3877909124461488 
3.840000000003679, -0.38799619306311917 
3.8500000000037002, -0.38806079956508566 
3.8600000000037213, -0.38800380104434573 
3.8700000000037424, -0.38783883656082846 
3.8800000000037635, -0.3875711085817947 
3.8900000000037847, -0.38719591940628934 
3.9000000000038058, -0.38669785481343155 
3.910000000003827, -0.3860507373206011 
3.920000000003848, -0.3852197429170843 
3.930000000003869, -0.3841682863005269 
3.94000000000389, -0.38287206222783826 
3.9500000000039113, -0.3813385076932753 
3.9600000000039324, -0.3796218111864218 
3.9700000000039535, -0.37781928582722124 
3.9800000000039746, -0.37604508385601515 
3.9900000000039957, -0.37439606299260764 
4.000000000004016, -0.37293042817491334 
4.010000000003993, -0.3716665781812228 
4.02000000000397, -0.37059491645523984 
4.030000000003946, -0.3696921444929604 
4.040000000003923, -0.368932116758064 
4.0500000000039, -0.3682921463254653 
4.0600000000038765, -0.3677559355153027 
4.070000000003853, -0.367314706860165 
4.08000000000383, -0.3669677663143672 
4.090000000003807, -0.36672328502671764 
4.100000000003783, -0.3665997465235071 
4.11000000000376, -0.36662824867215155 
4.120000000003737, -0.36685551506817726 
4.130000000003713, -0.36734676102908403 
4.14000000000369, -0.3681860073982618 
4.150000000003667, -0.3694685853986347 
4.1600000000036434, -0.3712770831683674 
4.17000000000362, -0.373632617120244 
4.180000000003597, -0.3764295825558078 
4.1900000000035735, -0.37940021864527534 
4.20000000000355, -0.3821774087512528 
4.210000000003527, -0.3844537367364979 
4.220000000003504, -0.3861118417877937 
4.23000000000348, -0.38721667564401324 
4.240000000003457, -0.3879139052998922 
4.250000000003434, -0.38834207625793116 
4.26000000000341, -0.3885995247341495 
4.270000000003387, -0.38874669972565024 
4.280000000003364, -0.3888184115688872 
4.2900000000033405, -0.3888343178348429 
4.300000000003317, -0.3888055066581967 
4.310000000003294, -0.388738213701748 
4.320000000003271, -0.3886360200314893 
4.330000000003247, -0.3885014954387772 
4.340000000003224, -0.3883378352537719 
4.350000000003201, -0.38815061422502956 
4.360000000003177, -0.3879492734509649 
4.370000000003154, -0.3877474851001176 
4.380000000003131, -0.3875615013598906 
4.390000000003107, -0.3874063376943149 
4.400000000003084, -0.387290915311196 
4.410000000003061, -0.38721423575086156 
4.4200000000030375, -0.3871645500721713 
4.430000000003014, -0.38712223734590817 
4.440000000002991, -0.3870652490780226 
4.450000000002968, -0.3869745768659217 
4.460000000002944, -0.3868373609333386 
4.470000000002921, -0.38664688545721215 
4.480000000002898, -0.38640037027178364 
4.490000000002874, -0.386095979783761 
4.500000000002851, -0.38572994181329684 
4.510000000002828, -0.38529387372196744 
4.520000000002804, -0.3847718444394318 
4.530000000002781, -0.38413643387583457 
4.540000000002758, -0.38334313221184313 
4.5500000000027345, -0.3823233484145069 
4.560000000002711, -0.38097937555111155 
4.570000000002688, -0.3791912148339811 
4.580000000002665, -0.3768517249316632 
4.590000000002641, -0.3739370411696941 
4.600000000002618, -0.37057700690542494 
4.610000000002595, -0.36705155133433115 
4.620000000002571, -0.3636863273384015 
4.630000000002548, -0.3607260118895744 
4.640000000002525, -0.3582786129517751 
4.6500000000025015, -0.35633884653254866 
4.660000000002478, -0.3548409844620649 
4.670000000002455, -0.3537021021341731 
4.6800000000024315, -0.35284569484143397 
4.690000000002408, -0.3522106179470885 
4.700000000002385, -0.35175239449654644 
4.710000000002362, -0.3514416314304694 
4.720000000002338, -0.351261952821572 
4.730000000002315, -0.3512084478092988 
4.740000000002292, -0.35128692862437483 
4.750000000002268, -0.3515139347439395 
4.760000000002245, -0.351917113593442 
4.770000000002222, -0.3525351290555209 
4.7800000000021985, -0.35341542035243373 
4.790000000002175, -0.35460698211948843 
4.800000000002152, -0.35614461298806577 
4.810000000002129, -0.3580231341436041 
4.820000000002105, -0.36016848236944643 
4.830000000002082, -0.3624262760352999 
4.840000000002059, -0.3645917874068388 
4.850000000002035, -0.3664779036138879 
4.860000000002012, -0.3679774288921866 
