t, s[1].omega / s[0].omega 
0, -1.5199972065126075 
0.009999999999999995, -1.5195655130580317 
0.019999999999999934, -1.5188335680268261 
0.029999999999999874, -1.5178087850381223 
0.04000000000000012, -1.516515519231856 
0.050000000000000405, -1.5150160904755883 
0.06000000000000069, -1.5134404017110217 
0.07000000000000098, -1.512002270017206 
0.08000000000000126, -1.510942535277901 
0.09000000000000155, -1.5103755488174442 
0.10000000000000184, -1.5101903058139554 
0.11000000000000212, -1.5101515461780273 
0.12000000000000241, -1.5100577227035967 
0.130000000000002, -1.5097806307032753 
0.1400000000000009, -1.509211989342309 
0.1499999999999998, -1.508190010636838 
0.1599999999999987, -1.5064279246424408 
0.1699999999999976, -1.5034700787332809 
0.1799999999999965, -1.498824553471132 
0.1899999999999954, -1.4926476914357811 
0.1999999999999943, -1.4870072261843892 
0.2099999999999932, -1.485546784644654 
0.2199999999999921, -1.489508500920115 
0.229999999999991, -1.4959127988611969 
0.2399999999999899, -1.501457150670844 
0.2499999999999888, -1.5050683967335718 
0.2599999999999877, -1.507061282238669 
0.2699999999999866, -1.5080012383965289 
0.2799999999999855, -1.508304140783899 
0.2899999999999844, -1.5082146786090107 
0.2999999999999833, -1.5078732765312393 
0.3099999999999822, -1.5073895635252363 
0.3199999999999811, -1.5069099069203886 
0.32999999999998, -1.506643230704238 
0.3399999999999789, -1.5067798896825135 
0.3499999999999778, -1.507347667148903 
0.35999999999997667, -1.5081888977356832 
0.36999999999997557, -1.5090860033958988 
0.37999999999997447, -1.5098700328810173 
0.38999999999997337, -1.51044210231372 
0.39999999999997227, -1.5107530798756115 
0.40999999999997117, -1.5107805584814726 
0.41999999999997006, -1.5105136064075442 
0.42999999999996896, -1.5099454997002675 
0.43999999999996786, -1.509073008673116 
0.44999999999996676, -1.5079021622205617 
0.45999999999996566, -1.5064626905277814 
0.46999999999996456, -1.504833879982661 
0.47999999999996346, -1.5031769085896023 
0.48999999999996235, -1.501738329148289 
0.49999999999996125, -1.5007562190021722 
0.5099999999999602, -1.5002890643077302 
0.519999999999959, -1.5001665095447316 
0.529999999999958, -1.5001393425979477 
0.5399999999999568, -1.5000216284083412 
0.5499999999999557, -1.499697851300394 
0.5599999999999546, -1.4990582034277655 
0.5699999999999535, -1.4979258655377532 
0.5799999999999524, -1.4959900459191113 
0.5899999999999513, -1.4927833909847519 
0.5999999999999502, -1.4878915117194695 
0.6099999999999491, -1.4817737818135337 
0.619999999999948, -1.4769235215539547 
0.6299999999999469, -1.4768025885169265 
0.6399999999999458, -1.4817175621846155 
0.6499999999999447, -1.488289252407584 
0.6599999999999436, -1.4936041902747883 
0.6699999999999425, -1.4969575057425426 
0.6799999999999414, -1.4987729350232377 
0.6899999999999403, -1.4996069780669914 
0.6999999999999392, -1.4998477257661236 
0.7099999999999381, -1.4997202828498486 
0.719999999999937, -1.4993560732960423 
0.7299999999999359, -1.4988648539139393 
0.7399999999999348, -1.4983990640208975 
0.7499999999999337, -1.4981702826808367 
0.7599999999999326, -1.4983572468895456 
0.7699999999999315, -1.4989676364271873 
0.7799999999999304, -1.499833035353156 
0.7899999999999293, -1.5007380581910073 
0.7999999999999282, -1.5015201422999844 
0.8099999999999271, -1.5020854369652965 
0.819999999999926, -1.5023878610523715 
0.8299999999999249, -1.502406903162969 
0.8399999999999238, -1.5021332197366453 
0.8499999999999227, -1.5015619505537345 
0.8599999999999216, -1.5006923193054496 
0.8699999999999205, -1.499533485676437 
0.8799999999999194, -1.4981186462153746 
0.8899999999999183, -1.4965294405128617 
0.8999999999999172, -1.49492495345266 
0.9099999999999161, -1.4935413836899667 
0.919999999999915, -1.4926006194645227 
0.9299999999999139, -1.4921516881316117 
0.9399999999999128, -1.4920293785461372 
0.9499999999999117, -1.4919954944589089 
0.9599999999999106, -1.4918706408048354 
0.9699999999999095, -1.4915403634469542 
0.9799999999999084, -1.4908932444833478 
0.9899999999999073, -1.4897496686988838 
0.9999999999999062, -1.4877937065924545 
1.0099999999999052, -1.4845427701297296 
1.019999999999904, -1.4795292135399705 
1.029999999999903, -1.473066269114376 
1.039999999999902, -1.4674435927106282 
1.0499999999999008, -1.4662027058430351 
1.0599999999998997, -1.4701633644269765 
1.0699999999998986, -1.4762675593280332 
1.0799999999998975, -1.4814634085809262 
1.0899999999998964, -1.484827851874242 
1.0999999999998953, -1.4866792396634225 
1.1099999999998942, -1.4875450070507663 
1.119999999999893, -1.4878096685971607 
1.129999999999892, -1.4876991227521867 
1.1399999999998909, -1.4873434269016041 
1.1499999999998898, -1.4868471213145238 
1.1599999999998887, -1.486357541522335 
1.1699999999998876, -1.4860955471265036 
1.1799999999998865, -1.486275091148125 
1.1899999999998854, -1.486942349620251 
1.1999999999998843, -1.487932509332284 
1.2099999999998832, -1.4890013635447157 
1.219999999999882, -1.4899554012775782 
1.229999999999881, -1.490683626754206 
1.2399999999998799, -1.4911354779240655 
1.2499999999998788, -1.4912936078763366 
1.2599999999998777, -1.4911559139114443 
1.2699999999998766, -1.4907266304493916 
1.2799999999998755, -1.4900140960400918 
1.2899999999998744, -1.4890342265327483 
1.2999999999998733, -1.487820495482898 
1.3099999999998722, -1.4864411604066599 
1.319999999999871, -1.4850202971105717 
1.32999999999987, -1.4837438854713025 
1.3399999999998689, -1.482807723750381 
1.3499999999998678, -1.4822971676761096 
1.3599999999998666, -1.4821145407775749 
1.3699999999998655, -1.4820586885812779 
1.3799999999998644, -1.4819499960921445 
1.3899999999998633, -1.4816652535472181 
1.3999999999998622, -1.48109431322917 
1.4099999999998611, -1.4800740817804148 
1.41999999999986, -1.478318178990923 
1.429999999999859, -1.4753579666448426 
1.4399999999998578, -1.4705975951701722 
1.4499999999998567, -1.4637821456648092 
1.4599999999998556, -1.4561271841212025 
1.4699999999998545, -1.4509038074728517 
1.4799999999998534, -1.450839488002023 
1.4899999999998523, -1.4547816200516879 
1.4999999999998512, -1.4594741379365705 
1.5099999999998501, -1.462998319634133 
1.519999999999849, -1.4651096288784369 
1.529999999999848, -1.4661796227677033 
1.5399999999998468, -1.4665851869225 
1.5499999999998457, -1.466570468762045 
1.5599999999998446, -1.4662733533329904 
1.5699999999998435, -1.465785175286 
1.5799999999998424, -1.4652222880459056 
1.5899999999998413, -1.4647962611129783 
1.5999999999998402, -1.4648051897737964 
1.6099999999998391, -1.4654618111183153 
1.619999999999838, -1.466699880366352 
1.629999999999837, -1.468221406709153 
1.6399999999998358, -1.4697116005721176 
1.6499999999998347, -1.4709674007211466 
1.6599999999998336, -1.4718971145451036 
1.6699999999998325, -1.4724773466056245 
1.6799999999998314, -1.4727179756787738 
1.6899999999998303, -1.4726426656395737 
1.6999999999998292, -1.472280105474871 
1.709999999999828, -1.4716620841889714 
1.719999999999827, -1.4708272676105862 
1.729999999999826, -1.4698300010778023 
1.7399999999998248, -1.4687510124466532 
1.7499999999998237, -1.4677036462722572 
1.7599999999998226, -1.466823315022267 
1.7699999999998215, -1.4662209480091586 
1.7799999999998204, -1.4659118832475209 
1.7899999999998193, -1.4657949822306788 
1.7999999999998182, -1.465717029268757 
1.809999999999817, -1.465542645204279 
1.819999999999816, -1.4651620113572368 
1.8299999999998149, -1.4644512008869188 
1.8399999999998138, -1.4632159825117488 
1.8499999999998127, -1.461131486086828 
1.8599999999998116, -1.457702005384394 
1.8699999999998105, -1.452340139076592 
1.8799999999998094, -1.4447917594979658 
1.8899999999998083, -1.4360336126774331 
1.8999999999998072, -1.4287537164252861 
1.909999999999806, -1.4255661977527798 
1.919999999999805, -1.4263003526132292 
1.9299999999998039, -1.42865576197624 
1.9399999999998028, -1.4308183787976627 
1.9499999999998017, -1.4322215432446048 
1.9599999999998006, -1.4329363736310463 
1.9699999999997995, -1.4331580178370564 
1.9799999999997984, -1.433031788576503 
1.9899999999997973, -1.4326376082051318 
1.9999999999997962, -1.4320260994373173 
2.0099999999998173, -1.431291225554253 
2.0199999999998384, -1.430682765636508 
2.0299999999998595, -1.4306696783902717 
2.0399999999998806, -1.4317374477215559 
2.0499999999999017, -1.4339537170913852 
2.059999999999923, -1.4368449225292579 
2.069999999999944, -1.439771361645901 
2.079999999999965, -1.4422892859678849 
2.089999999999986, -1.444214880397197 
2.100000000000007, -1.4455344660959288 
2.1100000000000283, -1.4463139337749253 
2.1200000000000494, -1.4466448161431302 
2.1300000000000705, -1.4466177800529159 
2.1400000000000916, -1.4463128502699343 
2.1500000000001127, -1.4458013270302517 
2.160000000000134, -1.4451552999017419 
2.170000000000155, -1.4444567397136727 
2.180000000000176, -1.4437956963269134 
2.190000000000197, -1.4432550987385546 
2.2000000000002182, -1.4428900400018745 
2.2100000000002393, -1.442706973666823 
2.2200000000002604, -1.4426525245679973 
2.2300000000002815, -1.4426302857914863 
2.2400000000003026, -1.4425356095450952 
2.2500000000003237, -1.442273205443404 
2.260000000000345, -1.4417458118298985 
2.270000000000366, -1.4408287081203017 
2.280000000000387, -1.4393464907332847 
2.290000000000408, -1.4370659401567125 
2.3000000000004293, -1.4337268890175976 
2.3100000000004504, -1.429149964205626 
2.3200000000004715, -1.4234636633223103 
2.3300000000004926, -1.4173969567335285 
2.3400000000005137, -1.4122805745252172 
2.3500000000005348, -1.4092871372154172 
2.360000000000556, -1.4084504580878396 
2.370000000000577, -1.4088217150507418 
2.380000000000598, -1.4094615977731588 
2.390000000000619, -1.409916015905837 
2.4000000000006403, -1.4100753952387688 
2.4100000000006614, -1.409947060707708 
2.4200000000006825, -1.4095379400344488 
2.4300000000007036, -1.4088183901781661 
2.4400000000007247, -1.407735558239233 
2.450000000000746, -1.4063054935359192 
2.460000000000767, -1.4048575070097038 
2.470000000000788, -1.4043538253371688 
2.480000000000809, -1.4061838441049797 
2.49000000000083, -1.4109278694878495 
2.5000000000008513, -1.417466337567583 
2.5100000000008724, -1.423935759573231 
2.5200000000008935, -1.429112588612903 
2.5300000000009146, -1.4326991928978436 
2.5400000000009357, -1.434920756962897 
2.550000000000957, -1.4361414011231128 
2.560000000000978, -1.4366814876929495 
2.570000000000999, -1.4367711414024016 
2.58000000000102, -1.4365635086240558 
2.5900000000010412, -1.4361675684082835 
2.6000000000010624, -1.4356832252571248 
2.6100000000010835, -1.4352232464610846 
2.6200000000011046, -1.4349015469214066 
2.6300000000011257, -1.4347892609181325 
2.6400000000011468, -1.4348829244847663 
2.650000000001168, -1.4351173852623114 
2.660000000001189, -1.4354001959493257 
2.67000000000121, -1.4356381407408765 
2.680000000001231, -1.4357511895539012 
2.6900000000012523, -1.4356749490765994 
2.7000000000012734, -1.435354551009007 
2.7100000000012945, -1.4347373185625032 
2.7200000000013156, -1.4337702295143182 
2.7300000000013367, -1.4324042372924204 
2.740000000001358, -1.4306067115614063 
2.750000000001379, -1.4283863372643741 
2.7600000000014, -1.4258369625182827 
2.770000000001421, -1.4231935955517288 
2.780000000001442, -1.4208433224143335 
2.7900000000014633, -1.4191849889951769 
2.8000000000014844, -1.4183615751245933 
2.8100000000015055, -1.4181579797000352 
2.8200000000015266, -1.4182112302982772 
2.8300000000015477, -1.4182470688757938 
2.840000000001569, -1.4181244128562764 
2.85000000000159, -1.4177654712390932 
2.860000000001611, -1.4170799392478024 
2.870000000001632, -1.4159077127796915 
2.8800000000016532, -1.4139793149092228 
2.8900000000016743, -1.4109429955486528 
2.9000000000016954, -1.4066350025959493 
2.9100000000017165, -1.401820361234655 
2.9200000000017377, -1.3988833708655366 
2.9300000000017588, -1.40048633765316 
2.94000000000178, -1.4064270057923844 
2.950000000001801, -1.4136523995891048 
2.960000000001822, -1.4195548023498965 
2.970000000001843, -1.4234221116709542 
2.9800000000018643, -1.4256261660008593 
2.9900000000018854, -1.4267292754239704 
3.0000000000019065, -1.4271538124840655 
3.0100000000019276, -1.4271568820212 
3.0200000000019487, -1.426885643711373 
3.03000000000197, -1.426440027693134 
3.040000000001991, -1.425934249321018 
3.050000000002012, -1.4255449971895409 
3.060000000002033, -1.4254942716892662 
3.070000000002054, -1.4259299634210525 
3.0800000000020753, -1.4268084872900675 
3.0900000000020964, -1.427928343736018 
3.1000000000021175, -1.4290636376771426 
3.1100000000021386, -1.4300510493337697 
3.1200000000021597, -1.4307998340064234 
3.130000000002181, -1.4312701546592803 
3.140000000002202, -1.4314512489983275 
3.150000000002223, -1.4313474610326395 
3.160000000002244, -1.4309712919988542 
3.1700000000022652, -1.4303414966767671 
3.1800000000022863, -1.429485544590315 
3.1900000000023074, -1.4284465869085823 
3.2000000000023285, -1.4272936725208738 
3.2100000000023496, -1.4261305940288285 
3.2200000000023707, -1.4250928642717793 
3.230000000002392, -1.4243138766946104 
3.240000000002413, -1.4238558154562542 
3.250000000002434, -1.4236606035230366 
3.260000000002455, -1.423585295300391 
3.2700000000024763, -1.4234818305402548 
3.2800000000024974, -1.4232343287228226 
3.2900000000025185, -1.422738856087715 
3.3000000000025396, -1.4218572452483351 
3.3100000000025607, -1.4203643872286984 
3.3200000000025818, -1.417898580757765 
3.330000000002603, -1.4139525049974384 
3.340000000002624, -1.4080203481226814 
3.350000000002645, -1.400089538472613 
3.360000000002666, -1.391417019141651 
3.3700000000026873, -1.3845832811324317 
3.3800000000027084, -1.3816274646411069 
3.3900000000027295, -1.382096282295699 
3.4000000000027506, -1.383977349667922 
3.4100000000027717, -1.3857567230840973 
3.420000000002793, -1.386932889664791 
3.430000000002814, -1.3875315447207552 
3.440000000002835, -1.3876961971955564 
3.450000000002856, -1.387537876361378 
3.460000000002877, -1.387113254861724 
3.4700000000028983, -1.3864493445910357 
3.4800000000029194, -1.385606500766968 
3.4900000000029405, -1.3847997840611335 
3.5000000000029616, -1.3845305100177412 
3.5100000000029827, -1.3854890574937848 
3.520000000003004, -1.3880461175941874 
3.530000000003025, -1.3918204338404991 
3.540000000003046, -1.3959470603695687 
3.550000000003067, -1.3996694130210336 
3.5600000000030882, -1.4026069882398313 
3.5700000000031094, -1.4046899375076518 
3.5800000000031305, -1.4060121594808268 
3.5900000000031516, -1.4067237492242464 
3.6000000000031727, -1.4069731929942009 
3.6100000000031938, -1.4068840899616428 
3.620000000003215, -1.4065539525367206 
3.630000000003236, -1.4060663260107218 
3.640000000003257, -1.4055068267472992 
3.650000000003278, -1.404969550814855 
3.6600000000032993, -1.4045427421048629 
3.6700000000033204, -1.4042820152613487 
3.6800000000033415, -1.404194115818354 
3.6900000000033626, -1.4042388200600113 
3.7000000000033837, -1.4043418924751785 
3.710000000003405, -1.404415280100091 
3.720000000003426, -1.4043756131178091 
3.730000000003447, -1.4041490451121004 
3.740000000003468, -1.4036634992241483 
3.750000000003489, -1.402839109336375 
3.7600000000035103, -1.4015857162613576 
3.7700000000035314, -1.3998116194301167 
3.7800000000035525, -1.3974465828239748 
3.7900000000035736, -1.3944851059916055 
3.8000000000035947, -1.3910570620620146 
3.810000000003616, -1.387508715713147 
3.820000000003637, -1.3843997863880297 
3.830000000003658, -1.3822728132502644 
3.840000000003679, -1.3812803449194195 
3.8500000000037002, -1.3810970884696794 
3.8600000000037213, -1.3812411788838717 
3.8700000000037424, -1.381375949578256 
3.8800000000037635, -1.3813474100260614 
3.8900000000037847, -1.3810914156133094 
3.9000000000038058, -1.3805480719531185 
3.910000000003827, -1.3796078139516346 
3.920000000003848, -1.378079412412977 
3.930000000003869, -1.3757048952942506 
3.94000000000389, -1.3723372206365467 
3.9500000000039113, -1.3684670381530006 
3.9600000000039324, -1.3658843337823905 
3.9700000000039535, -1.3670888350734596 
3.9800000000039746, -1.372733761980763 
3.9900000000039957, -1.3804981305477215 
4.000000000004016, -1.3875060505322252 
4.010000000003993, -1.392473720772659 
4.02000000000397, -1.395502319569444 
4.030000000003946, -1.3971486245807407 
4.040000000003923, -1.3979169484660317 
4.0500000000039, -1.3981427983046606 
4.0600000000038765, -1.398023761936773 
4.070000000003853, -1.3976777547242822 
4.08000000000383, -1.3972006595191162 
4.090000000003807, -1.3967210223550093 
4.100000000003783, -1.3964289829355354 
4.11000000000376, -1.3965271645889243 
4.120000000003737, -1.3971059442619187 
4.130000000003713, -1.3980715147173606 
4.14000000000369, -1.3992156300976444 
4.150000000003667, -1.4003343044403518 
4.1600000000036434, -1.4012873104874322 
4.17000000000362, -1.4019980403097798 
4.180000000003597, -1.4024334271210408 
4.1900000000035735, -1.4025858240443734 
4.20000000000355, -1.4024616964307466 
4.210000000003527, -1.4020760443813043 
4.220000000003504, -1.4014509904043932 
4.23000000000348, -1.4006181805749756 
4.240000000003457, -1.3996249799179745 
4.250000000003434, -1.3985425119790844 
4.26000000000341, -1.3974704636655386 
4.270000000003387, -1.3965300122469866 
4.280000000003364, -1.395832288457156 
4.2900000000033405, -1.3954228263954698 
4.300000000003317, -1.395245583622862 
4.310000000003294, -1.39517322789238 
4.320000000003271, -1.3950718398955178 
4.330000000003247, -1.394832506181801 
4.340000000003224, -1.3943557640283994 
4.350000000003201, -1.393513503834649 
4.360000000003177, -1.3921065378187398 
4.370000000003154, -1.3898285322146406 
4.380000000003131, -1.3862642989755207 
4.390000000003107, -1.380995088641344 
4.400000000003084, -1.3739219340982145 
4.410000000003061, -1.3657996850661145 
4.4200000000030375, -1.3584736237883221 
4.430000000003014, -1.3539286546693594 
4.440000000002991, -1.3526256955036078 
4.450000000002968, -1.3533335556170136 
4.460000000002944, -1.3545789447410899 
4.470000000002921, -1.355584962243432 
4.480000000002898, -1.3561636556623455 
4.490000000002874, -1.356357911121574 
4.500000000002851, -1.3562400504386722 
4.510000000002828, -1.3558475292879881 
4.520000000002804, -1.3551787341600616 
4.530000000002781, -1.3542252878540841 
4.540000000002758, -1.3530676839101057 
4.5500000000027345, -1.35206847721814 
4.560000000002711, -1.3520469177111987 
4.570000000002688, -1.35401206030912 
4.580000000002665, -1.3582917839941813 
4.590000000002641, -1.364029290415855 
4.600000000002618, -1.3698326965130505 
4.610000000002595, -1.374691637887097 
4.620000000002571, -1.3782474411977785 
4.630000000002548, -1.3805832447769792 
4.640000000002525, -1.381956713336003 
4.6500000000025015, -1.3826370708774811 
4.660000000002478, -1.3828398551715284 
4.670000000002455, -1.3827184757562583 
4.6800000000024315, -1.3823820596748528 
4.690000000002408, -1.3819228834074022 
4.700000000002385, -1.3814410227178038 
4.710000000002362, -1.3810487135161722 
4.720000000002338, -1.3808415731389747 
4.730000000002315, -1.3808568849935314 
4.740000000002292, -1.3810612727360054 
4.750000000002268, -1.3813751058889499 
4.760000000002245, -1.3817046366360304 
4.770000000002222, -1.3819634337489826 
4.7800000000021985, -1.3820817158562448 
4.790000000002175, -1.3820057938810355 
4.800000000002152, -1.3816925779116098 
4.810000000002129, -1.3811051725047425 
4.820000000002105, -1.3802125756196348 
4.830000000002082, -1.378993663113774 
4.840000000002059, -1.3774457810657261 
4.850000000002035, -1.3756001756044562 
4.860000000002012, -1.3735464235907668 
4.870000000001989, -1.3714594558127586 
4.880000000001965, -1.3695983759973962 
4.890000000001942, -1.368225543903358 
4.900000000001919, -1.3674547202375182 
4.9100000000018955, -1.3671714316582013 
4.920000000001872, -1.3671308251029093 
4.930000000001849, -1.36711174122174 
4.940000000001826, -1.3669748167232645 
