t, s[1].omega / s[0].omega 
0, -1.2099974314287594 
0.009999999999999995, -1.2096463758394886 
0.019999999999999934, -1.2091137545807809 
0.029999999999999874, -1.2084147362764242 
0.04000000000000012, -1.2075761754392516 
0.050000000000000405, -1.2066390778065899 
0.06000000000000069, -1.205660703879295 
0.07000000000000098, -1.2047133342689598 
0.08000000000000126, -1.2038760912705142 
0.09000000000000155, -1.2032180355072142 
0.10000000000000184, -1.202775799447161 
0.11000000000000212, -1.2025368295174963 
0.12000000000000241, -1.2024419178851518 
0.130000000000002, -1.2024075752708305 
0.1400000000000009, -1.2023510996475735 
0.1499999999999998, -1.2022018907151943 
0.1599999999999987, -1.2018979491286506 
0.1699999999999976, -1.2013765182909133 
0.1799999999999965, -1.2005676756188428 
0.1899999999999954, -1.199396177245533 
0.1999999999999943, -1.197793567994157 
0.2099999999999932, -1.1957190582291903 
0.2199999999999921, -1.1931846771299333 
0.229999999999991, -1.190279543163213 
0.2399999999999899, -1.187187377621738 
0.2499999999999888, -1.1841841461681955 
0.2599999999999877, -1.181591405263093 
0.2699999999999866, -1.1796716498943576 
0.2799999999999855, -1.178510356885962 
0.2899999999999844, -1.1779825815268372 
0.2999999999999833, -1.1778428630303444 
0.3099999999999822, -1.1778535156997265 
0.3199999999999811, -1.1778518426827955 
0.32999999999998, -1.1777449503403001 
0.3399999999999789, -1.17747378201345 
0.3499999999999778, -1.1769768487504693 
0.35999999999997667, -1.1761603344729337 
0.36999999999997557, -1.1748719290997802 
0.37999999999997447, -1.1728805095846 
0.38999999999997337, -1.169879894424552 
0.39999999999997227, -1.1655588553030207 
0.40999999999997117, -1.1597872612195543 
0.41999999999997006, -1.1528976457400462 
0.42999999999996896, -1.1458557040526094 
0.43999999999996786, -1.139991254432369 
0.44999999999996676, -1.1362787359266386 
0.45999999999996566, -1.1347731482898913 
0.46999999999996456, -1.134769022729528 
0.47999999999996346, -1.1354132882469445 
0.48999999999996235, -1.1361284257566497 
0.49999999999996125, -1.136658015653076 
0.5099999999999602, -1.1369387274034666 
0.519999999999959, -1.1369802877378623 
0.529999999999958, -1.13679914511649 
0.5399999999999568, -1.1363889834548613 
0.5499999999999557, -1.135706537217051 
0.5599999999999546, -1.134662237977502 
0.5699999999999535, -1.1331185626156604 
0.5799999999999524, -1.1309174672303406 
0.5899999999999513, -1.1279820979809922 
0.5999999999999502, -1.1245333272663853 
0.6099999999999491, -1.1213347484480043 
0.619999999999948, -1.1196167270026254 
0.6299999999999469, -1.1203644649928006 
0.6399999999999458, -1.1234632486271916 
0.6499999999999447, -1.127736763879713 
0.6599999999999436, -1.1318633049130533 
0.6699999999999425, -1.1350976907400743 
0.6799999999999414, -1.1373026799670014 
0.6899999999999403, -1.1386501222158634 
0.6999999999999392, -1.1393750695198108 
0.7099999999999381, -1.1396685924297782 
0.719999999999937, -1.1396558397635252 
0.7299999999999359, -1.13940536668859 
0.7399999999999348, -1.1389451901643204 
0.7499999999999337, -1.1382819182472128 
0.7599999999999326, -1.137431856634167 
0.7699999999999315, -1.1364804986807238 
0.7799999999999304, -1.1356783360281468 
0.7899999999999293, -1.1355273165903896 
0.7999999999999282, -1.1367173810789222 
0.8099999999999271, -1.1397864065432075 
0.819999999999926, -1.1446738206853135 
0.8299999999999249, -1.1506154970983382 
0.8399999999999238, -1.156541250370926 
0.8499999999999227, -1.161602146797228 
0.8599999999999216, -1.1654204992581048 
0.8699999999999205, -1.1680209267694597 
0.8799999999999194, -1.169632181802827 
0.8899999999999183, -1.1705217427870571 
0.8999999999999172, -1.170912640418179 
0.9099999999999161, -1.1709629594213309 
0.919999999999915, -1.1707759696971225 
0.9299999999999139, -1.170421217974057 
0.9399999999999128, -1.1699603389297453 
0.9499999999999117, -1.1694770041663474 
0.9599999999999106, -1.1691048475508974 
0.9699999999999095, -1.169031413791748 
0.9799999999999084, -1.1694500024449774 
0.9899999999999073, -1.1704680770862286 
0.9999999999999062, -1.1720401214040814 
1.0099999999999052, -1.1739848157644217 
1.019999999999904, -1.176064580041014 
1.029999999999903, -1.178061453952141 
1.039999999999902, -1.1798150338257494 
1.0499999999999008, -1.1812292989665827 
1.0599999999998997, -1.1822654534645765 
1.0699999999998986, -1.1829300616336664 
1.0799999999998975, -1.1832607943120856 
1.0899999999998964, -1.1833114666252147 
1.0999999999998953, -1.1831399470959845 
1.1099999999998942, -1.182802461746692 
1.119999999999893, -1.1823552218593383 
1.129999999999892, -1.181860702917366 
1.1399999999998909, -1.1813921933874085 
1.1499999999998898, -1.1810284691955402 
1.1599999999998887, -1.1808355955206236 
1.1699999999998876, -1.1808450170005669 
1.1799999999998865, -1.1810433819605561 
1.1899999999998854, -1.1813801124922976 
1.1999999999998843, -1.1817853219168248 
1.2099999999998832, -1.1821875379912432 
1.219999999999882, -1.182525235903298 
1.229999999999881, -1.1827512671339457 
1.2399999999998799, -1.1828325231866 
1.2499999999998788, -1.1827479593739558 
1.2599999999998777, -1.1824869328040633 
1.2699999999998766, -1.1820483905073285 
1.2799999999998755, -1.1814408564994918 
1.2899999999998744, -1.180683230852328 
1.2999999999998733, -1.1798064852365047 
1.3099999999998722, -1.1788558354191738 
1.319999999999871, -1.1778916721653927 
1.32999999999987, -1.1769862092434362 
1.3399999999998689, -1.1762130333020469 
1.3499999999998678, -1.1756294845379955 
1.3599999999998666, -1.1752570780602318 
1.3699999999998655, -1.175070919099184 
1.3799999999998644, -1.1750075037472079 
1.3899999999998633, -1.1749868085515198 
1.3999999999998622, -1.1749327531214084 
1.4099999999998611, -1.174780694238096 
1.41999999999986, -1.174473548533072 
1.429999999999859, -1.173954749155763 
1.4399999999998578, -1.17316512213093 
1.4499999999998567, -1.172047198655522 
1.4599999999998556, -1.1705568338177381 
1.4699999999998545, -1.1686788189174482 
1.4799999999998534, -1.1664421023786073 
1.4899999999998523, -1.1639319331624496 
1.4999999999998512, -1.1612971340015932 
1.5099999999998501, -1.1587459826036084 
1.519999999999849, -1.1565161896993008 
1.529999999999848, -1.1548085648933901 
1.5399999999998468, -1.1537063330363608 
1.5499999999998457, -1.1531393757742037 
1.5599999999998446, -1.152930935660401 
1.5699999999998435, -1.152887246281011 
1.5799999999998424, -1.1528592529803956 
1.5899999999998413, -1.1527516028073153 
1.5999999999998402, -1.152500163387629 
1.6099999999998391, -1.152043002881793 
1.619999999999838, -1.151294860340281 
1.629999999999837, -1.1501264252232128 
1.6399999999998358, -1.148351765903166 
1.6499999999998347, -1.1457368854771377 
1.6599999999998336, -1.142053175089869 
1.6699999999998325, -1.1371958761446774 
1.6799999999998314, -1.1313473987133271 
1.6899999999998303, -1.12508868706658 
1.6999999999998292, -1.1193113857690042 
1.709999999999828, -1.1148713555592038 
1.719999999999827, -1.1121710008989116 
1.729999999999826, -1.1110135604088647 
1.7399999999998248, -1.1108424418517502 
1.7499999999998237, -1.1111009611706097 
1.7599999999998226, -1.1114252201685235 
1.7699999999998215, -1.111642192698614 
1.7799999999998204, -1.11169097035149 
1.7899999999998193, -1.111552136171842 
1.7999999999998182, -1.1112045209276251 
1.809999999999817, -1.1105996549778738 
1.819999999999816, -1.1096419366526435 
1.8299999999998149, -1.108169243197467 
1.8399999999998138, -1.1059405369473672 
1.8499999999998127, -1.102658153832867 
1.8599999999998116, -1.0980798704659815 
1.8699999999998105, -1.0922675776946353 
1.8799999999998094, -1.085882104393824 
1.8899999999998083, -1.0801827215710191 
1.8999999999998072, -1.0764318336041647 
1.909999999999806, -1.0750812279090376 
1.919999999999805, -1.0755815844833923 
1.9299999999998039, -1.0769520876310785 
1.9399999999998028, -1.0784083100263666 
1.9499999999998017, -1.0795660718445839 
1.9599999999998006, -1.0803331071162832 
1.9699999999997995, -1.080747184770622 
1.9799999999997984, -1.0808735931932962 
1.9899999999997973, -1.0807607165107336 
1.9999999999997962, -1.0804253781876043 
2.0099999999998173, -1.0798480313718009 
2.0199999999998384, -1.0789697843297126 
2.0299999999998595, -1.0776931267606444 
2.0399999999998806, -1.0758999515168355 
2.0499999999999017, -1.0735160178241918 
2.059999999999923, -1.0706549326587256 
2.069999999999944, -1.0678145952771418 
2.079999999999965, -1.0659321953872278 
2.089999999999986, -1.066006522143312 
2.100000000000007, -1.0683743704299278 
2.1100000000000283, -1.0723554729898181 
2.1200000000000494, -1.0767346700533702 
2.1300000000000705, -1.080536600525312 
2.1400000000000916, -1.083358087426236 
2.1500000000001127, -1.085227875336314 
2.160000000000134, -1.0863491094438558 
2.170000000000155, -1.0869341539789257 
2.180000000000176, -1.0871430508459456 
2.190000000000197, -1.0870761034457188 
2.2000000000002182, -1.0867838429200178 
2.2100000000002393, -1.086279328703966 
2.2200000000002604, -1.0855517201272233 
2.2300000000002815, -1.0845894381478285 
2.2400000000003026, -1.0834295063672001 
2.2500000000003237, -1.0822500637554087 
2.260000000000345, -1.0814890184212271 
2.270000000000366, -1.0818770943862022 
2.280000000000387, -1.0841964169856046 
2.290000000000408, -1.088753071709343 
2.3000000000004293, -1.0949842889429968 
2.3100000000004504, -1.1016800542580167 
2.3200000000004715, -1.107662144352704 
2.3300000000004926, -1.1122911213280724 
2.3400000000005137, -1.115494912990447 
2.3500000000005348, -1.1175189160349315 
2.360000000000556, -1.1186843030666782 
2.370000000000577, -1.119263273235437 
2.380000000000598, -1.1194467791254195 
2.390000000000619, -1.1193544396776673 
2.4000000000006403, -1.1190560340050333 
2.4100000000006614, -1.1185948725868982 
2.4200000000006825, -1.1180154308400605 
2.4300000000007036, -1.1174018215922423 
2.4400000000007247, -1.1169266572182264 
2.450000000000746, -1.1168839855933181 
2.460000000000767, -1.1176473187085394 
2.470000000000788, -1.119514694577298 
2.480000000000809, -1.1225171091796378 
2.49000000000083, -1.1263518392633785 
2.5000000000008513, -1.1305036700417488 
2.5100000000008724, -1.1344491214109365 
2.5200000000008935, -1.1378099464653573 
2.5300000000009146, -1.14040692381255 
2.5400000000009357, -1.1422339332725628 
2.550000000000957, -1.143392803764693 
2.560000000000978, -1.1440259014305245 
2.570000000000999, -1.1442693236968071 
2.58000000000102, -1.1442320642032322 
2.5900000000010412, -1.1439951361523633 
2.6000000000010624, -1.143622656112016 
2.6100000000010835, -1.1431794766852745 
2.6200000000011046, -1.1427504505580743 
2.6300000000011257, -1.1424513805415324 
2.6400000000011468, -1.142416204539149 
2.650000000001168, -1.1427542785072669 
2.660000000001189, -1.143500436431045 
2.67000000000121, -1.1445967929149528 
2.680000000001231, -1.145918995730913 
2.6900000000012523, -1.1473218199562463 
2.7000000000012734, -1.1486744385528733 
2.7100000000012945, -1.1498761345866853 
2.7200000000013156, -1.1508586797435112 
2.7300000000013367, -1.151583758924403 
2.740000000001358, -1.1520395712776876 
2.750000000001379, -1.152236686658998 
2.7600000000014, -1.1522022825951272 
2.770000000001421, -1.1519736343392633 
2.780000000001442, -1.1515934825029395 
2.7900000000014633, -1.1511094102059722 
2.8000000000014844, -1.1505766227788232 
2.8100000000015055, -1.1500599985008775 
2.8200000000015266, -1.1496294677737553 
2.8300000000015477, -1.149346102610934 
2.840000000001569, -1.1492445540093812 
2.85000000000159, -1.1493225557882165 
2.860000000001611, -1.1495434020213164 
2.870000000001632, -1.1498484068013306 
2.8800000000016532, -1.1501721952276296 
2.8900000000016743, -1.150454739598393 
2.9000000000016954, -1.1506474553571429 
2.9100000000017165, -1.1507143231422161 
2.9200000000017377, -1.1506307724240383 
2.9300000000017588, -1.1503824260420994 
2.94000000000178, -1.1499643920681666 
2.950000000001801, -1.1493810927675496 
2.960000000001822, -1.1486466782380873 
2.970000000001843, -1.1477862023216951 
2.9800000000018643, -1.14683745232124 
2.9900000000018854, -1.1458524230606002 
3.0000000000019065, -1.144896161123846 
3.0100000000019276, -1.1440401535483302 
3.0200000000019487, -1.1433488633276727 
3.03000000000197, -1.1428617836131656 
3.040000000001991, -1.1425785411918559 
3.050000000002012, -1.1424569659290587 
3.060000000002033, -1.1424273471058934 
3.070000000002054, -1.142413531325523 
3.0800000000020753, -1.1423473475575474 
3.0900000000020964, -1.1421712736553755 
3.1000000000021175, -1.1418338927456344 
3.1100000000021386, -1.1412853535542382 
3.1200000000021597, -1.1404776870580213 
3.130000000002181, -1.1393711972270724 
3.140000000002202, -1.1379447563965335 
3.150000000002223, -1.1362060282286497 
3.160000000002244, -1.134198766926134 
3.1700000000022652, -1.1320070293476003 
3.1800000000022863, -1.1297564081090543 
3.1900000000023074, -1.1276081916074485 
3.2000000000023285, -1.1257372671876904 
3.2100000000023496, -1.1242879240111099 
3.2200000000023707, -1.1233211420557099 
3.230000000002392, -1.122789051569219 
3.240000000002413, -1.1225618662817172 
3.250000000002434, -1.1224875345985532 
3.260000000002455, -1.1224391390964386 
3.2700000000024763, -1.1223275529348695 
3.2800000000024974, -1.122088553531507 
3.2900000000025185, -1.1216617612693818 
3.3000000000025396, -1.120971446859111 
3.3100000000025607, -1.1199132246724717 
3.3200000000025818, -1.118351074275227 
3.330000000002603, -1.1161328965725852 
3.340000000002624, -1.113133196736133 
3.350000000002645, -1.1093214481587403 
3.360000000002666, -1.1048346678017353 
3.3700000000026873, -1.1000149866072872 
3.3800000000027084, -1.0953709268159557 
3.3900000000027295, -1.0914425222865303 
3.4000000000027506, -1.088606170629601 
3.4100000000027717, -1.086928925874329 
3.420000000002793, -1.0861834598731215 
3.430000000002814, -1.0860083905107332 
3.440000000002835, -1.0860781301927425 
3.450000000002856, -1.0861790833938225 
3.460000000002877, -1.0861985498042792 
3.4700000000028983, -1.086080892345139 
3.4800000000029194, -1.085787029361693 
3.4900000000029405, -1.0852652556505629 
3.5000000000029616, -1.0844289644436786 
3.5100000000029827, -1.0831369110310498 
3.520000000003004, -1.0811787692229142 
3.530000000003025, -1.0782820596671432 
3.540000000003046, -1.0741727872007782 
3.550000000003067, -1.0687214752653174 
3.5600000000030882, -1.0621502854250668 
3.5700000000031094, -1.0551616011328775 
3.5800000000031305, -1.0487922299312937 
3.5900000000031516, -1.0439705936399075 
3.6000000000031727, -1.0410727125054646 
3.6100000000031938, -1.0398381660891542 
3.620000000003215, -1.0396639239305818 
3.630000000003236, -1.0399664308436152 
3.640000000003257, -1.0403620117551653 
3.650000000003278, -1.040663031910179 
3.6600000000032993, -1.040801925510004 
3.6700000000033204, -1.0407615027851003 
3.6800000000033415, -1.0405315212338004 
3.6900000000033626, -1.040084088423425 
3.7000000000033837, -1.0393565866902557 
3.710000000003405, -1.0382349191027305 
3.720000000003426, -1.0365364325729045 
3.730000000003447, -1.0340027777640244 
3.740000000003468, -1.0303310813209845 
3.750000000003489, -1.0252882487670378 
3.7600000000035103, -1.018928283679217 
3.7700000000035314, -1.011814295394705 
3.7800000000035525, -1.004999075968954 
3.7900000000035736, -0.9996031839605711 
3.8000000000035947, -0.9962399202455634 
3.810000000003616, -0.9947805920089772 
3.820000000003637, -0.9946115850259101 
3.830000000003658, -0.9950612614887284 
3.840000000003679, -0.9956568501514441 
3.8500000000037002, -0.9961563748340637 
3.8600000000037213, -0.9964727645248915 
3.8700000000037424, -0.9965919611112245 
3.8800000000037635, -0.9965196000453711 
3.8900000000037847, -0.996252572124237 
3.9000000000038058, -0.9957631310109806 
3.910000000003827, -0.9949860440367159 
3.920000000003848, -0.9938041034020829 
3.930000000003869, -0.9920332368395165 
3.94000000000389, -0.989418566078494 
3.9500000000039113, -0.9856689967613811 
3.9600000000039324, -0.9805697852703131 
3.9700000000039535, -0.9741829129202857 
3.9800000000039746, -0.9670367551624199 
3.9900000000039957, -0.9600938966172634 
4.000000000004016, -0.9543836590523433 
4.010000000003993, -0.9505183684432937 
4.02000000000397, -0.9484788605953304 
4.030000000003946, -0.9477907487892973 
4.040000000003923, -0.9478643264066433 
4.0500000000039, -0.9482340603768129 
4.0600000000038765, -0.9486236230316483 
4.070000000003853, -0.9489050756351094 
4.08000000000383, -0.9490338638644742 
4.090000000003807, -0.9489984709758282 
4.100000000003783, -0.9487898694945045 
4.11000000000376, -0.9483836284056937 
4.120000000003737, -0.9477270481374063 
4.130000000003713, -0.9467269352357283 
4.14000000000369, -0.9452383792648252 
4.150000000003667, -0.9430622439237153 
4.1600000000036434, -0.9399691326619918 
4.17000000000362, -0.9357724179738465 
4.180000000003597, -0.9304524524442142 
4.1900000000035735, -0.9242772053070099 
4.20000000000355, -0.917816126352399 
4.210000000003527, -0.9117875019945216 
4.220000000003504, -0.9068078759377378 
4.23000000000348, -0.9031937606370134 
4.240000000003457, -0.9009182589342654 
4.250000000003434, -0.8997113277063225 
4.26000000000341, -0.8992153832375701 
4.270000000003387, -0.8991087559636473 
4.280000000003364, -0.8991606885587965 
4.2900000000033405, -0.899230551936205 
4.300000000003317, -0.899241440683636 
4.310000000003294, -0.8991508447440542 
4.320000000003271, -0.8989277110148308 
4.330000000003247, -0.898536719784237 
4.340000000003224, -0.8979281291739738 
4.350000000003201, -0.8970328301466537 
4.360000000003177, -0.8957651815359216 
4.370000000003154, -0.8940383276577238 
4.380000000003131, -0.8917940556501642 
4.390000000003107, -0.8890390582885284 
4.400000000003084, -0.8858680089871094 
4.410000000003061, -0.8824560663394877 
4.4200000000030375, -0.8790228233541798 
4.430000000003014, -0.8757870329609014 
4.440000000002991, -0.872929988533498 
4.450000000002968, -0.870573064244527 
4.460000000002944, -0.8687675376707684 
4.470000000002921, -0.8674955677136431 
4.480000000002898, -0.8666829739729247 
4.490000000002874, -0.8662219045968612 
4.500000000002851, -0.8659965229255212 
4.510000000002828, -0.8659031202695949 
4.520000000002804, -0.8658597267323314 
4.530000000002781, -0.8658059714187776 
4.540000000002758, -0.8656973979611255 
4.5500000000027345, -0.8654987137048191 
4.560000000002711, -0.8651791453962414 
4.570000000002688, -0.8647116452273338 
4.580000000002665, -0.8640762324255917 
4.590000000002641, -0.8632657667092628 
4.600000000002618, -0.8622904813520901 
4.610000000002595, -0.861177707263573 
4.620000000002571, -0.8599664301890927 
4.630000000002548, -0.8587000612177862 
4.640000000002525, -0.8574213920433049 
4.6500000000025015, -0.8561710930408483 
4.660000000002478, -0.8549883356005743 
4.670000000002455, -0.8539112216445721 
4.6800000000024315, -0.8529754009578252 
4.690000000002408, -0.8522105388674268 
4.700000000002385, -0.8516355655081019 
4.710000000002362, -0.85125453938638 
4.720000000002338, -0.8510550669260748 
4.730000000002315, -0.851010286849457 
4.740000000002292, -0.8510838361147218 
4.750000000002268, -0.8512359376469997 
4.760000000002245, -0.8514286136064643 
4.770000000002222, -0.8516289533743739 
4.7800000000021985, -0.8518104863128231 
4.790000000002175, -0.8519532220138668 
4.800000000002152, -0.8520427593178903 
4.810000000002129, -0.8520686477279037 
4.820000000002105, -0.8520224995562835 
4.830000000002082, -0.8518969363129981 
4.840000000002059, -0.8516863167998625 
4.850000000002035, -0.8513889792380687 
4.860000000002012, -0.851009563024036 
4.870000000001989, -0.850560182716609 
4.880000000001965, -0.85006052357998 
4.890000000001942, -0.849537817037797 
4.900000000001919, -0.8490273011563723 
4.9100000000018955, -0.8485726422804296 
4.920000000001872, -0.8482248544069962 
4.930000000001849, -0.8480382710287809 
4.940000000001826, -0.8480633824782025 
