t, s[1].omega / s[0].omega 
0, -0.6999976916407394 
0.009999999999999995, -0.6997520031001667 
0.019999999999999934, -0.6994745219640688 
0.029999999999999874, -0.699159719230608 
0.04000000000000012, -0.6988026564910881 
0.050000000000000405, -0.6984025751679798 
0.06000000000000069, -0.6979648225773756 
0.07000000000000098, -0.6975013030760132 
0.08000000000000126, -0.697030666591034 
0.09000000000000155, -0.696579308629582 
0.10000000000000184, -0.6961835088255464 
0.11000000000000212, -0.6958922925530129 
0.12000000000000241, -0.6957700806762689 
0.130000000000002, -0.695897900409758 
0.1400000000000009, -0.6963718567542768 
0.1499999999999998, -0.6972976439461834 
0.1599999999999987, -0.6987798802904299 
0.1699999999999976, -0.7009047554128741 
0.1799999999999965, -0.7037143461821256 
0.1899999999999954, -0.7071730439503849 
0.1999999999999943, -0.711134231931597 
0.2099999999999932, -0.715328814852014 
0.2199999999999921, -0.7194040146505951 
0.229999999999991, -0.7230177856613321 
0.2399999999999899, -0.72594358313443 
0.2499999999999888, -0.7281179919428475 
0.2599999999999877, -0.729609849595349 
0.2699999999999866, -0.7305508024826572 
0.2799999999999855, -0.73107627221496 
0.2899999999999844, -0.7312952241474491 
0.2999999999999833, -0.7312821763774779 
0.3099999999999822, -0.7310792850304332 
0.3199999999999811, -0.7307002327366192 
0.32999999999998, -0.7301320700425494 
0.3399999999999789, -0.7293336352162425 
0.3499999999999778, -0.7282303192008264 
0.35999999999997667, -0.7267060426295178 
0.36999999999997557, -0.7245960174128692 
0.37999999999997447, -0.7216904448600485 
0.38999999999997337, -0.7177707914252694 
0.39999999999997227, -0.7127071460638291 
0.40999999999997117, -0.7066138869996356 
0.41999999999997006, -0.699965625857463 
0.42999999999996896, -0.6935121499810809 
0.43999999999996786, -0.6879771582237464 
0.44999999999996676, -0.6837681192485427 
0.45999999999996566, -0.6809086992593051 
0.46999999999996456, -0.679166287717037 
0.47999999999996346, -0.6782215101620127 
0.48999999999996235, -0.6777814093616625 
0.49999999999996125, -0.6776241947388754 
0.5099999999999602, -0.677600843622659 
0.519999999999959, -0.6776189691021606 
0.529999999999958, -0.6776238089108034 
0.5399999999999568, -0.6775824249940203 
0.5499999999999557, -0.6774724956644947 
0.5599999999999546, -0.6772753461182115 
0.5699999999999535, -0.6769727119873661 
0.5799999999999524, -0.6765471096244464 
0.5899999999999513, -0.675985700390194 
0.5999999999999502, -0.6752864429654873 
0.6099999999999491, -0.6744633146295785 
0.619999999999948, -0.6735464498456262 
0.6299999999999469, -0.672575546722868 
0.6399999999999458, -0.6715897341400009 
0.6499999999999447, -0.6706196080797924 
0.6599999999999436, -0.6696849129656832 
0.6699999999999425, -0.6687971865999411 
0.6799999999999414, -0.6679644323015743 
0.6899999999999403, -0.6671952887946544 
0.6999999999999392, -0.666501670989998 
0.7099999999999381, -0.6658999660032701 
0.719999999999937, -0.6654111990979016 
0.7299999999999359, -0.665060477873402 
0.7399999999999348, -0.6648758924723801 
0.7499999999999337, -0.6648870539047069 
0.7599999999999326, -0.6651235189268487 
0.7699999999999315, -0.6656133141248709 
0.7799999999999304, -0.666381503597879 
0.7899999999999293, -0.6674482241588507 
0.7999999999999282, -0.6688249803766111 
0.8099999999999271, -0.670507645103916 
0.819999999999926, -0.6724653618048837 
0.8299999999999249, -0.6746275256904449 
0.8399999999999238, -0.6768763853093284 
0.8499999999999227, -0.6790567843196131 
0.8599999999999216, -0.6810089400863328 
0.8699999999999205, -0.6826123291439576 
0.8799999999999194, -0.6838146589408493 
0.8899999999999183, -0.684629442262409 
0.8999999999999172, -0.6851102048953039 
0.9099999999999161, -0.6853214217962819 
0.919999999999915, -0.6853190985110997 
0.9299999999999139, -0.6851422396368425 
0.9399999999999128, -0.6848109134253082 
0.9499999999999117, -0.6843266506544751 
0.9599999999999106, -0.6836726899199267 
0.9699999999999095, -0.6828130590106389 
0.9799999999999084, -0.6816903431853855 
0.9899999999999073, -0.6802225520257255 
0.9999999999999062, -0.6783004104237763 
1.0099999999999052, -0.6757893554509862 
1.019999999999904, -0.6725487985997636 
1.029999999999903, -0.6684934773654383 
1.039999999999902, -0.663711019491382 
1.0499999999999008, -0.6585703499304075 
1.0599999999998997, -0.6536689527310872 
1.0699999999998986, -0.6495775467024851 
1.0799999999998975, -0.6465877854842603 
1.0899999999998964, -0.6446673126326626 
1.0999999999998953, -0.6435875332987763 
1.1099999999998942, -0.6430733839452125 
1.119999999999893, -0.6428911949436282 
1.129999999999892, -0.6428748778931844 
1.1399999999998909, -0.6429189394757827 
1.1499999999998898, -0.642961088763037 
1.1599999999998887, -0.6429655261293225 
1.1699999999998876, -0.6429103731944319 
1.1799999999998865, -0.6427793931583821 
1.1899999999998854, -0.6425573442498935 
1.1999999999998843, -0.6422285715866888 
1.2099999999998832, -0.6417788344294654 
1.219999999999882, -0.6412000990228832 
1.229999999999881, -0.6404965960831068 
1.2399999999998799, -0.6396885426967104 
1.2499999999998788, -0.6388099008942872 
1.2599999999998777, -0.6379000238721142 
1.2699999999998766, -0.6369936024332573 
1.2799999999998755, -0.6361143793915008 
1.2899999999998744, -0.6352748439587304 
1.2999999999998733, -0.6344802111892852 
1.3099999999998722, -0.6337335533187847 
1.319999999999871, -0.6330398989589615 
1.32999999999987, -0.6324087264334158 
1.3399999999998689, -0.6318552668223781 
1.3499999999998678, -0.6314011907931386 
1.3599999999998666, -0.6310749891136204 
1.3699999999998655, -0.6309120843746937 
1.3799999999998644, -0.6309545944678864 
1.3899999999998633, -0.631250659066827 
1.3999999999998622, -0.6318531849756177 
1.4099999999998611, -0.6328175818951969 
1.41999999999986, -0.6341974157262223 
1.429999999999859, -0.6360359825547008 
1.4399999999998578, -0.638351234294998 
1.4499999999998567, -0.6411129425867521 
1.4599999999998556, -0.6442170376535987 
1.4699999999998545, -0.6474729886962979 
1.4799999999998534, -0.6506268044814524 
1.4899999999998523, -0.6534266923256861 
1.4999999999998512, -0.6557004514195581 
1.5099999999998501, -0.6573941988085548 
1.519999999999849, -0.658553430292989 
1.529999999999848, -0.6592732807759263 
1.5399999999998468, -0.6596540867292014 
1.5499999999998457, -0.6597772219964947 
1.5599999999998446, -0.6596974270074673 
1.5699999999998435, -0.6594428621231707 
1.5799999999998424, -0.6590164586479906 
1.5899999999998413, -0.6583952156647097 
1.5999999999998402, -0.6575258839822532 
1.6099999999998391, -0.6563165028552179 
1.619999999999838, -0.6546250386883993 
1.629999999999837, -0.652251451794383 
1.6399999999998358, -0.6489507036782876 
1.6499999999998347, -0.6444977654519535 
1.6599999999998336, -0.6388255505470399 
1.6699999999998325, -0.6321827117264285 
1.6799999999998314, -0.6251613836348372 
1.6899999999998303, -0.6184985991718531 
1.6999999999998292, -0.6127814520876792 
1.709999999999828, -0.6082817495873369 
1.719999999999827, -0.6049835856084635 
1.729999999999826, -0.602705016065898 
1.7399999999998248, -0.6012108417840911 
1.7499999999998237, -0.6002794903825699 
1.7599999999998226, -0.5997302839515255 
1.7699999999998215, -0.5994276992666439 
1.7799999999998204, -0.5992754213261717 
1.7899999999998193, -0.5992073844537307 
1.7999999999998182, -0.5991791698124518 
1.809999999999817, -0.5991610904743998 
1.819999999999816, -0.5991333638139295 
1.8299999999998149, -0.5990833703587509 
1.8399999999998138, -0.5990047066292579 
1.8499999999998127, -0.5988972824563674 
1.8599999999998116, -0.5987671348731058 
1.8699999999998105, -0.5986244746888499 
1.8799999999998094, -0.5984794315490112 
1.8899999999998083, -0.5983368451393996 
1.8999999999998072, -0.5981928427713334 
1.909999999999806, -0.5980354108760884 
1.919999999999805, -0.5978488267302564 
1.9299999999998039, -0.5976194295427573 
1.9399999999998028, -0.5973397290226692 
1.9499999999998017, -0.5970095524548573 
1.9599999999998006, -0.5966351259822468 
1.9699999999997995, -0.5962279646519976 
1.9799999999997984, -0.5958051145819654 
1.9899999999997973, -0.5953915821644864 
1.9999999999997962, -0.5950253595928114 
2.0099999999998173, -0.5947653136847665 
2.0199999999998384, -0.5947019532095922 
2.0299999999998595, -0.5949701185030494 
2.0399999999998806, -0.5957600367401341 
2.0499999999999017, -0.5973177694711747 
2.059999999999923, -0.5999175760685203 
2.069999999999944, -0.6037823625797123 
2.079999999999965, -0.6089430929333937 
2.089999999999986, -0.6150911208822258 
2.100000000000007, -0.6215645854578512 
2.1100000000000283, -0.6275769514007745 
2.1200000000000494, -0.6325586505876799 
2.1300000000000705, -0.6363277364036458 
2.1400000000000916, -0.639003028153357 
2.1500000000001127, -0.6408228122520885 
2.160000000000134, -0.6420198130474872 
2.170000000000155, -0.6427750977428741 
2.180000000000176, -0.6432152646589273 
2.190000000000197, -0.643422960670968 
2.2000000000002182, -0.6434476734479134 
2.2100000000002393, -0.6433132404987367 
2.2200000000002604, -0.6430219365710432 
2.2300000000002815, -0.6425560366188526 
2.2400000000003026, -0.6418784639497195 
2.2500000000003237, -0.6409353823196283 
2.260000000000345, -0.6396651913820237 
2.270000000000366, -0.6380182722539043 
2.280000000000387, -0.6359860783265762 
2.290000000000408, -0.6336261770625716 
2.3000000000004293, -0.6310627295434967 
2.3100000000004504, -0.6284549843833884 
2.3200000000004715, -0.6259520065656214 
2.3300000000004926, -0.6236608487635692 
2.3400000000005137, -0.6216394842616582 
2.3500000000005348, -0.6199071045948565 
2.360000000000556, -0.6184592802140069 
2.370000000000577, -0.6172802594597779 
2.380000000000598, -0.6163503980439822 
2.390000000000619, -0.6156496880398908 
2.4000000000006403, -0.6151590404381504 
2.4100000000006614, -0.6148606479019452 
2.4200000000006825, -0.6147382112963106 
2.4300000000007036, -0.6147773574442306 
2.4400000000007247, -0.6149662661317876 
2.450000000000746, -0.6152963313406264 
2.460000000000767, -0.6157625352479964 
2.470000000000788, -0.6163630340148758 
2.480000000000809, -0.6170972275046239 
2.49000000000083, -0.6179614960140588 
2.5000000000008513, -0.6189423149046576 
2.5100000000008724, -0.6200081692007571 
2.5200000000008935, -0.6211044148062265 
2.5300000000009146, -0.6221568600513278 
2.5400000000009357, -0.6230867443867532 
2.550000000000957, -0.623831503465179 
2.560000000000978, -0.6243594674182662 
2.570000000000999, -0.6246705492253675 
2.58000000000102, -0.6247854869855451 
2.5900000000010412, -0.6247321491242697 
2.6000000000010624, -0.6245352507554602 
2.6100000000010835, -0.6242109423878233 
2.6200000000011046, -0.6237648789649785 
2.6300000000011257, -0.6231919687944465 
2.6400000000011468, -0.6224766163671055 
2.650000000001168, -0.6215928321804731 
2.660000000001189, -0.6205035909438987 
2.67000000000121, -0.6191580656439231 
2.680000000001231, -0.6174844365618689 
2.6900000000012523, -0.6153786272085394 
2.7000000000012734, -0.6127043944281243 
2.7100000000012945, -0.6093473943657656 
2.7200000000013156, -0.6053532376537352 
2.7300000000013367, -0.6010557295907945 
2.740000000001358, -0.5970022199021281 
2.750000000001379, -0.5936768031981103 
2.7600000000014, -0.591284607445192 
2.770000000001421, -0.5897580423203814 
2.780000000001442, -0.5888911508411183 
2.7900000000014633, -0.5884610730684741 
2.8000000000014844, -0.5882873712755338 
2.8100000000015055, -0.588244276257258 
2.8200000000015266, -0.5882516809438849 
2.8300000000015477, -0.5882610972968071 
2.840000000001569, -0.5882433333207762 
2.85000000000159, -0.5881796208573683 
2.860000000001611, -0.5880560815917246 
2.870000000001632, -0.5878611089968885 
2.8800000000016532, -0.5875853978091649 
2.8900000000016743, -0.5872242699684078 
2.9000000000016954, -0.5867811926123099 
2.9100000000017165, -0.586270193367282 
2.9200000000017377, -0.5857145464826193 
2.9300000000017588, -0.5851409806787025 
2.94000000000178, -0.5845719246473088 
2.950000000001801, -0.5840199826029558 
2.960000000001822, -0.5834872594651305 
2.970000000001843, -0.5829689724453951 
2.9800000000018643, -0.5824586955321702 
2.9900000000018854, -0.5819526961527387 
3.0000000000019065, -0.5814523721066174 
3.0100000000019276, -0.5809653215565694 
3.0200000000019487, -0.5805061960327804 
3.03000000000197, -0.5800982965557646 
3.040000000001991, -0.5797764156069892 
3.050000000002012, -0.5795910508730832 
3.060000000002033, -0.5796138289732374 
3.070000000002054, -0.5799435784417794 
3.0800000000020753, -0.5807116502432501 
3.0900000000020964, -0.5820833125174583 
3.1000000000021175, -0.584248800678609 
3.1100000000021386, -0.5873931558108028 
3.1200000000021597, -0.5916321387957001 
3.130000000002181, -0.5969136317935922 
3.140000000002202, -0.6029243712018836 
3.150000000002223, -0.6090937726408693 
3.160000000002244, -0.6147648411437047 
3.1700000000022652, -0.619451604771339 
3.1800000000022863, -0.622985867739931 
3.1900000000023074, -0.6254670500193329 
3.2000000000023285, -0.6271160836883694 
3.2100000000023496, -0.6281584873044374 
3.2200000000023707, -0.6287730360552982 
3.230000000002392, -0.6290839408865246 
3.240000000002413, -0.629169432481606 
3.250000000002434, -0.6290721869189871 
3.260000000002455, -0.6288065795688197 
3.2700000000024763, -0.6283620095942692 
3.2800000000024974, -0.6277031628078127 
3.2900000000025185, -0.6267693589218806 
3.3000000000025396, -0.6254773404809252 
3.3100000000025607, -0.623734766828792 
3.3200000000025818, -0.6214716108579081 
3.330000000002603, -0.6186863439962239 
3.340000000002624, -0.6154825794988594 
3.350000000002645, -0.6120616798124122 
3.360000000002666, -0.6086643585386584 
3.3700000000026873, -0.6054983320191901 
3.3800000000027084, -0.6026959970819721 
3.3900000000027295, -0.6003129427933512 
3.4000000000027506, -0.5983496377855473 
3.4100000000027717, -0.5967761400887807 
3.420000000002793, -0.5955501056335861 
3.430000000002814, -0.5946270229007047 
3.440000000002835, -0.5939649929139997 
3.450000000002856, -0.5935265686965464 
3.460000000002877, -0.5932793415418579 
3.4700000000028983, -0.5931961424769957 
3.4800000000029194, -0.5932551919322065 
3.4900000000029405, -0.5934402516145012 
3.5000000000029616, -0.593740693498837 
3.5100000000029827, -0.594151271186812 
3.520000000003004, -0.5946711625211372 
3.530000000003025, -0.5953015739160323 
3.540000000003046, -0.5960411196981826 
3.550000000003067, -0.5968788347627435 
3.5600000000030882, -0.597786496450752 
3.5700000000031094, -0.5987144544209692 
3.5800000000031305, -0.5995961118518213 
3.5900000000031516, -0.6003624885021837 
3.6000000000031727, -0.6009606327114848 
3.6100000000031938, -0.6013652698088439 
3.620000000003215, -0.6015779058648001 
3.630000000003236, -0.6016167486802624 
3.640000000003257, -0.6015049080142558 
3.650000000003278, -0.6012618266147634 
3.6600000000032993, -0.600898777269123 
3.6700000000033204, -0.6004170868948513 
3.6800000000033415, -0.5998075044105351 
3.6900000000033626, -0.5990495710806412 
3.7000000000033837, -0.5981100992931745 
3.710000000003405, -0.5969395266094943 
3.720000000003426, -0.5954640998767047 
3.730000000003447, -0.5935724170097861 
3.740000000003468, -0.5911032424893213 
3.750000000003489, -0.5878662498338749 
3.7600000000035103, -0.5837496567828133 
3.7700000000035314, -0.5789055910126046 
3.7800000000035525, -0.5738354683209484 
3.7900000000035736, -0.5691956972499617 
3.8000000000035947, -0.5654657147974197 
3.810000000003616, -0.5627871273323264 
3.820000000003637, -0.5610380150272845 
3.830000000003658, -0.5599873407099398 
3.840000000003679, -0.5594060010660218 
3.8500000000037002, -0.5591132392371119 
3.8600000000037213, -0.5589825997908479 
3.8700000000037424, -0.5589316647647917 
3.8800000000037635, -0.5589087743413935 
3.8900000000037847, -0.5588818035083041 
3.9000000000038058, -0.5588301707443318 
3.910000000003827, -0.5587399088525556 
3.920000000003848, -0.558601387437046 
3.930000000003869, -0.5584092747437589 
3.94000000000389, -0.5581640489970612 
3.9500000000039113, -0.5578736702577831 
3.9600000000039324, -0.5575534164793695 
3.9700000000039535, -0.5572224259402927 
3.9800000000039746, -0.5568975697836317 
3.9900000000039957, -0.5565875226426648 
4.000000000004016, -0.5562902460500714 
4.010000000003993, -0.5559951231811675 
4.02000000000397, -0.5556882599514883 
4.030000000003946, -0.5553579807870139 
4.040000000003923, -0.5549981779948844 
4.0500000000039, -0.5546091197925124 
4.0600000000038765, -0.5541969301460957 
4.070000000003853, -0.553773344607168 
4.08000000000383, -0.5533569090924152 
4.090000000003807, -0.5529762853992166 
4.100000000003783, -0.552676096102798 
4.11000000000376, -0.5525256338641924 
4.120000000003737, -0.5526303183789979 
4.130000000003713, -0.5531442116322753 
4.14000000000369, -0.5542778816497995 
4.150000000003667, -0.5562879743410514 
4.1600000000036434, -0.5594244650202503 
4.17000000000362, -0.5638119422447634 
4.180000000003597, -0.5692849230843163 
4.1900000000035735, -0.5752981496276587 
4.20000000000355, -0.5810771024596602 
4.210000000003527, -0.58597464039993 
4.220000000003504, -0.5897281239340242 
4.23000000000348, -0.5924196992594354 
4.240000000003457, -0.5942799983505935 
4.250000000003434, -0.5955390605023483 
4.26000000000341, -0.5963728945110917 
4.270000000003387, -0.596902822153015 
4.280000000003364, -0.5972087672248334 
4.2900000000033405, -0.597341241277648 
4.300000000003317, -0.5973292232930932 
4.310000000003294, -0.5971846935705685 
4.320000000003271, -0.5969050762940735 
4.330000000003247, -0.5964749366665054 
4.340000000003224, -0.5958686918497246 
4.350000000003201, -0.595056634451645 
4.360000000003177, -0.5940161445025107 
4.370000000003154, -0.5927468964709046 
4.380000000003131, -0.5912832639641417 
4.390000000003107, -0.58969413547998 
4.400000000003084, -0.5880666145242932 
4.410000000003061, -0.5864823028526998 
4.4200000000030375, -0.5849999544164578 
4.430000000003014, -0.5836512809526033 
4.440000000002991, -0.582446922730463 
4.450000000002968, -0.5813858874267854 
4.460000000002944, -0.5804636528572555 
4.470000000002921, -0.579677309702384 
4.480000000002898, -0.5790281101676655 
4.490000000002874, -0.5785223944813038 
4.500000000002851, -0.578171735495546 
4.510000000002828, -0.5779928316168275 
4.520000000002804, -0.5780074321462461 
4.530000000002781, -0.5782424078233246 
4.540000000002758, -0.5787298923401424 
4.5500000000027345, -0.5795071012794597 
4.560000000002711, -0.5806148768033451 
4.570000000002688, -0.5820931838278709 
4.580000000002665, -0.5839709759481555 
4.590000000002641, -0.5862481134302533 
4.600000000002618, -0.5888705717580229 
4.610000000002595, -0.5917090298191494 
4.620000000002571, -0.5945611849368091 
4.630000000002548, -0.5971946584585992 
4.640000000002525, -0.5994180557184533 
4.6500000000025015, -0.6011360422376077 
4.660000000002478, -0.6023538806552879 
4.670000000002455, -0.6031406219746798 
4.6800000000024315, -0.6035848348143057 
4.690000000002408, -0.6037652678795851 
4.700000000002385, -0.6037385069008686 
4.710000000002362, -0.6035364602953973 
4.720000000002338, -0.6031667932642801 
4.730000000002315, -0.6026122547768721 
4.740000000002292, -0.6018269633313325 
4.750000000002268, -0.6007291349580313 
4.760000000002245, -0.599191922495914 
4.770000000002222, -0.5970393182556574 
4.7800000000021985, -0.5940639941215987 
4.790000000002175, -0.5900920288274307 
4.800000000002152, -0.585100969966543 
4.810000000002129, -0.5793308384033543 
4.820000000002105, -0.5732719174850126 
4.830000000002082, -0.5674915553702383 
4.840000000002059, -0.5624249646781828 
4.850000000002035, -0.5582778675652914 
4.860000000002012, -0.5550575017390625 
4.870000000001989, -0.552656334747391 
4.880000000001965, -0.5509251159612737 
4.890000000001942, -0.5497160467883558 
4.900000000001919, -0.5489016392976538 
4.9100000000018955, -0.5483796543297075 
4.920000000001872, -0.5480716988299349 
