t, s[1].omega / s[0].omega 
0, -0.6599977063421882 
0.009999999999999995, -0.6597595964737898 
0.019999999999999934, -0.6595009879820797 
0.029999999999999874, -0.6592141606417149 
0.04000000000000012, -0.6588910883266419 
0.050000000000000405, -0.6585275691994192 
0.06000000000000069, -0.6581254703280217 
0.07000000000000098, -0.6576931429757826 
0.08000000000000126, -0.6572453166194044 
0.09000000000000155, -0.6568038172119876 
0.10000000000000184, -0.6563998107647965 
0.11000000000000212, -0.6560776057646894 
0.12000000000000241, -0.6558995518885207 
0.130000000000002, -0.6559511202058044 
0.1400000000000009, -0.6563446687550565 
0.1499999999999998, -0.6572195462842789 
0.1599999999999987, -0.6587349168004498 
0.1699999999999976, -0.6610500050250385 
0.1799999999999965, -0.6642854065755832 
0.1899999999999954, -0.6684625516967877 
0.1999999999999943, -0.6734335906248436 
0.2099999999999932, -0.6788429593908206 
0.2199999999999921, -0.6841796957317741 
0.229999999999991, -0.688935007311174 
0.2399999999999899, -0.6927783242006715 
0.2499999999999888, -0.6956285631102544 
0.2599999999999877, -0.697594706078594 
0.2699999999999866, -0.6988654099948803 
0.2799999999999855, -0.6996257326264874 
0.2899999999999844, -0.7000205261282313 
0.2999999999999833, -0.7001485288526982 
0.3099999999999822, -0.7000682713121441 
0.3199999999999811, -0.6998050291369531 
0.32999999999998, -0.6993545452084481 
0.3399999999999789, -0.6986822723053746 
0.3499999999999778, -0.6977181188573238 
0.35999999999997667, -0.6963480935978688 
0.36999999999997557, -0.6944079507822757 
0.37999999999997447, -0.6916917752833862 
0.38999999999997337, -0.6879977634519121 
0.39999999999997227, -0.6832279737844329 
0.40999999999997117, -0.6775129139330082 
0.41999999999997006, -0.6712636053366272 
0.42999999999996896, -0.6650657406629321 
0.43999999999996786, -0.6594673431874234 
0.44999999999996676, -0.6548123229824234 
0.45999999999996566, -0.6512057858875286 
0.46999999999996456, -0.6485761627997444 
0.47999999999996346, -0.646760999132116 
0.48999999999996235, -0.6455732787512665 
0.49999999999996125, -0.6448395236138427 
0.5099999999999602, -0.6444161655378913 
0.519999999999959, -0.6441928125116282 
0.529999999999958, -0.6440888566223693 
0.5399999999999568, -0.6440474596400374 
0.5499999999999557, -0.6440292502572242 
0.5599999999999546, -0.6440070093901186 
0.5699999999999535, -0.6439619876420082 
0.5799999999999524, -0.6438820599199585 
0.5899999999999513, -0.643761426352176 
0.5999999999999502, -0.6436008917893044 
0.6099999999999491, -0.6434072025034396 
0.619999999999948, -0.6431902340313285 
0.6299999999999469, -0.6429583815705495 
0.6399999999999458, -0.6427143342719565 
0.6499999999999447, -0.6424537718238391 
0.6599999999999436, -0.6421678068783441 
0.6699999999999425, -0.6418475906723426 
0.6799999999999414, -0.6414884457443791 
0.6899999999999403, -0.6410919066003943 
0.6999999999999392, -0.640665944881887 
0.7099999999999381, -0.6402247971608716 
0.719999999999937, -0.6397897506819111 
0.7299999999999359, -0.6393915982273783 
0.7399999999999348, -0.6390748740784261 
0.7499999999999337, -0.638903555823353 
0.7599999999999326, -0.6389674690352523 
0.7699999999999315, -0.6393879077902513 
0.7799999999999304, -0.6403197270055949 
0.7899999999999293, -0.641945112316224 
0.7999999999999282, -0.6444514500518851 
0.8099999999999271, -0.6479839186816223 
0.819999999999926, -0.6525685736993184 
0.8299999999999249, -0.6580241895571621 
0.8399999999999238, -0.663921336224202 
0.8499999999999227, -0.6696638198522152 
0.8599999999999216, -0.6746929339082632 
0.8699999999999205, -0.6786849183277177 
0.8799999999999194, -0.6816007336307648 
0.8899999999999183, -0.6835922794818481 
0.8999999999999172, -0.6848751418400217 
0.9099999999999161, -0.6856463433168225 
0.919999999999915, -0.6860543482271348 
0.9299999999999139, -0.686198220983673 
0.9399999999999128, -0.6861360319518433 
0.9499999999999117, -0.6858927549426004 
0.9599999999999106, -0.6854643445512967 
0.9699999999999095, -0.6848173781853608 
0.9799999999999084, -0.6838848325221292 
0.9899999999999073, -0.6825602670372384 
0.9999999999999062, -0.6806966869829452 
1.0099999999999052, -0.678123107664925 
1.019999999999904, -0.6746958419248981 
1.029999999999903, -0.670386756037226 
1.039999999999902, -0.6653665501460969 
1.0499999999999008, -0.6600060042175129 
1.0599999999998997, -0.6547641212604118 
1.0699999999998986, -0.6500345210758687 
1.0799999999998975, -0.6460512315836383 
1.0899999999998964, -0.6428842308605838 
1.0999999999998953, -0.6404872462030629 
1.1099999999998942, -0.6387528383095958 
1.119999999999893, -0.6375532190104981 
1.129999999999892, -0.636764283223908 
1.1399999999998909, -0.6362773301977809 
1.1499999999998898, -0.6360032414262083 
1.1599999999998887, -0.6358724169695169 
1.1699999999998876, -0.6358325243624479 
1.1799999999998865, -0.6358453812287033 
1.1899999999998854, -0.6358838790949686 
1.1999999999998843, -0.6359295530330784 
1.2099999999998832, -0.6359710595423522 
1.219999999999882, -0.636003343417104 
1.229999999999881, -0.6360267064945642 
1.2399999999998799, -0.6360447113632287 
1.2499999999998788, -0.6360604198954962 
1.2599999999998777, -0.6360719371551912 
1.2699999999998766, -0.6360695967132346 
1.2799999999998755, -0.6360369257648996 
1.2899999999998744, -0.6359553871278989 
1.2999999999998733, -0.6358103391571993 
1.3099999999998722, -0.6355949926884753 
1.319999999999871, -0.6353109945729163 
1.32999999999987, -0.6349667564749863 
1.3399999999998689, -0.6345757171755982 
1.3499999999998678, -0.6341562536303206 
1.3599999999998666, -0.6337340717775175 
1.3699999999998655, -0.633347387166219 
1.3799999999998644, -0.6330550183576638 
1.3899999999998633, -0.6329472102597207 
1.3999999999998622, -0.6331579912402419 
1.4099999999998611, -0.6338754282281638 
1.41999999999986, -0.6353414975819116 
1.429999999999859, -0.6378265082246737 
1.4399999999998578, -0.641558255465841 
1.4499999999998567, -0.6465973077773571 
1.4599999999998556, -0.6526980994257012 
1.4699999999998545, -0.6592691392129273 
1.4799999999998534, -0.6655421647802813 
1.4899999999998523, -0.6708845545384627 
1.4999999999998512, -0.6750144659465541 
1.5099999999998501, -0.677979188312142 
1.519999999999849, -0.679995536032832 
1.529999999999848, -0.6813077809108271 
1.5399999999998468, -0.6821190061016197 
1.5499999999998457, -0.6825756650145334 
1.5599999999998446, -0.6827742116797629 
1.5699999999998435, -0.682771968573748 
1.5799999999998424, -0.6825955587910919 
1.5899999999998413, -0.6822453698848686 
1.5999999999998402, -0.681696333719539 
1.6099999999998391, -0.6808962565595352 
1.619999999999838, -0.6797645521659144 
1.629999999999837, -0.6781972841705949 
1.6399999999998358, -0.6760876389554811 
1.6499999999998347, -0.67336845181871 
1.6599999999998336, -0.6700669406687767 
1.6699999999998325, -0.66633703100869 
1.6799999999998314, -0.662433666845814 
1.6899999999998303, -0.6586359930896835 
1.6999999999998292, -0.6551694605802079 
1.709999999999828, -0.6521687863730306 
1.719999999999827, -0.6496832646772048 
1.729999999999826, -0.647702074702469 
1.7399999999998248, -0.6461801245675275 
1.7499999999998237, -0.6450566433704517 
1.7599999999998226, -0.6442664784786098 
1.7699999999998215, -0.643746480855728 
1.7799999999998204, -0.6434390768857073 
1.7899999999998193, -0.6432942187161875 
1.7999999999998182, -0.6432702526597281 
1.809999999999817, -0.6433339874254945 
1.819999999999816, -0.6434602272028386 
1.8299999999998149, -0.6436310475627139 
1.8399999999998138, -0.643834969015464 
1.8499999999998127, -0.6440658639474927 
1.8599999999998116, -0.6443210548174221 
1.8699999999998105, -0.6445980241051815 
1.8799999999998094, -0.6448899094487301 
1.8899999999998083, -0.6451814082978501 
1.8999999999998072, -0.6454477818026995 
1.909999999999806, -0.6456588072232183 
1.919999999999805, -0.6457865078787866 
1.9299999999998039, -0.6458125353837298 
1.9399999999998028, -0.6457312507202511 
1.9499999999998017, -0.6455478745006332 
1.9599999999998006, -0.6452742269167735 
1.9699999999997995, -0.644925135949104 
1.9799999999997984, -0.6445173244954909 
1.9899999999997973, -0.6440713606435227 
1.9999999999997962, -0.6436168682481673 
2.0099999999998173, -0.643201348557896 
2.0199999999998384, -0.6429029713892959 
2.0299999999998595, -0.6428467114119439 
2.0399999999998806, -0.6432200579930651 
2.0499999999999017, -0.644277822471021 
2.059999999999923, -0.6463154397295472 
2.069999999999944, -0.6495839316143097 
2.079999999999965, -0.654139838271431 
2.089999999999986, -0.6596955088282276 
2.100000000000007, -0.665618034819408 
2.1100000000000283, -0.6711652910488263 
2.1200000000000494, -0.6758062556526674 
2.1300000000000705, -0.6793633675897498 
2.1400000000000916, -0.6819267424587075 
2.1500000000001127, -0.6836959591420103 
2.160000000000134, -0.6848729293125924 
2.170000000000155, -0.6856201496257177 
2.180000000000176, -0.6860549191179602 
2.190000000000197, -0.6862557483307179 
2.2000000000002182, -0.6862701677931262 
2.2100000000002393, -0.6861204191398577 
2.2200000000002604, -0.6858063327948238 
2.2300000000002815, -0.6853057472883798 
2.2400000000003026, -0.6845736948230048 
2.2500000000003237, -0.683543141224907 
2.260000000000345, -0.682132448254672 
2.270000000000366, -0.6802660435739407 
2.280000000000387, -0.6779100326505534 
2.290000000000408, -0.6751099902129564 
2.3000000000004293, -0.6720039082174456 
2.3100000000004504, -0.6687921185520758 
2.3200000000004715, -0.6656792713249694 
2.3300000000004926, -0.6628246892899445 
2.3400000000005137, -0.6603233453387134 
2.3500000000005348, -0.6582130962669106 
2.360000000000556, -0.6564923635109875 
2.370000000000577, -0.655136592469689 
2.380000000000598, -0.654109494740908 
2.390000000000619, -0.653369650269459 
2.4000000000006403, -0.6528743093226258 
2.4100000000006614, -0.6525818653657638 
2.4200000000006825, -0.6524537280349284 
2.4300000000007036, -0.6524557761442638 
2.4400000000007247, -0.6525593456522114 
2.450000000000746, -0.652741718340556 
2.460000000000767, -0.6529861449903512 
2.470000000000788, -0.6532813908064117 
2.480000000000809, -0.6536205673360942 
2.49000000000083, -0.653998772783756 
2.5000000000008513, -0.6544092160403522 
2.5100000000008724, -0.6548384484257577 
2.5200000000008935, -0.6552628357308615 
2.5300000000009146, -0.6556491879638359 
2.5400000000009357, -0.6559609248908964 
2.550000000000957, -0.6561674352859351 
2.560000000000978, -0.6562514811803506 
2.570000000000999, -0.6562108072095703 
2.58000000000102, -0.6560544182956178 
2.5900000000010412, -0.6557970221192163 
2.6000000000010624, -0.6554549397237195 
2.6100000000010835, -0.6550450226647073 
2.6200000000011046, -0.6545868671900188 
2.6300000000011257, -0.6541084226057919 
2.6400000000011468, -0.6536554204775233 
2.650000000001168, -0.6533051146508868 
2.660000000001189, -0.6531836730897159 
2.67000000000121, -0.6534828438426272 
2.680000000001231, -0.6544637228336619 
2.6900000000012523, -0.656424379939831 
2.7000000000012734, -0.659603809193283 
2.7100000000012945, -0.6640235967956063 
2.7200000000013156, -0.6693514082027348 
2.7300000000013367, -0.6749401121545027 
2.740000000001358, -0.6800921283747883 
2.750000000001379, -0.6843532721529431 
2.7600000000014, -0.6876022609518321 
2.770000000001421, -0.6899436037879748 
2.780000000001442, -0.6915636010954175 
2.7900000000014633, -0.692643245218905 
2.8000000000014844, -0.6933269254673236 
2.8100000000015055, -0.6937190157923463 
2.8200000000015266, -0.6938893805191727 
2.8300000000015477, -0.69387968188724 
2.840000000001569, -0.6937078200998366 
2.85000000000159, -0.6933699207908726 
2.860000000001611, -0.6928401937737172 
2.870000000001632, -0.692069955852579 
2.8800000000016532, -0.6909888584332154 
2.8900000000016743, -0.6895138093433739 
2.9000000000016954, -0.6875719173726775 
2.9100000000017165, -0.6851377153159799 
2.9200000000017377, -0.6822694046114294 
2.9300000000017588, -0.6791165056709269 
2.94000000000178, -0.6758844283818599 
2.950000000001801, -0.672775534028577 
2.960000000001822, -0.6699428528058426 
2.970000000001843, -0.6674749424693796 
2.9800000000018643, -0.6654049723148392 
2.9900000000018854, -0.663728345001971 
3.0000000000019065, -0.6624183577094602 
3.0100000000019276, -0.6614367580963524 
3.0200000000019487, -0.6607400585894158 
3.03000000000197, -0.6602833933315162 
3.040000000001991, -0.6600232110290839 
3.050000000002012, -0.6599193602343874 
3.060000000002033, -0.6599366425176136 
3.070000000002054, -0.6600457696529782 
3.0800000000020753, -0.6602237367260171 
3.0900000000020964, -0.6604537118295678 
3.1000000000021175, -0.6607244740932626 
3.1100000000021386, -0.6610291694512397 
3.1200000000021597, -0.6613629053926914 
3.130000000002181, -0.6617189209379204 
3.140000000002202, -0.6620840916697079 
3.150000000002223, -0.6624359642944397 
3.160000000002244, -0.6627439819112875 
3.1700000000022652, -0.6629757096801814 
3.1800000000022863, -0.6631053513328441 
3.1900000000023074, -0.6631198014232805 
3.2000000000023285, -0.6630193098259506 
3.2100000000023496, -0.6628137873900818 
3.2200000000023707, -0.6625180778633984 
3.230000000002392, -0.6621490162027375 
3.240000000002413, -0.6617255212002199 
3.250000000002434, -0.6612720078112548 
3.260000000002455, -0.6608253088550055 
3.2700000000024763, -0.6604454824177597 
3.2800000000024974, -0.6602305647285068 
3.2900000000025185, -0.6603335677953036 
3.3000000000025396, -0.6609756042957561 
3.3100000000025607, -0.6624410212561938 
3.3200000000025818, -0.6650309461726539 
3.330000000002603, -0.6689523141265701 
3.340000000002624, -0.6741554239001294 
3.350000000002645, -0.6802158379929419 
3.360000000002666, -0.6864086760573361 
3.3700000000026873, -0.6919988362372009 
3.3800000000027084, -0.6965352396640137 
3.3900000000027295, -0.6999256249296358 
3.4000000000027506, -0.7023135967463565 
3.4100000000027717, -0.7039223329943373 
3.420000000002793, -0.704960540007779 
3.430000000002814, -0.7055897488480374 
3.440000000002835, -0.7059228160117386 
3.450000000002856, -0.706032096536575 
3.460000000002877, -0.7059577528952174 
3.4700000000028983, -0.7057131409214861 
3.4800000000029194, -0.7052867504534126 
3.4900000000029405, -0.7046412111739896 
3.5000000000029616, -0.7037110035604675 
3.5100000000029827, -0.702402801583797 
3.520000000003004, -0.7006059113003235 
3.530000000003025, -0.6982220482814376 
3.540000000003046, -0.6952159340091731 
3.550000000003067, -0.6916660632697684 
3.5600000000030882, -0.6877759018590999 
3.5700000000031094, -0.6838237442182643 
3.5800000000031305, -0.6800793110340798 
3.5900000000031516, -0.6767393689555543 
3.6000000000031727, -0.6739081703711298 
3.6100000000031938, -0.6716118224717832 
3.620000000003215, -0.6698241466599308 
3.630000000003236, -0.6684896890841208 
3.640000000003257, -0.6675398026604261 
3.650000000003278, -0.666902854102404 
3.6600000000032993, -0.6665105721191966 
3.6700000000033204, -0.6663019089964751 
3.6800000000033415, -0.6662250817536896 
3.6900000000033626, -0.666238164797 
3.7000000000033837, -0.666308635430922 
3.710000000003405, -0.6664123773278144 
3.720000000003426, -0.6665326163147538 
3.730000000003447, -0.6666589890742312 
3.740000000003468, -0.6667864632086218 
3.750000000003489, -0.6669134171104779 
3.7600000000035103, -0.667038365030111 
3.7700000000035314, -0.6671558822173307 
3.7800000000035525, -0.6672536717371911 
3.7900000000035736, -0.667313022648645 
3.8000000000035947, -0.6673132125152834 
3.810000000003616, -0.6672376777392784 
3.820000000003637, -0.6670784952940929 
3.830000000003658, -0.6668372454535729 
3.840000000003679, -0.6665231028076769 
3.8500000000037002, -0.6661505216427022 
3.8600000000037213, -0.6657385439901551 
3.8700000000037424, -0.6653127232279421 
3.8800000000037635, -0.6649099431977589 
3.8900000000037847, -0.6645861101664865 
3.9000000000038058, -0.664426347067047 
3.910000000003827, -0.664556376082201 
3.920000000003848, -0.6651517271357543 
3.930000000003869, -0.6664378582937873 
3.94000000000389, -0.6686694306659741 
3.9500000000039113, -0.6720734614211932 
3.9600000000039324, -0.6767474967383104 
3.9700000000039535, -0.6825352896275074 
3.9800000000039746, -0.6889596050232054 
3.9900000000039957, -0.6953162159434084 
4.000000000004016, -0.7009309195205543 
4.010000000003993, -0.7054078787251469 
4.02000000000397, -0.7086901447473216 
4.030000000003946, -0.7109450061165705 
4.040000000003923, -0.7124135406383469 
4.0500000000039, -0.7133162644801957 
4.0600000000038765, -0.7138198450995434 
4.070000000003853, -0.71403670074931 
4.08000000000383, -0.7140347912416376 
4.090000000003807, -0.7138469050895584 
4.100000000003783, -0.7134759461820913 
4.11000000000376, -0.7128956047926663 
4.120000000003737, -0.7120468933108175 
4.130000000003713, -0.7108323763309948 
4.14000000000369, -0.7091132511426907 
4.150000000003667, -0.7067206047900592 
4.1600000000036434, -0.7034975311320025 
4.17000000000362, -0.6993798733496485 
4.180000000003597, -0.6944859499793318 
4.1900000000035735, -0.6891435287924763 
4.20000000000355, -0.6838050072955564 
4.210000000003527, -0.6788967927008536 
4.220000000003504, -0.6747038485339096 
4.23000000000348, -0.6713410700730789 
4.240000000003457, -0.6687889577680208 
4.250000000003434, -0.6669484685272113 
4.26000000000341, -0.665687272827355 
4.270000000003387, -0.6648700442567528 
4.280000000003364, -0.6643750781237946 
4.2900000000033405, -0.6641014746526549 
4.300000000003317, -0.663970388327084 
4.310000000003294, -0.6639228726282327 
4.320000000003271, -0.6639161659996691 
4.330000000003247, -0.663919777778019 
4.340000000003224, -0.6639123181645271 
4.350000000003201, -0.6638795886512319 
4.360000000003177, -0.6638139036943967 
4.370000000003154, -0.6637139157494595 
4.380000000003131, -0.6635836601910076 
4.390000000003107, -0.6634297851874784 
4.400000000003084, -0.6632573194708274 
4.410000000003061, -0.6630659909409544 
4.4200000000030375, -0.6628494162723231 
4.430000000003014, -0.6625978170456476 
4.440000000002991, -0.6623025943718973 
4.450000000002968, -0.6619601608878856 
4.460000000002944, -0.6615735766930001 
4.470000000002921, -0.6611524661437886 
4.480000000002898, -0.6607127422844471 
4.490000000002874, -0.660277475731347 
4.500000000002851, -0.6598795149247587 
4.510000000002828, -0.6595658135050912 
4.520000000002804, -0.659402939297314 
4.530000000002781, -0.6594827385821638 
4.540000000002758, -0.6599264180588911 
4.5500000000027345, -0.6608842463406999 
4.560000000002711, -0.6625265489517285 
4.570000000002688, -0.665019836140095 
4.580000000002665, -0.6684813105322588 
4.590000000002641, -0.6729105698879723 
4.600000000002618, -0.678116848704769 
4.610000000002595, -0.6836920767489334 
4.620000000002571, -0.6890897367830621 
4.630000000002548, -0.6938050244317872 
4.640000000002525, -0.6975458807574441 
4.6500000000025015, -0.7002765724267849 
4.660000000002478, -0.7021358715720607 
4.670000000002455, -0.7033231580871481 
4.6800000000024315, -0.7040224059854264 
4.690000000002408, -0.7043729533427905 
4.700000000002385, -0.7044675093934958 
4.710000000002362, -0.7043592752650867 
4.720000000002338, -0.7040688012474992 
4.730000000002315, -0.7035871262879134 
4.740000000002292, -0.702874300276988 
4.750000000002268, -0.7018534871681911 
4.760000000002245, -0.7004024830385298 
4.770000000002222, -0.698348790849115 
4.7800000000021985, -0.6954828727568588 
4.790000000002175, -0.6916125332648241 
4.800000000002152, -0.6866705565718614 
4.810000000002129, -0.6808346664474124 
4.820000000002105, -0.6745562419803475 
4.830000000002082, -0.6684292930845246 
4.840000000002059, -0.6629759938346469 
4.850000000002035, -0.6585000947203118 
4.860000000002012, -0.655072364231801 
4.870000000001989, -0.6526006033689468 
4.880000000001965, -0.6509138731210767 
4.890000000001942, -0.649824372565073 
4.900000000001919, -0.6491617391602682 
4.9100000000018955, -0.6487869944960158 
4.920000000001872, -0.6485944483634852 
4.930000000001849, -0.6485076096595295 
