t, s[1].omega / s[0].omega 
0, -1.3299973512670786 
0.009999999999999995, -1.3296259446656988 
0.019999999999999934, -1.3290482966834163 
0.029999999999999874, -1.3282794661463213 
0.04000000000000012, -1.3273482848396707 
0.050000000000000405, -1.3263029214254294 
0.06000000000000069, -1.3252161924983104 
0.07000000000000098, -1.3241850231015224 
0.08000000000000126, -1.323315672455133 
0.09000000000000155, -1.322689410703281 
0.10000000000000184, -1.3223218088945266 
0.11000000000000212, -1.3221505221600163 
0.12000000000000241, -1.3220681909595473 
0.130000000000002, -1.3219685196352131 
0.1400000000000009, -1.3217664209219713 
0.1499999999999998, -1.321388247882721 
0.1599999999999987, -1.3207488395025668 
0.1699999999999976, -1.319728438761244 
0.1799999999999965, -1.3181575020119878 
0.1899999999999954, -1.3158224643030134 
0.1999999999999943, -1.312517691615186 
0.2099999999999932, -1.3081736351864948 
0.2199999999999921, -1.3030546205019435 
0.229999999999991, -1.2978995919269365 
0.2399999999999899, -1.2937410236777467 
0.2499999999999888, -1.291311075828962 
0.2599999999999877, -1.2905446609924307 
0.2699999999999866, -1.2907719820279941 
0.2799999999999855, -1.2913047932067514 
0.2899999999999844, -1.291752748907069 
0.2999999999999833, -1.2919831494524754 
0.3099999999999822, -1.2919818703871022 
0.3199999999999811, -1.2917593572682249 
0.32999999999998, -1.2913090715549365 
0.3399999999999789, -1.2905946590445347 
0.3499999999999778, -1.2895580402527291 
0.35999999999997667, -1.288167570843031 
0.36999999999997557, -1.2865485213407086 
0.37999999999997447, -1.2851976891557402 
0.38999999999997337, -1.2850696267763013 
0.39999999999997227, -1.287113005316893 
0.40999999999997117, -1.2913764055992094 
0.41999999999997006, -1.2967661215927004 
0.42999999999996896, -1.301883202588265 
0.43999999999996786, -1.3058831296641322 
0.44999999999996676, -1.3086030749558097 
0.45999999999996566, -1.310255056120039 
0.46999999999996456, -1.3111380405487962 
0.47999999999996346, -1.3115027498107223 
0.48999999999996235, -1.3115225109547213 
0.49999999999996125, -1.311308303653806 
0.5099999999999602, -1.3109366633410011 
0.519999999999959, -1.3104813391711754 
0.529999999999958, -1.3100438155882272 
0.5399999999999568, -1.3097655339026675 
0.5499999999999557, -1.3097944314751138 
0.5599999999999546, -1.3102098942427982 
0.5699999999999535, -1.310970754873906 
0.5799999999999524, -1.3119403631270623 
0.5899999999999513, -1.3129571814830219 
0.5999999999999502, -1.3138883034874973 
0.6099999999999491, -1.314646177342143 
0.619999999999948, -1.3151832140104918 
0.6299999999999469, -1.3154806317355634 
0.6399999999999458, -1.3155389991879642 
0.6499999999999447, -1.3153718687793678 
0.6599999999999436, -1.3150019617224498 
0.6699999999999425, -1.3144597567563756 
0.6799999999999414, -1.313784821217363 
0.6899999999999403, -1.313029079399087 
0.6999999999999392, -1.3122585564575218 
0.7099999999999381, -1.3115486540550572 
0.719999999999937, -1.310970323717291 
0.7299999999999359, -1.3105693076978955 
0.7399999999999348, -1.310346607367602 
0.7499999999999337, -1.3102542096517789 
0.7599999999999326, -1.3102132944526654 
0.7699999999999315, -1.3101409657887007 
0.7799999999999304, -1.3099644418209135 
0.7899999999999293, -1.3096175904395557 
0.7999999999999282, -1.3090290356569896 
0.8099999999999271, -1.308112317839391 
0.819999999999926, -1.3067653090530063 
0.8299999999999249, -1.3048844327866909 
0.8399999999999238, -1.3023982387279944 
0.8499999999999227, -1.2993219242423666 
0.8599999999999216, -1.2958249636856185 
0.8699999999999205, -1.2922773665346203 
0.8799999999999194, -1.2891976560835703 
0.8899999999999183, -1.2870399019760854 
0.8999999999999172, -1.2859293389134074 
0.9099999999999161, -1.2856141762211315 
0.919999999999915, -1.2856909899342834 
0.9299999999999139, -1.2858418708054329 
0.9399999999999128, -1.285899551440612 
0.9499999999999117, -1.2857960559325334 
0.9599999999999106, -1.285496577184904 
0.9699999999999095, -1.2849547455124257 
0.9799999999999084, -1.2840851936591773 
0.9899999999999073, -1.2827481327523658 
0.9999999999999062, -1.2807614529260671 
1.0099999999999052, -1.2779937182519379 
1.019999999999904, -1.2746132119437958 
1.029999999999903, -1.271428904650017 
1.039999999999902, -1.2698431467537996 
1.0499999999999008, -1.2709000272546076 
1.0599999999998997, -1.2742192255061164 
1.0699999999998986, -1.2783253237887864 
1.0799999999998975, -1.281914249047462 
1.0899999999998964, -1.2844714580356302 
1.0999999999998953, -1.2860528406972689 
1.1099999999998942, -1.2869050308903114 
1.119999999999893, -1.2872597698122827 
1.129999999999892, -1.2872778815256525 
1.1399999999998909, -1.2870563062580052 
1.1499999999998898, -1.2866528728064353 
1.1599999999998887, -1.2861187780435785 
1.1699999999998876, -1.2855426872411673 
1.1799999999998865, -1.2851006811855945 
1.1899999999998854, -1.2850679799461688 
1.1999999999998843, -1.2857234282886068 
1.2099999999998832, -1.2871679279362378 
1.219999999999882, -1.2892279088089116 
1.229999999999881, -1.2915532528879856 
1.2399999999998799, -1.2937958572501422 
1.2499999999998788, -1.2957174802236173 
1.2599999999998777, -1.297204043914944 
1.2699999999998766, -1.2982354674866294 
1.2799999999998755, -1.2988488988832199 
1.2899999999998744, -1.2991085931035076 
1.2999999999998733, -1.299085122446477 
1.3099999999998722, -1.2988445522725278 
1.319999999999871, -1.298447213184014 
1.32999999999987, -1.2979536338071298 
1.3399999999998689, -1.2974319577623707 
1.3499999999998678, -1.2969580545933004 
1.3599999999998666, -1.296602048420454 
1.3699999999998655, -1.296406862390255 
1.3799999999998644, -1.2963740572326679 
1.3899999999998633, -1.2964657225698724 
1.3999999999998622, -1.296618538563444 
1.4099999999998611, -1.2967616223971432 
1.41999999999986, -1.2968303123508573 
1.429999999999859, -1.2967714029900255 
1.4399999999998578, -1.296541584182041 
1.4499999999998567, -1.2961044360920764 
1.4599999999998556, -1.2954299225195072 
1.4699999999998545, -1.2944972507593362 
1.4799999999998534, -1.2933004010679399 
1.4899999999998523, -1.2918560475619105 
1.4999999999998512, -1.2902143212514567 
1.5099999999998501, -1.2884711397239168 
1.519999999999849, -1.286774169117746 
1.529999999999848, -1.2853045209548934 
1.5399999999998468, -1.2842181555862897 
1.5499999999998457, -1.283568032381488 
1.5599999999998446, -1.2832742523755596 
1.5699999999998435, -1.283178228989746 
1.5799999999998424, -1.2831255486185773 
1.5899999999998413, -1.2830065887495468 
1.5999999999998402, -1.2827473046961086 
1.6099999999998391, -1.2822791901748738 
1.619999999999838, -1.2815079949864767 
1.629999999999837, -1.280285963831488 
1.6399999999998358, -1.27839244220451 
1.6499999999998347, -1.2755440970910585 
1.6599999999998336, -1.2714835495608863 
1.6699999999998325, -1.266201741821231 
1.6799999999998314, -1.2602457890132015 
1.6899999999998303, -1.2548000781603958 
1.6999999999998292, -1.2511402696370562 
1.709999999999828, -1.2497327800796456 
1.719999999999827, -1.249991788506482 
1.729999999999826, -1.2509427505972135 
1.7399999999998248, -1.2518918826466279 
1.7499999999998237, -1.2525572437737038 
1.7599999999998226, -1.2529006738814576 
1.7699999999998215, -1.2529649065585242 
1.7799999999998204, -1.2527929565421891 
1.7899999999998193, -1.2524015313408465 
1.7999999999998182, -1.251778603823505 
1.809999999999817, -1.2508976800151435 
1.819999999999816, -1.2497632845495779 
1.8299999999998149, -1.2485152826271282 
1.8399999999998138, -1.2475836417388273 
1.8499999999998127, -1.2477378785511337 
1.8599999999998116, -1.2497483480138336 
1.8699999999998105, -1.2537283524701315 
1.8799999999998094, -1.25887310785105 
1.8899999999998083, -1.2639938913229412 
1.8999999999998072, -1.2682275312563027 
1.909999999999806, -1.2712769732848699 
1.919999999999805, -1.2732427469948207 
1.9299999999998039, -1.2743761858397118 
1.9399999999998028, -1.2749251367152623 
1.9499999999998017, -1.275077807120955 
1.9599999999998006, -1.2749609258597148 
1.9699999999997995, -1.2746588874882225 
1.9799999999997984, -1.2742397528089968 
1.9899999999997973, -1.2737835811013856 
1.9999999999997962, -1.2734046158347354 
2.0099999999998173, -1.2732463119068658 
2.0199999999998384, -1.2734320036718683 
2.0299999999998595, -1.2739974496229092 
2.0399999999998806, -1.2748676237881957 
2.0499999999999017, -1.2758987307292184 
2.059999999999923, -1.2769407672863688 
2.069999999999944, -1.2778760939454663 
2.079999999999965, -1.2786285043753645 
2.089999999999986, -1.2791571269008881 
2.100000000000007, -1.2794471424780876 
2.1100000000000283, -1.279502139912162 
2.1200000000000494, -1.2793386473654584 
2.1300000000000705, -1.278982413310187 
2.1400000000000916, -1.2784667234638003 
2.1500000000001127, -1.277833334733383 
2.160000000000134, -1.2771350804842478 
2.170000000000155, -1.2764364496816027 
2.180000000000176, -1.2758074773426828 
2.190000000000197, -1.2753097148028907 
2.2000000000002182, -1.2749785267064897 
2.2100000000002393, -1.2748094827770562 
2.2200000000002604, -1.2747575980335528 
2.2300000000002815, -1.2747524970372492 
2.2400000000003026, -1.2747195598896828 
2.2500000000003237, -1.27459238239604 
2.260000000000345, -1.2743122619899574 
2.270000000000366, -1.2738212486628044 
2.280000000000387, -1.2730570600879088 
2.290000000000408, -1.2719549570472728 
2.3000000000004293, -1.2704583304177228 
2.3100000000004504, -1.268537389892888 
2.3200000000004715, -1.266214216104593 
2.3300000000004926, -1.2635913366590148 
2.3400000000005137, -1.2608744208990272 
2.3500000000005348, -1.2583627911937658 
2.360000000000556, -1.256370604047273 
2.370000000000577, -1.2550850326592407 
2.380000000000598, -1.2544648848384905 
2.390000000000619, -1.2542879171926713 
2.4000000000006403, -1.254297993714704 
2.4100000000006614, -1.254309863346841 
2.4200000000006825, -1.2542204688764622 
2.4300000000007036, -1.2539714656512346 
2.4400000000007247, -1.2535078716429768 
2.450000000000746, -1.252745294535511 
2.460000000000767, -1.2515429395037707 
2.470000000000788, -1.249684512626683 
2.480000000000809, -1.2468908646950183 
2.49000000000083, -1.2429241637199353 
2.5000000000008513, -1.2378524154996975 
2.5100000000008724, -1.232396059044837 
2.5200000000008935, -1.2279258373550337 
2.5300000000009146, -1.2256815294207168 
2.5400000000009357, -1.2257931652580845 
2.550000000000957, -1.2273128568597604 
2.560000000000978, -1.2291317515188769 
2.570000000000999, -1.230614652033141 
2.58000000000102, -1.231592122584669 
2.5900000000010412, -1.2321184639459024 
2.6000000000010624, -1.2322973469748815 
2.6100000000010835, -1.2322108353992498 
2.6200000000011046, -1.2319039438232398 
2.6300000000011257, -1.2313903959688148 
2.6400000000011468, -1.2306707352737765 
2.650000000001168, -1.2297724843567361 
2.660000000001189, -1.2288296960277856 
2.67000000000121, -1.2281911717695495 
2.680000000001231, -1.2284493454900394 
2.6900000000012523, -1.2302058544777394 
2.7000000000012734, -1.2336114650031889 
2.7100000000012945, -1.238132607403158 
2.7200000000013156, -1.2428547489697723 
2.7300000000013367, -1.2469955538821567 
2.740000000001358, -1.2501705787963044 
2.750000000001379, -1.2523509911841695 
2.7600000000014, -1.2536980559725448 
2.770000000001421, -1.2544215817581337 
2.780000000001442, -1.2547051981852888 
2.7900000000014633, -1.254684438159521 
2.8000000000014844, -1.2544530155750917 
2.8100000000015055, -1.2540811391563182 
2.8200000000015266, -1.2536386132374298 
2.8300000000015477, -1.2532165274485716 
2.840000000001569, -1.2529337676194925 
2.85000000000159, -1.2529110273575355 
2.860000000001611, -1.2532176050399637 
2.870000000001632, -1.2538329731644897 
2.8800000000016532, -1.2546588141478412 
2.8900000000016743, -1.255565998376817 
2.9000000000016954, -1.256436786639552 
2.9100000000017165, -1.257183950491902 
2.9200000000017377, -1.2577520798657795 
2.9300000000017588, -1.2581116907916217 
2.94000000000178, -1.2582527433331276 
2.950000000001801, -1.2581797387334799 
2.960000000001822, -1.2579083140600829 
2.970000000001843, -1.2574630905092552 
2.9800000000018643, -1.2568772186353567 
2.9900000000018854, -1.2561939252025422 
3.0000000000019065, -1.2554685243857437 
3.0100000000019276, -1.2547670119068344 
3.0200000000019487, -1.2541575245742642 
3.03000000000197, -1.2536949428596096 
3.040000000001991, -1.2534038035612252 
3.050000000002012, -1.253267792740448 
3.060000000002033, -1.2532337403667795 
3.070000000002054, -1.2532295199274888 
3.0800000000020753, -1.2531834390068477 
3.0900000000020964, -1.2530329760791772 
3.1000000000021175, -1.2527222461938652 
3.1100000000021386, -1.2521955880656177 
3.1200000000021597, -1.2513944670856387 
3.130000000002181, -1.2502614281940403 
3.140000000002202, -1.2487515985323636 
3.150000000002223, -1.2468500813714485 
3.160000000002244, -1.244592968543862 
3.1700000000022652, -1.2420891875236302 
3.1800000000022863, -1.239534925424905 
3.1900000000023074, -1.2371990711513017 
3.2000000000023285, -1.2353521413530522 
3.2100000000023496, -1.2341487364762107 
3.2200000000023707, -1.2335477651339901 
3.230000000002392, -1.233353536926429 
3.240000000002413, -1.2333379725381786 
3.250000000002434, -1.2333305186168435 
3.260000000002455, -1.2332311271416745 
3.2700000000024763, -1.2329795940594472 
3.2800000000024974, -1.232518810629434 
3.2900000000025185, -1.231764073736898 
3.3000000000025396, -1.23057710951525 
3.3100000000025607, -1.2287467670060124 
3.3200000000025818, -1.225995781445246 
3.330000000002603, -1.222061763846615 
3.340000000002624, -1.2169114445172644 
3.350000000002645, -1.2110502750177736 
3.360000000002666, -1.2056279164824746 
3.3700000000026873, -1.2019363627668707 
3.3800000000027084, -1.2005222412170722 
3.3900000000027295, -1.2008740307224341 
3.4000000000027506, -1.202012719618026 
3.4100000000027717, -1.2031845384052562 
3.420000000002793, -1.2040553646440588 
3.430000000002814, -1.2045674982223855 
3.440000000002835, -1.204767997282217 
3.450000000002856, -1.2047145104115005 
3.460000000002877, -1.204440921221193 
3.4700000000028983, -1.2039502339980779 
3.4800000000029194, -1.2032196039140706 
3.4900000000029405, -1.2022208353404982 
3.5000000000029616, -1.2009760294928495 
3.5100000000029827, -1.1996721329580762 
3.520000000003004, -1.19880542494603 
3.530000000003025, -1.1991786752100533 
3.540000000003046, -1.2015074290722225 
3.550000000003067, -1.2057924196882166 
3.5600000000030882, -1.2111492993024169 
3.5700000000031094, -1.2163781515649275 
3.5800000000031305, -1.220645101976676 
3.5900000000031516, -1.223690286882069 
3.6000000000031727, -1.2256421422707273 
3.6100000000031938, -1.2267662748948045 
3.620000000003215, -1.2273144102514952 
3.630000000003236, -1.2274731301239628 
3.640000000003257, -1.2273650236546596 
3.650000000003278, -1.227068420104744 
3.6600000000032993, -1.2266427901067165 
3.6700000000033204, -1.2261582227553596 
3.6800000000033415, -1.2257259414588422 
3.6900000000033626, -1.2255119885860633 
3.7000000000033837, -1.2257028384759483 
3.710000000003405, -1.2264186060101827 
3.720000000003426, -1.227636191246056 
3.730000000003447, -1.2291955582544762 
3.740000000003468, -1.2308779866802235 
3.750000000003489, -1.232484895486615 
3.7600000000035103, -1.2338756567039273 
3.7700000000035314, -1.2349709667949313 
3.7800000000035525, -1.2357418261914745 
3.7900000000035736, -1.236195881915814 
3.8000000000035947, -1.2363644565489422 
3.810000000003616, -1.2362911585310594 
3.820000000003637, -1.2360237535342395 
3.830000000003658, -1.2356111931106502 
3.840000000003679, -1.235105926757089 
3.8500000000037002, -1.234568357481603 
3.8600000000037213, -1.2340671244525512 
3.8700000000037424, -1.233669492161866 
3.8800000000037635, -1.2334236400701926 
3.8900000000037847, -1.2333433797771054 
3.9000000000038058, -1.2334048462836362 
3.910000000003827, -1.2335556414908306 
3.920000000003848, -1.2337304271683323 
3.930000000003869, -1.2338655103852612 
3.94000000000389, -1.2339070201070312 
3.9500000000039113, -1.233812282585451 
3.9600000000039324, -1.233548087874853 
3.9700000000039535, -1.2330895792679812 
3.9800000000039746, -1.2324211013905617 
3.9900000000039957, -1.2315385050020216 
4.000000000004016, -1.2304522914673282 
4.010000000003993, -1.2291917456557255 
4.02000000000397, -1.2278102146246535 
4.030000000003946, -1.226389813975999 
4.040000000003923, -1.2250401678315386 
4.0500000000039, -1.2238825275638587 
4.0600000000038765, -1.2230143016452502 
4.070000000003853, -1.222466817695126 
4.08000000000383, -1.2221884675213333 
4.090000000003807, -1.2220719635658537 
4.100000000003783, -1.2220021764461781 
4.11000000000376, -1.2218861919209303 
4.120000000003737, -1.2216537738402253 
4.130000000003713, -1.221240688881269 
4.14000000000369, -1.2205688229743192 
4.150000000003667, -1.2195303867434866 
4.1600000000036434, -1.217981898374105 
4.17000000000362, -1.2157577769192947 
4.180000000003597, -1.212717174035074 
4.1900000000035735, -1.208831379656936 
4.20000000000355, -1.204293095375712 
4.210000000003527, -1.1995824750231394 
4.220000000003504, -1.1953867839824062 
4.23000000000348, -1.1923236959828727 
4.240000000003457, -1.1906180690570527 
4.250000000003434, -1.1900235885762935 
4.26000000000341, -1.1900605483088151 
4.270000000003387, -1.1903072287094818 
4.280000000003364, -1.1905179533966561 
4.2900000000033405, -1.1905893744876974 
4.300000000003317, -1.1904871652661055 
4.310000000003294, -1.1901912352224764 
4.320000000003271, -1.1896638064361984 
4.330000000003247, -1.1888293756198893 
4.340000000003224, -1.1875606324932952 
4.350000000003201, -1.185678499401305 
4.360000000003177, -1.182998117385147 
4.370000000003154, -1.1794758152243283 
4.380000000003131, -1.1754715683451593 
4.390000000003107, -1.1719328640597526 
4.400000000003084, -1.170074851976716 
4.410000000003061, -1.1705141492714977 
4.4200000000030375, -1.1727392918841704 
4.430000000003014, -1.1756028663571303 
4.440000000002991, -1.1781704681533665 
4.450000000002968, -1.1800530542010015 
4.460000000002944, -1.1812496995135477 
4.470000000002921, -1.1819046696591111 
4.480000000002898, -1.1821672104926733 
4.490000000002874, -1.182144539608372 
4.500000000002851, -1.1818982982654975 
4.510000000002828, -1.18145510902328 
4.520000000002804, -1.1808238055907638 
4.530000000002781, -1.180026045519606 
4.540000000002758, -1.1791539929633426 
4.5500000000027345, -1.1784562831159122 
4.560000000002711, -1.1783960898372157 
4.570000000002688, -1.1795476963647034 
4.580000000002665, -1.1822646138413524 
4.590000000002641, -1.1863502540508288 
4.600000000002618, -1.1910931785602565 
4.610000000002595, -1.195656550814037 
4.620000000002571, -1.1994529243632754 
4.630000000002548, -1.2022616815614324 
4.640000000002525, -1.2041380740022427 
4.6500000000025015, -1.2052647668444358 
4.660000000002478, -1.2058412675691321 
4.670000000002455, -1.2060314856068501 
4.6800000000024315, -1.2059527388009434 
4.690000000002408, -1.2056855788557592 
4.700000000002385, -1.2052924604153965 
4.710000000002362, -1.2048406557118239 
4.720000000002338, -1.2044246084991606 
4.730000000002315, -1.2041742838606764 
4.740000000002292, -1.2042300899270053 
4.750000000002268, -1.2046845078277664 
4.760000000002245, -1.20553095057443 
4.770000000002222, -1.2066651482110027 
4.7800000000021985, -1.2079338327313272 
4.790000000002175, -1.2091878339340147 
4.800000000002152, -1.2103113857507133 
4.810000000002129, -1.2112285778196659 
4.820000000002105, -1.2118988391031016 
4.830000000002082, -1.2123099385683451 
4.840000000002059, -1.212471259039861 
4.850000000002035, -1.2124073481838624 
4.860000000002012, -1.212152069856887 
4.870000000001989, -1.2117448793126004 
4.880000000001965, -1.2112306025302 
4.890000000001942, -1.2106619289556304 
4.900000000001919, -1.2101006695306031 
4.9100000000018955, -1.2096124504278263 
4.920000000001872, -1.2092532217762657 
4.930000000001849, -1.2090533667897136 
