t, s[1].omega / s[0].omega 
0, -0.5999977261657232 
0.009999999999999995, -0.5997641941357895 
0.019999999999999934, -0.5995168325100472 
0.029999999999999874, -0.5992515575455675 
0.04000000000000012, -0.5989639207867483 
0.050000000000000405, -0.5986511697840726 
0.06000000000000069, -0.5983134046196515 
0.07000000000000098, -0.5979537633566452 
0.08000000000000126, -0.5975781892387408 
0.09000000000000155, -0.5971954351099243 
0.10000000000000184, -0.5968177348704414 
0.11000000000000212, -0.5964623059696323 
0.12000000000000241, -0.596153649307473 
0.130000000000002, -0.5959264132159509 
0.1400000000000009, -0.5958282347584263 
0.1499999999999998, -0.595921302161913 
0.1599999999999987, -0.5962803174738934 
0.1699999999999976, -0.5969833561405438 
0.1799999999999965, -0.5980920411713885 
0.1899999999999954, -0.5996211266957864 
0.1999999999999943, -0.6015074924795963 
0.2099999999999932, -0.603600641480841 
0.2199999999999921, -0.6056950177830351 
0.229999999999991, -0.6075960236914095 
0.2399999999999899, -0.6091789241379013 
0.2499999999999888, -0.6104051724423234 
0.2599999999999877, -0.6112995172656097 
0.2699999999999866, -0.6119156958644953 
0.2799999999999855, -0.6123112141314327 
0.2899999999999844, -0.6125351076581028 
0.2999999999999833, -0.6126243214956343 
0.3099999999999822, -0.6126039418674318 
0.3199999999999811, -0.6124884831544535 
0.32999999999998, -0.6122830515915881 
0.3399999999999789, -0.6119841149682594 
0.3499999999999778, -0.6115801422130759 
0.35999999999997667, -0.6110528356034285 
0.36999999999997557, -0.6103801081995509 
0.37999999999997447, -0.6095420052698216 
0.38999999999997337, -0.6085296727696246 
0.39999999999997227, -0.6073548221983842 
0.40999999999997117, -0.60605443212659 
0.41999999999997006, -0.6046861473728368 
0.42999999999996896, -0.6033153400844408 
0.43999999999996786, -0.6020005583670814 
0.44999999999996676, -0.60078431869207 
0.45999999999996566, -0.5996914157297111 
0.46999999999996456, -0.5987324099206298 
0.47999999999996346, -0.5979087660726217 
0.48999999999996235, -0.5972173041665259 
0.49999999999996125, -0.5966531775188002 
0.5099999999999602, -0.5962115268282969 
0.519999999999959, -0.5958882595156951 
0.529999999999958, -0.5956803676049158 
0.5399999999999568, -0.5955860538780634 
0.5499999999999557, -0.5956047865200361 
0.5599999999999546, -0.5957372682127577 
0.5699999999999535, -0.5959851764469738 
0.5799999999999524, -0.5963503978686109 
0.5899999999999513, -0.5968333659277069 
0.5999999999999502, -0.5974301290014031 
0.6099999999999491, -0.5981281546632252 
0.619999999999948, -0.5989018504813451 
0.6299999999999469, -0.599710181391645 
0.6399999999999458, -0.6004994663290042 
0.6499999999999447, -0.6012127032843881 
0.6599999999999436, -0.6018024581085228 
0.6699999999999425, -0.6022408797173533 
0.6799999999999414, -0.6025218483268051 
0.6899999999999403, -0.602655631530908 
0.6999999999999392, -0.6026604159227718 
0.7099999999999381, -0.6025548868833988 
0.719999999999937, -0.602353533888579 
0.7299999999999359, -0.6020643207079368 
0.7399999999999348, -0.6016876481322674 
0.7499999999999337, -0.6012156655439806 
0.7599999999999326, -0.600631365710967 
0.7699999999999315, -0.5999073034685487 
0.7799999999999304, -0.5990043296605643 
0.7899999999999293, -0.597871773575714 
0.7999999999999282, -0.5964523607103229 
0.8099999999999271, -0.5946971020415054 
0.819999999999926, -0.5925937345667011 
0.8299999999999249, -0.5902011648723686 
0.8399999999999238, -0.5876648650294286 
0.8499999999999227, -0.585187612634677 
0.8599999999999216, -0.582963423187843 
0.8699999999999205, -0.581117606930752 
0.8799999999999194, -0.5796875735303088 
0.8899999999999183, -0.5786416741807799 
0.8999999999999172, -0.5779119806662906 
0.9099999999999161, -0.5774217718740398 
0.919999999999915, -0.5771015079765927 
0.9299999999999139, -0.5768951185027568 
0.9399999999999128, -0.5767605064800516 
0.9499999999999117, -0.5766674339752084 
0.9599999999999106, -0.576594692364102 
0.9699999999999095, -0.5765275111923137 
0.9799999999999084, -0.5764556137159775 
0.9899999999999073, -0.5763720457573992 
0.9999999999999062, -0.5762727197186466 
1.0099999999999052, -0.5761564036038196 
1.019999999999904, -0.5760246390806922 
1.029999999999903, -0.5758809716965798 
1.039999999999902, -0.5757291916400261 
1.0499999999999008, -0.5755710362034467 
1.0599999999998997, -0.5754044998049406 
1.0699999999998986, -0.5752238394583755 
1.0799999999998975, -0.5750214071392816 
1.0899999999998964, -0.5747902975531137 
1.0999999999998953, -0.5745264223278085 
1.1099999999998942, -0.5742292508014335 
1.119999999999893, -0.5739014342186957 
1.129999999999892, -0.5735480808237143 
1.1399999999998909, -0.5731764056674786 
1.1499999999998898, -0.5727961647040372 
1.1599999999998887, -0.5724210126957113 
1.1699999999998876, -0.5720707656364993 
1.1799999999998865, -0.5717743786049538 
1.1899999999998854, -0.5715730645277636 
1.1999999999998843, -0.571522156807289 
1.2099999999998832, -0.571688966539513 
1.219999999999882, -0.572142509532736 
1.229999999999881, -0.5729315684904305 
1.2399999999998799, -0.574053761458762 
1.2499999999998788, -0.5754313287021107 
1.2599999999998777, -0.5769185148091505 
1.2699999999998766, -0.5783497180252668 
1.2799999999998755, -0.5795997324919425 
1.2899999999998744, -0.5806130061022917 
1.2999999999998733, -0.5813914468859116 
1.3099999999998722, -0.5819652630998677 
1.319999999999871, -0.5823705905674406 
1.32999999999987, -0.5826393628344675 
1.3399999999998689, -0.5827967493997332 
1.3499999999998678, -0.582861345196255 
1.3599999999998666, -0.5828458275558832 
1.3699999999998655, -0.5827574371413075 
1.3799999999998644, -0.5825982617885974 
1.3899999999998633, -0.5823655101375591 
1.3999999999998622, -0.5820521122934965 
1.4099999999998611, -0.5816481532306195 
1.41999999999986, -0.5811436900657067 
1.429999999999859, -0.5805331076186329 
1.4399999999998578, -0.5798200792385009 
1.4499999999998567, -0.5790208482626487 
1.4599999999998556, -0.578163327500181 
1.4699999999998545, -0.5772815402667026 
1.4799999999998534, -0.5764079942145693 
1.4899999999998523, -0.5755678194089715 
1.4999999999998512, -0.5747768423624844 
1.5099999999998501, -0.5740431225823982 
1.519999999999849, -0.5733700801000324 
1.529999999999848, -0.5727595605439337 
1.5399999999998468, -0.5722140854494879 
1.5499999999998457, -0.5717382637086368 
1.5599999999998446, -0.5713396377829127 
1.5699999999998435, -0.5710292336791871 
1.5799999999998424, -0.5708219676241229 
1.5899999999998413, -0.5707369380105497 
1.5999999999998402, -0.5707975095225328 
1.6099999999998391, -0.5710309386911361 
1.619999999999838, -0.5714670495898004 
1.629999999999837, -0.5721351418241384 
1.6399999999998358, -0.5730580430932075 
1.6499999999998347, -0.5742424589585295 
1.6599999999998336, -0.5756663573809073 
1.6699999999998325, -0.5772676925278166 
1.6799999999998314, -0.5789429104294304 
1.6899999999998303, -0.5805632618784174 
1.6999999999998292, -0.5820070164499714 
1.709999999999828, -0.5831916647021003 
1.719999999999827, -0.5840877769709677 
1.729999999999826, -0.5847103460348773 
1.7399999999998248, -0.5850985836143076 
1.7499999999998237, -0.5852972250899832 
1.7599999999998226, -0.5853451712926656 
1.7699999999998215, -0.5852707576752576 
1.7799999999998204, -0.5850907318709818 
1.7899999999998193, -0.5848105010517852 
1.7999999999998182, -0.5844243159970641 
1.809999999999817, -0.5839149818097156 
1.819999999999816, -0.5832534710224616 
1.8299999999998149, -0.5823997577551981 
1.8399999999998138, -0.5813073669395179 
1.8499999999998127, -0.5799347612639704 
1.8599999999998116, -0.5782646196427461 
1.8699999999998105, -0.5763253366381706 
1.8799999999998094, -0.5742010915768463 
1.8899999999998083, -0.5720182447737914 
1.8999999999998072, -0.569911600167113 
1.909999999999806, -0.5679898590084822 
1.919999999999805, -0.5663177819459861 
1.9299999999998039, -0.5649175812093848 
1.9399999999998028, -0.5637810101525911 
1.9499999999998017, -0.5628829575736904 
1.9599999999998006, -0.5621918249356814 
1.9699999999997995, -0.5616758724505695 
1.9799999999997984, -0.5613064601768665 
1.9899999999997973, -0.561059374347114 
1.9999999999997962, -0.5609151351484589 
2.0099999999998173, -0.560858826758759 
2.0199999999998384, -0.560879727985528 
2.0299999999998595, -0.5609708485783338 
2.0399999999998806, -0.5611283422189143 
2.0499999999999017, -0.5613506311819679 
2.059999999999923, -0.5616369493782771 
2.069999999999944, -0.561984994215901 
2.079999999999965, -0.5623876722196403 
2.089999999999986, -0.5628296768675574 
2.100000000000007, -0.5632856159353238 
2.1100000000000283, -0.5637217359090567 
2.1200000000000494, -0.5641019284384783 
2.1300000000000705, -0.5643958894137766 
2.1400000000000916, -0.5645853466229964 
2.1500000000001127, -0.5646653937871058 
2.160000000000134, -0.5646412340947797 
2.170000000000155, -0.5645229432307883 
2.180000000000176, -0.5643207413794596 
2.190000000000197, -0.5640418273868024 
2.2000000000002182, -0.5636886188777555 
2.2100000000002393, -0.5632577709582884 
2.2200000000002604, -0.5627393675913452 
2.2300000000002815, -0.5621158665779319 
2.2400000000003026, -0.5613606237307351 
2.2500000000003237, -0.5604362940825349 
2.260000000000345, -0.5592945728421752 
2.270000000000366, -0.5578810707792569 
2.280000000000387, -0.5561515807570642 
2.290000000000408, -0.5541033001653252 
2.3000000000004293, -0.5518096564148679 
2.3100000000004504, -0.5494281930829042 
2.3200000000004715, -0.5471587732447111 
2.3300000000004926, -0.5451729388515419 
2.3400000000005137, -0.5435636823519255 
2.3500000000005348, -0.5423409475987274 
2.360000000000556, -0.5414586426558505 
2.370000000000577, -0.5408470015693274 
2.380000000000598, -0.5404354162348489 
2.390000000000619, -0.5401636701445292 
2.4000000000006403, -0.5399851027744983 
2.4100000000006614, -0.5398656342779178 
2.4200000000006825, -0.5397812818028985 
2.4300000000007036, -0.5397155517249833 
2.4400000000007247, -0.5396573127161848 
2.450000000000746, -0.5395993519142092 
2.460000000000767, -0.5395376028748216 
2.470000000000788, -0.5394708545149126 
2.480000000000809, -0.539400538215918 
2.49000000000083, -0.5393300293032517 
2.5000000000008513, -0.5392630193304939 
2.5100000000008724, -0.5392010878190493 
2.5200000000008935, -0.5391414101695114 
2.5300000000009146, -0.5390759419928529 
2.5400000000009357, -0.5389928660518518 
2.550000000000957, -0.5388797687676881 
2.560000000000978, -0.5387269205629894 
2.570000000000999, -0.5385291016428198 
2.58000000000102, -0.5382855216146465 
2.5900000000010412, -0.5379985016205331 
2.6000000000010624, -0.5376719477459253 
2.6100000000010835, -0.537310341275812 
2.6200000000011046, -0.5369185162336771 
2.6300000000011257, -0.5365022040377279 
2.6400000000011468, -0.5360691936812819 
2.650000000001168, -0.5356308136055344 
2.660000000001189, -0.5352030889958446 
2.67000000000121, -0.5348062434627541 
2.680000000001231, -0.5344604393011074 
2.6900000000012523, -0.5341760187147575 
2.7000000000012734, -0.5339404951820488 
2.7100000000012945, -0.5337129026377088 
2.7200000000013156, -0.5334402109634774 
2.7300000000013367, -0.5330941064175033 
2.740000000001358, -0.532696975053842 
2.750000000001379, -0.5323080878691738 
2.7600000000014, -0.5319840282420828 
2.770000000001421, -0.5317509926858424 
2.780000000001442, -0.5316038532018552 
2.7900000000014633, -0.5315200215727576 
2.8000000000014844, -0.5314730970853107 
2.8100000000015055, -0.5314403944189674 
2.8200000000015266, -0.5314051212415882 
2.8300000000015477, -0.531355705036036 
2.840000000001569, -0.5312841814652631 
2.85000000000159, -0.5311846587449316 
2.860000000001611, -0.5310523043264838 
2.870000000001632, -0.5308830466572679 
2.8800000000016532, -0.5306740571332617 
2.8900000000016743, -0.5304248821845214 
2.9000000000016954, -0.5301387336623188 
2.9100000000017165, -0.5298230599569878 
2.9200000000017377, -0.5294885366547536 
2.9300000000017588, -0.5291463778350626 
2.94000000000178, -0.5288050405041755 
2.950000000001801, -0.5284680041201562 
2.960000000001822, -0.5281337267536957 
2.970000000001843, -0.5277975554893277 
2.9800000000018643, -0.5274543581045456 
2.9900000000018854, -0.5271006049892908 
3.0000000000019065, -0.5267353580922005 
3.0100000000019276, -0.5263604162797082 
3.0200000000019487, -0.5259802268111506 
3.03000000000197, -0.5256021059551779 
3.040000000001991, -0.5252370828383317 
3.050000000002012, -0.5249014788692997 
3.060000000002033, -0.5246191654930661 
3.070000000002054, -0.5244241760820333 
3.0800000000020753, -0.5243627823156801 
3.0900000000020964, -0.524493087806472 
3.1000000000021175, -0.5248787312682305 
3.1100000000021386, -0.5255725362201513 
3.1200000000021597, -0.5265889617294728 
3.130000000002181, -0.5278747017112636 
3.140000000002202, -0.5293010134743124 
3.150000000002223, -0.5306993065982215 
3.160000000002244, -0.5319267866560216 
3.1700000000022652, -0.5329136881832095 
3.1800000000022863, -0.5336609054159498 
3.1900000000023074, -0.5342061606425929 
3.2000000000023285, -0.5345931190978209 
3.2100000000023496, -0.5348573415791039 
3.2200000000023707, -0.5350242439150613 
3.230000000002392, -0.5351112263778155 
3.240000000002413, -0.5351299116043942 
3.250000000002434, -0.535087503438781 
3.260000000002455, -0.5349874533779929 
3.2700000000024763, -0.5348298364695718 
3.2800000000024974, -0.5346118242849683 
3.2900000000025185, -0.5343286410435526 
3.3000000000025396, -0.533975354610786 
3.3100000000025607, -0.5335495966823874 
3.3200000000025818, -0.5330546636352398 
3.330000000002603, -0.5325016218166645 
3.340000000002624, -0.5319088058134585 
3.350000000002645, -0.53129821408497 
3.360000000002666, -0.5306902926702339 
3.3700000000026873, -0.5300997234515685 
3.3800000000027084, -0.5295340287673783 
3.3900000000027295, -0.5289949333701112 
3.4000000000027506, -0.5284811096459305 
3.4100000000027717, -0.5279908580285719 
3.420000000002793, -0.5275239941488699 
3.430000000002814, -0.5270829696463968 
3.440000000002835, -0.5266736308670997 
3.450000000002856, -0.5263060346235743 
3.460000000002877, -0.5259955882622094 
3.4700000000028983, -0.5257646044431643 
3.4800000000029194, -0.5256441767515365 
3.4900000000029405, -0.5256760125900702 
3.5000000000029616, -0.5259133741673284 
3.5100000000029827, -0.5264194528258949 
3.520000000003004, -0.5272604034044426 
3.530000000003025, -0.5284896312627386 
3.540000000003046, -0.5301218548244662 
3.550000000003067, -0.5321029934581712 
3.5600000000030882, -0.5342943346661836 
3.5700000000031094, -0.5364942455948424 
3.5800000000031305, -0.5384996790711135 
3.5900000000031516, -0.540172243558959 
3.6000000000031727, -0.5414651938308053 
3.6100000000031938, -0.5424041574806967 
3.620000000003215, -0.5430492750098785 
3.630000000003236, -0.543465249168707 
3.640000000003257, -0.5437066896180837 
3.650000000003278, -0.5438142368843484 
3.6600000000032993, -0.5438154799408392 
3.6700000000033204, -0.5437270803923817 
3.6800000000033415, -0.543556676250511 
3.6900000000033626, -0.5433043067004754 
3.7000000000033837, -0.542963666464475 
3.710000000003405, -0.5425238376769476 
3.720000000003426, -0.5419723287974285 
3.730000000003447, -0.5413000038061065 
3.740000000003468, -0.5405073828407403 
3.750000000003489, -0.5396099461345948 
3.7600000000035103, -0.5386389477671389 
3.7700000000035314, -0.5376358805024646 
3.7800000000035525, -0.5366427859087548 
3.7900000000035736, -0.5356934304757207 
3.8000000000035947, -0.5348092007791669 
3.810000000003616, -0.5340000247415831 
3.820000000003637, -0.5332681201430305 
3.830000000003658, -0.5326121620284507 
3.840000000003679, -0.5320305385960171 
3.8500000000037002, -0.5315234451132038 
3.8600000000037213, -0.5310941193102179 
3.8700000000037424, -0.5307496228297942 
3.8800000000037635, -0.530501462182325 
3.8900000000037847, -0.5303661851740182 
3.9000000000038058, -0.5303659341578764 
3.910000000003827, -0.5305287569541641 
3.920000000003848, -0.5308882072241631 
3.930000000003869, -0.5314813569812522 
3.94000000000389, -0.5323438471324492 
3.9500000000039113, -0.5335003756056408 
3.9600000000039324, -0.5349499965460547 
3.9700000000039535, -0.536649115264881 
3.9800000000039746, -0.5385010924628224 
3.9900000000039957, -0.5403651147991478 
4.000000000004016, -0.5420895143067138 
4.010000000003993, -0.5435555503816583 
4.02000000000397, -0.5447055372813991 
4.030000000003946, -0.5455412776558107 
4.040000000003923, -0.5461019026390649 
4.0500000000039, -0.5464392857144494 
4.0600000000038765, -0.5466017405376098 
4.070000000003853, -0.5466268049975878 
4.08000000000383, -0.5465396260864195 
4.090000000003807, -0.5463536104835229 
4.100000000003783, -0.546071446314291 
4.11000000000376, -0.5456858273204794 
4.120000000003737, -0.54518006319054 
4.130000000003713, -0.5445294866316257 
4.14000000000369, -0.5437052501719992 
4.150000000003667, -0.542682258245726 
4.1600000000036434, -0.5414514267526596 
4.17000000000362, -0.5400324543539038 
4.180000000003597, -0.5384791751103384 
4.1900000000035735, -0.5368710220123173 
4.20000000000355, -0.535293094142854 
4.210000000003527, -0.533815803128834 
4.220000000003504, -0.5324840270794488 
4.23000000000348, -0.5313174786142264 
4.240000000003457, -0.530317636906911 
4.250000000003434, -0.529475883057787 
4.26000000000341, -0.5287798731441136 
4.270000000003387, -0.5282175054992203 
4.280000000003364, -0.5277789842889493 
4.2900000000033405, -0.5274577190632008 
4.300000000003317, -0.5272506440396909 
4.310000000003294, -0.5271583065563621 
4.320000000003271, -0.5271848709414864 
4.330000000003247, -0.5273380118203234 
4.340000000003224, -0.5276284913467613 
4.350000000003201, -0.5280689956655854 
4.360000000003177, -0.528671570652457 
4.370000000003154, -0.5294429096144551 
4.380000000003131, -0.5303772006626585 
4.390000000003107, -0.5314477705956854 
4.400000000003084, -0.5326013701557037 
4.410000000003061, -0.5337608575086505 
4.4200000000030375, -0.5348396783600181 
4.430000000003014, -0.535763696060859 
4.440000000002991, -0.5364888176603879 
4.450000000002968, -0.5370051147170886 
4.460000000002944, -0.5373281814254692 
4.470000000002921, -0.5374856640075218 
4.480000000002898, -0.5375060408110965 
4.490000000002874, -0.5374120544456416 
4.500000000002851, -0.5372178484641001 
4.510000000002828, -0.5369279728474312 
4.520000000002804, -0.5365368522881238 
4.530000000002781, -0.5360280452927474 
4.540000000002758, -0.5353733837088522 
4.5500000000027345, -0.5345330393349539 
4.560000000002711, -0.533458872356159 
4.570000000002688, -0.5321045212497777 
4.580000000002665, -0.5304444763213138 
4.590000000002641, -0.5284979892386773 
4.600000000002618, -0.5263439008766299 
4.610000000002595, -0.524110645967623 
4.620000000002571, -0.5219413249969572 
4.630000000002548, -0.5199541184582654 
4.640000000002525, -0.5182200229638797 
4.6500000000025015, -0.5167631413681052 
4.660000000002478, -0.515574224046091 
4.670000000002455, -0.5146263005480644 
4.6800000000024315, -0.5138864914106361 
4.690000000002408, -0.5133229802365865 
4.700000000002385, -0.5129083212740064 
4.710000000002362, -0.5126205746899818 
4.720000000002338, -0.5124433760943421 
4.730000000002315, -0.5123655898465891 
4.740000000002292, -0.5123808574177389 
4.750000000002268, -0.5124871258249619 
4.760000000002245, -0.5126860658455082 
4.770000000002222, -0.512982112824149 
4.7800000000021985, -0.513380683250481 
4.790000000002175, -0.5138850429973971 
4.800000000002152, -0.5144915817261365 
4.810000000002129, -0.515184197613302 
4.820000000002105, -0.5159300951051847 
4.830000000002082, -0.5166805244741728 
4.840000000002059, -0.5173788324606348 
4.850000000002035, -0.5179737816281526 
4.860000000002012, -0.518431544629682 
4.870000000001989, -0.5187401264380458 
4.880000000001965, -0.51890539713494 
4.890000000001942, -0.5189428604336068 
4.900000000001919, -0.5188697925307137 
4.9100000000018955, -0.5186999259090826 
4.920000000001872, -0.5184405394798192 
