t, s[1].omega / s[0].omega 
0, -0.7999976512873234 
0.009999999999999995, -0.7997329513897647 
0.019999999999999934, -0.7994091380842544 
0.029999999999999874, -0.7990269211004624 
0.04000000000000012, -0.798589809853054 
0.050000000000000405, -0.7981060155488227 
0.06000000000000069, -0.7975894852174344 
0.07000000000000098, -0.7970603292965392 
0.08000000000000126, -0.7965452011788869 
0.09000000000000155, -0.7960777002070689 
0.10000000000000184, -0.7956981750031356 
0.11000000000000212, -0.7954519939904418 
0.12000000000000241, -0.7953857170758545 
0.130000000000002, -0.7955415407154645 
0.1400000000000009, -0.7959513526196241 
0.1499999999999998, -0.7966319987563428 
0.1599999999999987, -0.7975826209086704 
0.1699999999999976, -0.7987836360308471 
0.1799999999999965, -0.8001960704770008 
0.1899999999999954, -0.8017603818411134 
0.1999999999999943, -0.803395817454357 
0.2099999999999932, -0.8050038488725331 
0.2199999999999921, -0.8064797598842194 
0.229999999999991, -0.8077322445500495 
0.2399999999999899, -0.8087032681596638 
0.2499999999999888, -0.8093771073460305 
0.2599999999999877, -0.8097739887792612 
0.2699999999999866, -0.8099341248926131 
0.2799999999999855, -0.8099018719143365 
0.2899999999999844, -0.8097159456611861 
0.2999999999999833, -0.8094064300494519 
0.3099999999999822, -0.8089970293176372 
0.3199999999999811, -0.8085114304032969 
0.32999999999998, -0.8079839492708663 
0.3399999999999789, -0.8074753684203971 
0.3499999999999778, -0.807093788277695 
0.35999999999997667, -0.8070160143383409 
0.36999999999997557, -0.8074968340215956 
0.37999999999997447, -0.8088444420411276 
0.38999999999997337, -0.8113401034994336 
0.39999999999997227, -0.8151039815136647 
0.40999999999997117, -0.8199619952242971 
0.41999999999997006, -0.8254169288897393 
0.42999999999996896, -0.8307953003214446 
0.43999999999996786, -0.8355044464674686 
0.44999999999996676, -0.8392239167604577 
0.45999999999996566, -0.8419215246940362 
0.46999999999996456, -0.8437440392188467 
0.47999999999996346, -0.844894723585842 
0.48999999999996235, -0.8455586057486306 
0.49999999999996125, -0.8458752464477535 
0.5099999999999602, -0.8459374519744948 
0.519999999999959, -0.8457985256598958 
0.529999999999958, -0.8454793595102507 
0.5399999999999568, -0.844972290900097 
0.5499999999999557, -0.8442412517965234 
0.5599999999999546, -0.8432190827599259 
0.5699999999999535, -0.841804561471279 
0.5799999999999524, -0.8398649751609126 
0.5899999999999513, -0.8372553394754373 
0.5999999999999502, -0.8338695618554338 
0.6099999999999491, -0.829730821860107 
0.619999999999948, -0.8250913113010455 
0.6299999999999469, -0.8204539934039538 
0.6399999999999458, -0.8164297291498759 
0.6499999999999447, -0.8134769276318817 
0.6599999999999436, -0.8117163979006513 
0.6699999999999425, -0.8109548409083981 
0.6799999999999414, -0.8108522004587126 
0.6899999999999403, -0.811083631187266 
0.6999999999999392, -0.8114177101797113 
0.7099999999999381, -0.8117213676603988 
0.719999999999937, -0.8119320061561199 
0.7299999999999359, -0.8120261518052698 
0.7399999999999348, -0.8119959703445906 
0.7499999999999337, -0.8118343218734205 
0.7599999999999326, -0.8115255488146536 
0.7699999999999315, -0.8110393998032445 
0.7799999999999304, -0.8103271599547464 
0.7899999999999293, -0.8093214372390817 
0.7999999999999282, -0.8079436038862712 
0.8099999999999271, -0.8061235899930559 
0.819999999999926, -0.8038316984765392 
0.8299999999999249, -0.8011102991557495 
0.8399999999999238, -0.7980843284702582 
0.8499999999999227, -0.7949384265369163 
0.8599999999999216, -0.7918719706183297 
0.8699999999999205, -0.7890567069810462 
0.8799999999999194, -0.7866130351936627 
0.8899999999999183, -0.7846048236964516 
0.8999999999999172, -0.783044993791164 
0.9099999999999161, -0.7819055825433731 
0.919999999999915, -0.7811296488044702 
0.9299999999999139, -0.7806439892555104 
0.9399999999999128, -0.7803712596140402 
0.9499999999999117, -0.7802395631801676 
0.9599999999999106, -0.7801880712300114 
0.9699999999999095, -0.7801685841094611 
0.9799999999999084, -0.7801442108912169 
0.9899999999999073, -0.7800869066142051 
0.9999999999999062, -0.7799754368142913 
1.0099999999999052, -0.779794677936089 
1.019999999999904, -0.7795361863028768 
1.029999999999903, -0.7791989465917509 
1.039999999999902, -0.7787888082115327 
1.0499999999999008, -0.7783159909090854 
1.0599999999998997, -0.777791736045395 
1.0699999999998986, -0.7772260820319185 
1.0799999999998975, -0.7766278918490125 
1.0899999999998964, -0.7760066147924825 
1.0999999999998953, -0.7753744408109057 
1.1099999999998942, -0.7747479005560682 
1.119999999999893, -0.7741487109772912 
1.129999999999892, -0.7736039455365293 
1.1399999999998909, -0.7731454077134072 
1.1499999999998898, -0.7728078841186587 
1.1599999999998887, -0.7726261251328159 
1.1699999999998876, -0.772630938656752 
1.1799999999998865, -0.7728453290158632 
1.1899999999998854, -0.7732817195576875 
1.1999999999998843, -0.7739407781107466 
1.2099999999998832, -0.7748114729742831 
1.219999999999882, -0.7758712546354583 
1.229999999999881, -0.777085191891772 
1.2399999999998799, -0.7784038088374483 
1.2499999999998788, -0.7797612562595044 
1.2599999999998777, -0.781077451400362 
1.2699999999998766, -0.7822677445238485 
1.2799999999998755, -0.7832594109005048 
1.2899999999998744, -0.7840077555858042 
1.2999999999998733, -0.7845026360973377 
1.3099999999998722, -0.78476241117615 
1.319999999999871, -0.7848206968597597 
1.32999999999987, -0.7847138151878729 
1.3399999999998689, -0.7844734331984425 
1.3499999999998678, -0.7841248639724948 
1.3599999999998666, -0.7836899244757248 
1.3699999999998655, -0.7831937082531202 
1.3799999999998644, -0.7826756444056617 
1.3899999999998633, -0.7822055321073196 
1.3999999999998622, -0.781903701698377 
1.4099999999998611, -0.7819598093653495 
1.41999999999986, -0.782636696051771 
1.429999999999859, -0.7842375688649855 
1.4399999999998578, -0.787016741320061 
1.4499999999998567, -0.7910417752923871 
1.4599999999998556, -0.796071503517366 
1.4699999999998545, -0.8015577701333634 
1.4799999999998534, -0.8068256012754983 
1.4899999999998523, -0.8113335489641325 
1.4999999999998512, -0.8148311542435058 
1.5099999999998501, -0.8173372096884579 
1.519999999999849, -0.8190181324221995 
1.529999999999848, -0.820074687827106 
1.5399999999998468, -0.8206805520196022 
1.5499999999998457, -0.8209633136883614 
1.5599999999998446, -0.8210061433947191 
1.5699999999998435, -0.8208551365019636 
1.5799999999998424, -0.8205253930215453 
1.5899999999998413, -0.8200034502523327 
1.5999999999998402, -0.819245603808295 
1.6099999999998391, -0.8181726737826626 
1.619999999999838, -0.8166634832817422 
1.629999999999837, -0.8145533481901651 
1.6399999999998358, -0.8116512440110857 
1.6499999999998347, -0.8077964539664411 
1.6599999999998336, -0.8029667220185528 
1.6699999999998325, -0.7974018858760193 
1.6799999999998314, -0.7916370553146257 
1.6899999999998303, -0.7863517405104622 
1.6999999999998292, -0.7820982016935373 
1.709999999999828, -0.7791059363858764 
1.719999999999827, -0.7772813367435546 
1.729999999999826, -0.7763445913691437 
1.7399999999998248, -0.7759792909089253 
1.7499999999998237, -0.7759229174825057 
1.7599999999998226, -0.7759943430394795 
1.7699999999998215, -0.7760841043196313 
1.7799999999998204, -0.7761320346759093 
1.7899999999998193, -0.7761058211832832 
1.7999999999998182, -0.7759849831860426 
1.809999999999817, -0.7757502450214647 
1.819999999999816, -0.7753771291519209 
1.8299999999998149, -0.7748332327504077 
1.8399999999998138, -0.7740799163186576 
1.8499999999998127, -0.7730798666832464 
1.8599999999998116, -0.7718106091084126 
1.8699999999998105, -0.7702797120496001 
1.8799999999998094, -0.7685330124225601 
1.8899999999998083, -0.7666488445512432 
1.8999999999998072, -0.7647203679226813 
1.909999999999806, -0.7628361624912136 
1.919999999999805, -0.7610681414011755 
1.9299999999998039, -0.7594684912079339 
1.9399999999998028, -0.7580718995202621 
1.9499999999998017, -0.7568987724585827 
1.9599999999998006, -0.7559572652533151 
1.9699999999997995, -0.7552440803785756 
1.9799999999997984, -0.7547450539545167 
1.9899999999997973, -0.7544365707124846 
1.9999999999997962, -0.7542882140791255 
2.0099999999998173, -0.7542662741950388 
2.0199999999998384, -0.754337267947037 
2.0299999999998595, -0.7544706842150941 
2.0399999999998806, -0.7546406045882704 
2.0499999999999017, -0.7548262934405303 
2.059999999999923, -0.7550119931837111 
2.069999999999944, -0.7551859833166727 
2.079999999999965, -0.7553387984852037 
2.089999999999986, -0.7554608086540329 
2.100000000000007, -0.7555401690035769 
2.1100000000000283, -0.7555626550199619 
2.1200000000000494, -0.7555141259493255 
2.1300000000000705, -0.7553845171001103 
2.1400000000000916, -0.7551710427564073 
2.1500000000001127, -0.7548790481646493 
2.160000000000134, -0.7545209240959584 
2.170000000000155, -0.7541147980293748 
2.180000000000176, -0.7536845590567698 
2.190000000000197, -0.7532618148409157 
2.2000000000002182, -0.7528894169664231 
2.2100000000002393, -0.7526254418655404 
2.2200000000002604, -0.7525459082451306 
2.2300000000002815, -0.7527441435431519 
2.2400000000003026, -0.7533248741061037 
2.2500000000003237, -0.7543919369730523 
2.260000000000345, -0.756029666007547 
2.270000000000366, -0.7582790743811181 
2.280000000000387, -0.7611114706361044 
2.290000000000408, -0.764405954224737 
2.3000000000004293, -0.7679440044711362 
2.3100000000004504, -0.7714381179586034 
2.3200000000004715, -0.7745991545336897 
2.3300000000004926, -0.7772165069053008 
2.3400000000005137, -0.7792051215947197 
2.3500000000005348, -0.780595057194662 
2.360000000000556, -0.7814827414337031 
2.370000000000577, -0.7819806209785519 
2.380000000000598, -0.7821861293799992 
2.390000000000619, -0.782170090071576 
2.4000000000006403, -0.7819761928493101 
2.4100000000006614, -0.7816242787744959 
2.4200000000006825, -0.7811137144640814 
2.4300000000007036, -0.7804258796081744 
2.4400000000007247, -0.779526522496418 
2.450000000000746, -0.7783700495258131 
2.460000000000767, -0.7769089152457452 
2.470000000000788, -0.7751114103613644 
2.480000000000809, -0.7729885110593273 
2.49000000000083, -0.770623803758755 
2.5000000000008513, -0.768192236888076 
2.5100000000008724, -0.7659487360763535 
2.5200000000008935, -0.7641700962171853 
2.5300000000009146, -0.7630547881738858 
2.5400000000009357, -0.762634487581481 
2.550000000000957, -0.7627702394995387 
2.560000000000978, -0.7632363018597873 
2.570000000000999, -0.763819058920375 
2.58000000000102, -0.7643705959737479 
2.5900000000010412, -0.764812770475808 
2.6000000000010624, -0.7651167977197832 
2.6100000000010835, -0.7652798198244415 
2.6200000000011046, -0.765307359032474 
2.6300000000011257, -0.7652023115783418 
2.6400000000011468, -0.7649583009973286 
2.650000000001168, -0.7645552892616371 
2.660000000001189, -0.7639565777574185 
2.67000000000121, -0.7631081451296217 
2.680000000001231, -0.7619434134106948 
2.6900000000012523, -0.7603977521203639 
2.7000000000012734, -0.7584342136622186 
2.7100000000012945, -0.7560727908181741 
2.7200000000013156, -0.7534054861650576 
2.7300000000013367, -0.7505825761897889 
2.740000000001358, -0.7477751274967653 
2.750000000001379, -0.7451356259076652 
2.7600000000014, -0.7427748830046322 
2.770000000001421, -0.7407575675117137 
2.780000000001442, -0.7391085039035655 
2.7900000000014633, -0.7378218411892943 
2.8000000000014844, -0.7368694328941003 
2.8100000000015055, -0.7362080243234725 
2.8200000000015266, -0.7357858191394558 
2.8300000000015477, -0.7355485673109456 
2.840000000001569, -0.7354446754214795 
2.85000000000159, -0.7354286923186927 
2.860000000001611, -0.7354629243495272 
2.870000000001632, -0.7355175270027053 
2.8800000000016532, -0.7355698067888079 
2.8900000000016743, -0.7356034418321558 
2.9000000000016954, -0.7356078985839661 
2.9100000000017165, -0.7355777071915427 
2.9200000000017377, -0.7355109350894045 
2.9300000000017588, -0.7354066637639874 
2.94000000000178, -0.7352623897905118 
2.950000000001801, -0.7350729774134448 
2.960000000001822, -0.7348320780939048 
2.970000000001843, -0.7345352164588335 
2.9800000000018643, -0.7341826630894273 
2.9900000000018854, -0.7337807971469259 
3.0000000000019065, -0.7333421584432224 
3.0100000000019276, -0.7328853365289071 
3.0200000000019487, -0.7324356976722161 
3.03000000000197, -0.7320271909933911 
3.040000000001991, -0.7317047007879862 
3.050000000002012, -0.7315258739413997 
3.060000000002033, -0.7315611178209641 
3.070000000002054, -0.7318906049915066 
3.0800000000020753, -0.7325976152590017 
3.0900000000020964, -0.733758114424629 
3.1000000000021175, -0.7354267192862779 
3.1100000000021386, -0.7376192105536459 
3.1200000000021597, -0.740292704907776 
3.130000000002181, -0.7433284094271289 
3.140000000002202, -0.7465286072091857 
3.150000000002223, -0.7496428371132191 
3.160000000002244, -0.7524264413142462 
3.1700000000022652, -0.7547076276858827 
3.1800000000022863, -0.7564237746308937 
3.1900000000023074, -0.7576087859002609 
3.2000000000023285, -0.7583500087122156 
3.2100000000023496, -0.758745704941329 
3.2200000000023707, -0.7588794904793785 
3.230000000002392, -0.7588109947558415 
3.240000000002413, -0.7585755056802622 
3.250000000002434, -0.758186553512328 
3.260000000002455, -0.7576383777188538 
3.2700000000024763, -0.7569074836732287 
3.2800000000024974, -0.755953925752433 
3.2900000000025185, -0.754724050002747 
3.3000000000025396, -0.7531574084100849 
3.3100000000025607, -0.7512010412311239 
3.3200000000025818, -0.7488335151308558 
3.330000000002603, -0.7460983730466116 
3.340000000002624, -0.7431403143537277 
3.350000000002645, -0.740221729368043 
3.360000000002666, -0.7376779348049911 
3.3700000000026873, -0.735794727921067 
3.3800000000027084, -0.7346811295968099 
3.3900000000027295, -0.7342437236122639 
3.4000000000027506, -0.7342704972067308 
3.4100000000027717, -0.7345388430765281 
3.420000000002793, -0.7348794624870196 
3.430000000002814, -0.7351892615219586 
3.440000000002835, -0.7354167966751815 
3.450000000002856, -0.7355415283740967 
3.460000000002877, -0.7355567303077092 
3.4700000000028983, -0.7354579516422601 
3.4800000000029194, -0.7352358049103335 
3.4900000000029405, -0.7348715664269994 
3.5000000000029616, -0.7343350368930908 
3.5100000000029827, -0.7335855652960246 
3.520000000003004, -0.7325784287143244 
3.530000000003025, -0.7312784333979372 
3.540000000003046, -0.7296787340562848 
3.550000000003067, -0.7278162265783567 
3.5600000000030882, -0.7257721254190138 
3.5700000000031094, -0.7236542801557277 
3.5800000000031305, -0.7215710425288363 
3.5900000000031516, -0.7196110411844755 
3.6000000000031727, -0.7178356416856271 
3.6100000000031938, -0.7162813134420402 
3.620000000003215, -0.7149657035937278 
3.630000000003236, -0.7138930528632917 
3.640000000003257, -0.7130575775937069 
3.650000000003278, -0.7124453230474603 
3.6600000000032993, -0.7120355456593996 
3.6700000000033204, -0.7118024123748946 
3.6800000000033415, -0.7117172310368132 
3.6900000000033626, -0.7117509283755972 
3.7000000000033837, -0.7118762876211584 
3.710000000003405, -0.7120695565928631 
3.720000000003426, -0.7123112683353641 
3.730000000003447, -0.7125862548374251 
3.740000000003468, -0.7128827772083246 
3.750000000003489, -0.7131906004609554 
3.7600000000035103, -0.7134980903891355 
3.7700000000035314, -0.7137892377891006 
3.7800000000035525, -0.7140424452816615 
3.7900000000035736, -0.7142327600698691 
3.8000000000035947, -0.7143373013869966 
3.810000000003616, -0.7143411406708167 
3.820000000003637, -0.7142403448448744 
3.830000000003658, -0.7140410796294127 
3.840000000003679, -0.7137564293269223 
3.8500000000037002, -0.713403565792911 
3.8600000000037213, -0.7130030962757008 
3.8700000000037424, -0.7125812551178926 
3.8800000000037635, -0.7121749296602156 
3.8900000000037847, -0.7118391815661052 
3.9000000000038058, -0.7116563956175813 
3.910000000003827, -0.7117450048648858 
3.920000000003848, -0.7122637473980562 
3.930000000003869, -0.7134048973474905 
3.94000000000389, -0.7153679281112912 
3.9500000000039113, -0.7183061794903134 
3.9600000000039324, -0.7222484500414055 
3.9700000000039535, -0.7270206191488371 
3.9800000000039746, -0.732222507020049 
3.9900000000039957, -0.7373149250369441 
4.000000000004016, -0.7418005440108304 
4.010000000003993, -0.7453869125447272 
4.02000000000397, -0.7480257850060011 
4.030000000003946, -0.7498368455044542 
4.040000000003923, -0.7510020215062101 
4.0500000000039, -0.7516935170268404 
4.0600000000038765, -0.7520444607951976 
4.070000000003853, -0.752145306807056 
4.08000000000383, -0.752049612619249 
4.090000000003807, -0.7517803276895583 
4.100000000003783, -0.7513331308702285 
4.11000000000376, -0.7506758349911439 
4.120000000003737, -0.7497439136470874 
4.130000000003713, -0.7484333933788296 
4.14000000000369, -0.7465953607223406 
4.150000000003667, -0.7440427243176011 
4.1600000000036434, -0.7405882054748979 
4.17000000000362, -0.7361310171286268 
4.180000000003597, -0.7307754123680101 
4.1900000000035735, -0.7248999992196975 
4.20000000000355, -0.7190823363217579 
4.210000000003527, -0.7138930701700519 
4.220000000003504, -0.7097013940773841 
4.23000000000348, -0.7066106711453857 
4.240000000003457, -0.7045167664091531 
4.250000000003434, -0.7032107865650805 
4.26000000000341, -0.7024647399480836 
4.270000000003387, -0.702080310086643 
4.280000000003364, -0.7019062913850206 
4.2900000000033405, -0.7018371826532097 
4.300000000003317, -0.7018035288936475 
4.310000000003294, -0.7017605786957672 
4.320000000003271, -0.7016784625206587 
4.330000000003247, -0.7015350687428775 
4.340000000003224, -0.7013119162589441 
4.350000000003201, -0.7009930894569575 
4.360000000003177, -0.7005670691352823 
4.370000000003154, -0.7000304874386398 
4.380000000003131, -0.6993915198778695 
4.390000000003107, -0.698670037809858 
4.400000000003084, -0.6978932680571722 
4.410000000003061, -0.6970889292876808 
4.4200000000030375, -0.6962796802215189 
4.430000000003014, -0.6954814204759778 
4.440000000002991, -0.6947051373146965 
4.450000000002968, -0.6939602640432844 
4.460000000002944, -0.6932577043526267 
4.470000000002921, -0.6926117550563788 
4.480000000002898, -0.6920409661307395 
4.490000000002874, -0.6915681775895436 
4.500000000002851, -0.6912198588796998 
4.510000000002828, -0.6910248019042547 
4.520000000002804, -0.6910123056664246 
4.530000000002781, -0.6912101410546425 
4.540000000002758, -0.6916426122218049 
4.5500000000027345, -0.6923287995884209 
4.560000000002711, -0.6932805872892528 
4.570000000002688, -0.6944995396297831 
4.580000000002665, -0.6959715071098628 
4.590000000002641, -0.6976586713901152 
4.600000000002618, -0.6994912584695125 
4.610000000002595, -0.7013649581395976 
4.620000000002571, -0.7031518892198277 
4.630000000002548, -0.7047273647038576 
4.640000000002525, -0.7060019032088136 
4.6500000000025015, -0.7069400451393587 
4.660000000002478, -0.7075561187199387 
4.670000000002455, -0.7078939965364228 
4.6800000000024315, -0.7080052067385847 
4.690000000002408, -0.7079343470593441 
4.700000000002385, -0.7077126617912055 
4.710000000002362, -0.7073568172534089 
4.720000000002338, -0.7068699801850191 
4.730000000002315, -0.7062437248937005 
4.740000000002292, -0.7054606293384589 
4.750000000002268, -0.7044982997994134 
4.760000000002245, -0.7033358081376776 
4.770000000002222, -0.7019626371750134 
4.7800000000021985, -0.7003878313266707 
4.790000000002175, -0.6986449999034814 
4.800000000002152, -0.6967929081017118 
4.810000000002129, -0.6949222064635425 
4.820000000002105, -0.6931728011745919 
4.830000000002082, -0.691726896218064 
4.840000000002059, -0.6907395158722642 
4.850000000002035, -0.6902530333540684 
4.860000000002012, -0.6901824918852665 
4.870000000001989, -0.6903759233414843 
4.880000000001965, -0.6906850058641086 
4.890000000001942, -0.6910021908716105 
4.900000000001919, -0.6912646475896392 
4.9100000000018955, -0.6914423762703337 
4.920000000001872, -0.6915238233409562 
