t, s[1].omega / s[0].omega 
0, -0.539997745333603 
0.009999999999999995, -0.5397804825001401 
0.019999999999999934, -0.5395742847440019 
0.029999999999999874, -0.5393658725254162 
0.04000000000000012, -0.5391391473477848 
0.050000000000000405, -0.5388806629601043 
0.06000000000000069, -0.5385828534037512 
0.07000000000000098, -0.5382444941622592 
0.08000000000000126, -0.5378695805566406 
0.09000000000000155, -0.5374662633420147 
0.10000000000000184, -0.5370470149014703 
0.11000000000000212, -0.5366306321910786 
0.12000000000000241, -0.536246419028539 
0.130000000000002, -0.5359408087870149 
0.1400000000000009, -0.53578633887338 
0.1499999999999998, -0.5358914917403246 
0.1599999999999987, -0.5364062361959385 
0.1699999999999976, -0.5375110025103147 
0.1799999999999965, -0.53936875007216 
0.1899999999999954, -0.5420253400095756 
0.1999999999999943, -0.545291417283301 
0.2099999999999932, -0.5487227631780135 
0.2199999999999921, -0.5518043345659598 
0.229999999999991, -0.5542236286367533 
0.2399999999999899, -0.555967279559904 
0.2499999999999888, -0.557192722096555 
0.2599999999999877, -0.5580683354074265 
0.2699999999999866, -0.5587076199288534 
0.2799999999999855, -0.559174122223016 
0.2899999999999844, -0.5595029870488283 
0.2999999999999833, -0.5597157092374727 
0.3099999999999822, -0.5598265442350284 
0.3199999999999811, -0.5598443429750273 
0.32999999999998, -0.5597726606610381 
0.3399999999999789, -0.5596095816124629 
0.3499999999999778, -0.5593480698076934 
0.35999999999997667, -0.5589776002137137 
0.36999999999997557, -0.5584878341897759 
0.37999999999997447, -0.5578745039954988 
0.38999999999997337, -0.5571459814290493 
0.39999999999997227, -0.556326942202114 
0.40999999999997117, -0.5554555060416433 
0.41999999999997006, -0.5545738967381075 
0.42999999999996896, -0.5537174411068666 
0.43999999999996786, -0.5529077696499085 
0.44999999999996676, -0.5521525864149075 
0.45999999999996566, -0.5514502110841197 
0.46999999999996456, -0.5507954938374365 
0.47999999999996346, -0.5501846127591055 
0.48999999999996235, -0.5496180146801837 
0.49999999999996125, -0.5491020240970146 
0.5099999999999602, -0.5486500395524398 
0.519999999999959, -0.5482840517055549 
0.529999999999958, -0.5480368746920539 
0.5399999999999568, -0.5479552010010074 
0.5499999999999557, -0.5481033534201878 
0.5599999999999546, -0.548567245188038 
0.5699999999999535, -0.5494572779372515 
0.5799999999999524, -0.5509072879983621 
0.5899999999999513, -0.5530638446435875 
0.5999999999999502, -0.556056871369846 
0.6099999999999491, -0.5599428002212452 
0.619999999999948, -0.5646252335318185 
0.6299999999999469, -0.5697936961135364 
0.6399999999999458, -0.574954702376498 
0.6499999999999447, -0.5795904778307581 
0.6599999999999436, -0.5833555200890292 
0.6699999999999425, -0.5861618840578207 
0.6799999999999414, -0.5881171295784611 
0.6899999999999403, -0.5894072723669826 
0.6999999999999392, -0.5902121994552555 
0.7099999999999381, -0.5906714340440741 
0.719999999999937, -0.5908806232641834 
0.7299999999999359, -0.5908988271116696 
0.7399999999999348, -0.5907564806908261 
0.7499999999999337, -0.5904607439653285 
0.7599999999999326, -0.5899980218665928 
0.7699999999999315, -0.5893348269104993 
0.7799999999999304, -0.5884194719942327 
0.7899999999999293, -0.5871888555349617 
0.7999999999999282, -0.585585546050922 
0.8099999999999271, -0.5835866173336784 
0.819999999999926, -0.5812340930537946 
0.8299999999999249, -0.5786449155874193 
0.8399999999999238, -0.5759849325321862 
0.8499999999999227, -0.5734192911952356 
0.8599999999999216, -0.5710707122693492 
0.8699999999999205, -0.5690053801153165 
0.8799999999999194, -0.5672422882352071 
0.8899999999999183, -0.5657713166641876 
0.8999999999999172, -0.5645691992995361 
0.9099999999999161, -0.5636097537055751 
0.919999999999915, -0.5628690374564306 
0.9299999999999139, -0.562327312629589 
0.9399999999999128, -0.5619694464189188 
0.9499999999999117, -0.5617847785048149 
0.9599999999999106, -0.561766983934812 
0.9699999999999095, -0.5619141226919904 
0.9799999999999084, -0.5622288333214891 
0.9899999999999073, -0.5627184085210188 
0.9999999999999062, -0.5633942016666481 
1.0099999999999052, -0.5642694244762599 
1.019999999999904, -0.5653540500375523 
1.029999999999903, -0.5666457368261483 
1.039999999999902, -0.568117371823367 
1.0499999999999008, -0.5697057070502771 
1.0599999999998997, -0.5713100463697163 
1.0699999999998986, -0.5728092464712826 
1.0799999999998975, -0.5740941020420144 
1.0899999999998964, -0.5750974905458998 
1.0999999999998953, -0.5758040506572542 
1.1099999999998942, -0.5762377094294694 
1.119999999999893, -0.5764400475596432 
1.129999999999892, -0.5764522107676159 
1.1399999999998909, -0.5763046170691579 
1.1499999999998898, -0.5760125188385518 
1.1599999999998887, -0.5755739261721081 
1.1699999999998876, -0.5749671148064055 
1.1799999999998865, -0.5741459254310977 
1.1899999999998854, -0.5730319204532157 
1.1999999999998843, -0.5715041178557384 
1.2099999999998832, -0.5693916670208351 
1.219999999999882, -0.5664850227918597 
1.229999999999881, -0.5625931110216117 
1.2399999999998799, -0.5576632234493133 
1.2499999999998788, -0.5519127079928163 
1.2599999999998777, -0.5458417310324772 
1.2699999999998766, -0.54005703528561 
1.2799999999998755, -0.5350311939911799 
1.2899999999998744, -0.5309808132846663 
1.2999999999998733, -0.5278988897145629 
1.3099999999998722, -0.5256533003934332 
1.319999999999871, -0.5240722836555823 
1.32999999999987, -0.5229929410162728 
1.3399999999998689, -0.5222803670110314 
1.3499999999998678, -0.5218307204783519 
1.3599999999998666, -0.5215676052224036 
1.3699999999998655, -0.5214366456485644 
1.3799999999998644, -0.5214003551733264 
1.3899999999998633, -0.5214340263901323 
1.3999999999998622, -0.5215227827801177 
1.4099999999998611, -0.5216596560963108 
1.41999999999986, -0.5218443147094072 
1.429999999999859, -0.5220817529484196 
1.4399999999998578, -0.5223799606868543 
1.4499999999998567, -0.5227456770642966 
1.4599999999998556, -0.5231782139555191 
1.4699999999998545, -0.5236630583123401 
1.4799999999998534, -0.5241687166892517 
1.4899999999998523, -0.5246502938274402 
1.4999999999998512, -0.5250600609010725 
1.5099999999998501, -0.5253601553692342 
1.519999999999849, -0.5255304089221557 
1.529999999999848, -0.5255679339536588 
1.5399999999998468, -0.5254807667102054 
1.5499999999998457, -0.5252801712786858 
1.5599999999998446, -0.5249746305118073 
1.5699999999998435, -0.5245660419076994 
1.5799999999998424, -0.5240471822871211 
1.5899999999998413, -0.5233990914915945 
1.5999999999998402, -0.5225869286836083 
1.6099999999998391, -0.521552618124619 
1.619999999999838, -0.5202025103851974 
1.629999999999837, -0.5183903537921047 
1.6399999999998358, -0.5159054607242891 
1.6499999999998347, -0.5124985563773696 
1.6599999999998336, -0.507995598968937 
1.6699999999998325, -0.5024929334585915 
1.6799999999998314, -0.49647128362627013 
1.6899999999998303, -0.49063797464283987 
1.6999999999998292, -0.48559149942056995 
1.709999999999828, -0.4816105276712469 
1.719999999999827, -0.47867944819154157 
1.729999999999826, -0.4766257068893842 
1.7399999999998248, -0.47523810257754234 
1.7499999999998237, -0.4743281291898599 
1.7599999999998226, -0.47374918152023493 
1.7699999999998215, -0.4733953565303583 
1.7799999999998204, -0.473193511869688 
1.7899999999998193, -0.473094781332361 
1.7999999999998182, -0.4730676764726686 
1.809999999999817, -0.47309317476854823 
1.819999999999816, -0.47316159125248775 
1.8299999999998149, -0.4732708179153556 
1.8399999999998138, -0.47342532270798837 
1.8499999999998127, -0.47363500940561404 
1.8599999999998116, -0.4739127925056762 
1.8699999999998105, -0.4742699201634384 
1.8799999999998094, -0.47470907898488585 
1.8899999999998083, -0.4752171504340118 
1.8999999999998072, -0.47576139579543025 
1.909999999999806, -0.4762930421700703 
1.919999999999805, -0.47675885991370687 
1.9299999999998039, -0.47711553627272474 
1.9399999999998028, -0.4773388947469831 
1.9499999999998017, -0.4774238783281512 
1.9599999999998006, -0.477377675377488 
1.9699999999997995, -0.47721110929328103 
1.9799999999997984, -0.4769316722012181 
1.9899999999997973, -0.47653871543717347 
1.9999999999997962, -0.4760196079349237 
2.0099999999998173, -0.4753451628109501 
2.0199999999998384, -0.4744626261588899 
2.0299999999998595, -0.47328490712646226 
2.0399999999998806, -0.4716767257203764 
2.0499999999999017, -0.4694452323561653 
2.059999999999923, -0.4663578911566849 
2.069999999999944, -0.4622249021735815 
2.079999999999965, -0.4570545619572256 
2.089999999999986, -0.4511824099755618 
2.100000000000007, -0.44520740347538235 
2.1100000000000283, -0.4397324467225636 
2.1200000000000494, -0.43513088451342163 
2.1300000000000705, -0.43150100802548197 
2.1400000000000916, -0.4287574160409953 
2.1500000000001127, -0.4267404211691875 
2.160000000000134, -0.4252858942822684 
2.170000000000155, -0.4242552635989602 
2.180000000000176, -0.42354233664667823 
2.190000000000197, -0.42307037866174496 
2.2000000000002182, -0.4227865846911342 
2.2100000000002393, -0.4226569108756397 
2.2200000000002604, -0.42266219043799264 
2.2300000000002815, -0.4227956228570469 
2.2400000000003026, -0.4230613940932463 
2.2500000000003237, -0.42347396095791456 
2.260000000000345, -0.42405719086548316 
2.270000000000366, -0.4248419958385533 
2.280000000000387, -0.4258604513523684 
2.290000000000408, -0.4271342094319864 
2.3000000000004293, -0.4286566464132154 
2.3100000000004504, -0.43037340645553657 
2.3200000000004715, -0.4321739941631497 
2.3300000000004926, -0.4339093709196883 
2.3400000000005137, -0.4354355620301612 
2.3500000000005348, -0.4366585350549583 
2.360000000000556, -0.43755123838490934 
2.370000000000577, -0.43813855359157394 
2.380000000000598, -0.4384690555465343 
2.390000000000619, -0.4385918962260792 
2.4000000000006403, -0.43854440908963077 
2.4100000000006614, -0.4383475259825804 
2.4200000000006825, -0.43800458023203104 
2.4300000000007036, -0.43750067033062506 
2.4400000000007247, -0.43680183030511566 
2.450000000000746, -0.4358554243080782 
2.460000000000767, -0.43459580398804337 
2.470000000000788, -0.43296136555598375 
2.480000000000809, -0.43092633213534715 
2.49000000000083, -0.4285373261946831 
2.5000000000008513, -0.4259274331860051 
2.5100000000008724, -0.42328485020023565 
2.5200000000008935, -0.4207900694439002 
2.5300000000009146, -0.41856450746992957 
2.5400000000009357, -0.4166574613125304 
2.550000000000957, -0.4150634399528039 
2.560000000000978, -0.41374819375615957 
2.570000000000999, -0.41266939186963525 
2.58000000000102, -0.41178864143063293 
2.5900000000010412, -0.41107688203884385 
2.6000000000010624, -0.4105161416502555 
2.6100000000010835, -0.41009992584105337 
2.6200000000011046, -0.40983361976403226 
2.6300000000011257, -0.4097356626284296 
2.6400000000011468, -0.409839908526959 
2.650000000001168, -0.4101993552985063 
2.660000000001189, -0.4108910446151671 
2.67000000000121, -0.4120209764027707 
2.680000000001231, -0.4137256120338667 
2.6900000000012523, -0.41616210342515325 
2.7000000000012734, -0.4194732937654564 
2.7100000000012945, -0.4237124742772186 
2.7200000000013156, -0.42873553437415 
2.7300000000013367, -0.4341295622378044 
2.740000000001358, -0.4392930917433907 
2.750000000001379, -0.4436832522601099 
2.7600000000014, -0.4470412900438058 
2.770000000001421, -0.44941004705291243 
2.780000000001442, -0.450992058236262 
2.7900000000014633, -0.4520097128755398 
2.8000000000014844, -0.45263984921091244 
2.8100000000015055, -0.4530038820551864 
2.8200000000015266, -0.45317883560173444 
2.8300000000015477, -0.45321056523428566 
2.840000000001569, -0.4531236255565295 
2.85000000000159, -0.452927732171417 
2.860000000001611, -0.4526222715134801 
2.870000000001632, -0.4522005540780116 
2.8800000000016532, -0.4516553079289302 
2.8900000000016743, -0.45098598205200197 
2.9000000000016954, -0.450206316123117 
2.9100000000017165, -0.44934816107843323 
2.9200000000017377, -0.4484575132759094 
2.9300000000017588, -0.44758308464956553 
2.94000000000178, -0.44676327883686123 
2.950000000001801, -0.4460184049785658 
2.960000000001822, -0.44535068424045854 
2.970000000001843, -0.4447498646248678 
2.9800000000018643, -0.44420052858885145 
2.9900000000018854, -0.44368808639091667 
3.0000000000019065, -0.4432022849390445 
3.0100000000019276, -0.44273861332217956 
3.0200000000019487, -0.44229873425713573 
3.03000000000197, -0.44189108787179493 
3.040000000001991, -0.44153251034962493 
3.050000000002012, -0.4412514352778983 
3.060000000002033, -0.44109306553534067 
3.070000000002054, -0.44112657130605354 
3.0800000000020753, -0.4414532591642564 
3.0900000000020964, -0.4422115551401844 
3.1000000000021175, -0.4435678820276161 
3.1100000000021386, -0.4456725384949394 
3.1200000000021597, -0.44855839773396483 
3.130000000002181, -0.45200252140120056 
3.140000000002202, -0.4554773271482332 
3.150000000002223, -0.4583571669827216 
3.160000000002244, -0.4602906218089135 
3.1700000000022652, -0.4613566326538881 
3.1800000000022863, -0.4618694359918679 
3.1900000000023074, -0.4621190181392903 
3.2000000000023285, -0.4622708348496789 
3.2100000000023496, -0.46238977351830196 
3.2200000000023707, -0.4624899999315277 
3.230000000002392, -0.46256792424316595 
3.240000000002413, -0.46261672824413624 
3.250000000002434, -0.46263070822487284 
3.260000000002455, -0.46260560066310086 
3.2700000000024763, -0.46253795574111073 
3.2800000000024974, -0.4624248637625543 
3.2900000000025185, -0.4622645841987659 
3.3000000000025396, -0.4620582148011456 
3.3100000000025607, -0.461811989310001 
3.3200000000025818, -0.4615390034312325 
3.330000000002603, -0.46125864923412613 
3.340000000002624, -0.46099267056998083 
3.350000000002645, -0.46075869435341865 
3.360000000002666, -0.46056403292557907 
3.3700000000026873, -0.4604028552421286 
3.3800000000027084, -0.4602582112592321 
3.3900000000027295, -0.46010789847039624 
3.4000000000027506, -0.4599312203726293 
3.4100000000027717, -0.459713558750029 
3.420000000002793, -0.45944744877137805 
3.430000000002814, -0.4591309852827858 
3.440000000002835, -0.4587653143160605 
3.450000000002856, -0.45835256213391284 
3.460000000002877, -0.4578947073734548 
3.4700000000028983, -0.45739325368641987 
3.4800000000029194, -0.4568491024516633 
3.4900000000029405, -0.4562613272072317 
3.5000000000029616, -0.4556220169248834 
3.5100000000029827, -0.45490170929374774 
3.520000000003004, -0.4540183174646192 
3.530000000003025, -0.4527916690666881 
3.540000000003046, -0.4509240193053645 
3.550000000003067, -0.4481008155130596 
3.5600000000030882, -0.4442510593606393 
3.5700000000031094, -0.43975276996364576 
3.5800000000031305, -0.4352822482261912 
3.5900000000031516, -0.43142207632883095 
3.6000000000031727, -0.42842918340642583 
3.6100000000031938, -0.426278174126168 
3.620000000003215, -0.42480951934619327 
3.630000000003236, -0.4238416929073729 
3.640000000003257, -0.42322148866253595 
3.650000000003278, -0.42283547146800365 
3.6600000000032993, -0.4226053830200889 
3.6700000000033204, -0.4224796624525221 
3.6800000000033415, -0.4224257923799458 
3.6900000000033626, -0.4224247094071111 
3.7000000000033837, -0.4224672505611661 
3.710000000003405, -0.4225522248626475 
3.720000000003426, -0.42268552537487614 
3.730000000003447, -0.42287945303080254 
3.740000000003468, -0.42315111665106075 
3.750000000003489, -0.42351867105216207 
3.7600000000035103, -0.4239946695158241 
3.7700000000035314, -0.42457725904935095 
3.7800000000035525, -0.4252422625127322 
3.7900000000035736, -0.4259412725356144 
3.8000000000035947, -0.42661003058608626 
3.810000000003616, -0.4271854880613145 
3.820000000003637, -0.4276226843147345 
3.830000000003658, -0.42790201269540756 
3.840000000003679, -0.4280250003630079 
3.8500000000037002, -0.42800404259019026 
3.8600000000037213, -0.4278523040066635 
3.8700000000037424, -0.4275764717149249 
3.8800000000037635, -0.4271718518234051 
3.8900000000037847, -0.4266180655416069 
3.9000000000038058, -0.42587372174150584 
3.910000000003827, -0.42486940069699974 
3.920000000003848, -0.4235006978172205 
3.930000000003869, -0.4216285612695499 
3.94000000000389, -0.41910270847785747 
3.9500000000039113, -0.4158260010311011 
3.9600000000039324, -0.4118498925233346 
3.9700000000039535, -0.4074315137448896 
3.9800000000039746, -0.40297055984568014 
3.9900000000039957, -0.39884993046322736 
4.000000000004016, -0.3953067162475805 
4.010000000003993, -0.39241088665041246 
4.02000000000397, -0.3901188559951855 
4.030000000003946, -0.3883377472661941 
4.040000000003923, -0.3869683575756419 
4.0500000000039, -0.38592537416455375 
4.0600000000038765, -0.38514350360666005 
4.070000000003853, -0.3845771975195726 
4.08000000000383, -0.3841984398178471 
4.090000000003807, -0.38399469345774473 
4.100000000003783, -0.38396784451259525 
4.11000000000376, -0.38413441106309765 
4.120000000003737, -0.38452700145042595 
4.130000000003713, -0.3851966874996564 
4.14000000000369, -0.3862152621020334 
4.150000000003667, -0.38767483230096583 
4.1600000000036434, -0.38967944950653355 
4.17000000000362, -0.39232008601556323 
4.180000000003597, -0.3956245120525169 
4.1900000000035735, -0.399488151993897 
4.20000000000355, -0.403628155726373 
4.210000000003527, -0.4076297812937466 
4.220000000003504, -0.411099438799195 
4.23000000000348, -0.41381904191077645 
4.240000000003457, -0.4157801400786969 
4.250000000003434, -0.41710553255616195 
4.26000000000341, -0.417952789709272 
4.270000000003387, -0.4184582413645283 
4.280000000003364, -0.41872061817470296 
4.2900000000033405, -0.4188040380596124 
4.300000000003317, -0.4187459195968741 
4.310000000003294, -0.418564064983258 
4.320000000003271, -0.4182619537132607 
4.330000000003247, -0.4178332284189777 
4.340000000003224, -0.4172670184720347 
4.350000000003201, -0.4165555286507911 
4.360000000003177, -0.41570367195942676 
4.370000000003154, -0.4147373136726693 
4.380000000003131, -0.4137042466498479 
4.390000000003107, -0.4126644825817138 
4.400000000003084, -0.41167384233756676 
4.410000000003061, -0.4107700155397599 
4.4200000000030375, -0.4099676050397936 
4.430000000003014, -0.4092618927905324 
4.440000000002991, -0.40863691282796 
4.450000000002968, -0.40807347843230213 
4.460000000002944, -0.40755481402819893 
4.470000000002921, -0.4070694182020988 
4.480000000002898, -0.4066120011157664 
4.490000000002874, -0.4061837251929067 
4.500000000002851, -0.4057928082722547 
4.510000000002828, -0.40545621482862365 
4.520000000002804, -0.40520289366386253 
4.530000000002781, -0.405078754312129 
4.540000000002758, -0.4051528967331407 
4.5500000000027345, -0.40552260241132904 
4.560000000002711, -0.40630969279835316 
4.570000000002688, -0.4076319865234271 
4.580000000002665, -0.40952653130218797 
4.590000000002641, -0.4118231896919225 
4.600000000002618, -0.4140591498660922 
4.610000000002595, -0.4156232701658841 
4.620000000002571, -0.4161509041357533 
4.630000000002548, -0.4157805322909244 
4.640000000002525, -0.4149650013584404 
4.6500000000025015, -0.4141133467334549 
4.660000000002478, -0.4134305334917575 
4.670000000002455, -0.4129573886788238 
4.6800000000024315, -0.41265873243461115 
4.690000000002408, -0.412481807186093 
4.700000000002385, -0.41238073351651056 
4.710000000002362, -0.4123222769031162 
4.720000000002338, -0.4122845083476032 
4.730000000002315, -0.4122539212561329 
4.740000000002292, -0.412223075152842 
4.750000000002268, -0.4121893409746483 
4.760000000002245, -0.4121547343482721 
4.770000000002222, -0.4121264544941495 
4.7800000000021985, -0.41211731487141057 
4.790000000002175, -0.41214486654022214 
4.800000000002152, -0.41222810271452104 
4.810000000002129, -0.4123815518073699 
4.820000000002105, -0.412608135578951 
4.830000000002082, -0.41289368668169946 
4.840000000002059, -0.4132065472627101 
4.850000000002035, -0.4135040965470009 
4.860000000002012, -0.4137441328453117 
4.870000000001989, -0.41389536954806533 
4.880000000001965, -0.41394179500403555 
4.890000000001942, -0.4138801323711053 
