t, s[1].omega / s[0].omega 
0, -0.4099977795259197 
0.009999999999999995, -0.40980595346164944 
0.019999999999999934, -0.409665808692614 
0.029999999999999874, -0.4095557617080405 
0.04000000000000012, -0.40944782209361197 
0.050000000000000405, -0.40931557129204343 
0.06000000000000069, -0.4091396215667576 
0.07000000000000098, -0.4089088958250427 
0.08000000000000126, -0.4086185386760303 
0.09000000000000155, -0.40826641987342993 
0.10000000000000184, -0.4078497097268281 
0.11000000000000212, -0.40736187996296486 
0.12000000000000241, -0.4067894899331259 
0.130000000000002, -0.40610725929866637 
0.1400000000000009, -0.4052687943872263 
0.1499999999999998, -0.404188811012055 
0.1599999999999987, -0.40271262359547605 
0.1699999999999976, -0.4005778586307877 
0.1799999999999965, -0.3974075871586329 
0.1899999999999954, -0.3928282014426983 
0.1999999999999943, -0.3867696721050364 
0.2099999999999932, -0.3797395513140703 
0.2199999999999921, -0.37267863025042164 
0.229999999999991, -0.36644590430375434 
0.2399999999999899, -0.3614583961747672 
0.2499999999999888, -0.35771931331031037 
0.2599999999999877, -0.3550229299205142 
0.2699999999999866, -0.3531199316578863 
0.2799999999999855, -0.35179445748365623 
0.2899999999999844, -0.35088374544789885 
0.2999999999999833, -0.350273754029619 
0.3099999999999822, -0.3498886640057779 
0.3199999999999811, -0.34968118588715286 
0.32999999999998, -0.3496255306485403 
0.3399999999999789, -0.34971308454552485 
0.3499999999999778, -0.34995033235767553 
0.35999999999997667, -0.35035844119918325 
0.36999999999997557, -0.35097369242763493 
0.37999999999997447, -0.35184735427824754 
0.38999999999997337, -0.3530424221205756 
0.39999999999997227, -0.35462299715616297 
0.40999999999997117, -0.356631146384783 
0.41999999999997006, -0.3590497846589854 
0.42999999999996896, -0.3617641180301094 
0.43999999999996786, -0.3645546578595398 
0.44999999999996676, -0.36715282965542173 
0.45999999999996566, -0.36933958126114175 
0.46999999999996456, -0.3710156807145399 
0.47999999999996346, -0.37219815158247593 
0.48999999999996235, -0.37296819788473795 
0.49999999999996125, -0.3734198141146031 
0.5099999999999602, -0.37363162056063254 
0.519999999999959, -0.37365835019834087 
0.529999999999958, -0.37353177695085854 
0.5399999999999568, -0.3732642808428063 
0.5499999999999557, -0.37285255686163654 
0.5599999999999546, -0.37228175905856925 
0.5699999999999535, -0.3715318974935623 
0.5799999999999524, -0.3705884747052113 
0.5899999999999513, -0.3694569613917881 
0.5999999999999502, -0.3681753247813572 
0.6099999999999491, -0.3668146386617246 
0.619999999999948, -0.3654625478196205 
0.6299999999999469, -0.36419746692351385 
0.6399999999999458, -0.3630689621163935 
0.6499999999999447, -0.36209309337015316 
0.6599999999999436, -0.3612599047392558 
0.6699999999999425, -0.3605453366005654 
0.6799999999999414, -0.35992175163836226 
0.6899999999999403, -0.3593647902578806 
0.6999999999999392, -0.358856654718555 
0.7099999999999381, -0.3583870170721746 
0.719999999999937, -0.3579529772063895 
0.7299999999999359, -0.35755924281662943 
0.7399999999999348, -0.35721930713576105 
0.7499999999999337, -0.35695805230774624 
0.7599999999999326, -0.35681579374746175 
0.7699999999999315, -0.3568527554009001 
0.7799999999999304, -0.3571500769261417 
0.7899999999999293, -0.35779660806987806 
0.7999999999999282, -0.35883923604899 
0.8099999999999271, -0.36017051986454374 
0.819999999999926, -0.3613790564337974 
0.8299999999999249, -0.36174464623669567 
0.8399999999999238, -0.36063060307871453 
0.8499999999999227, -0.3580640446374092 
0.8599999999999216, -0.3547743674451681 
0.8699999999999205, -0.35160208758108447 
0.8799999999999194, -0.3490234921423358 
0.8899999999999183, -0.34713322965291754 
0.8999999999999172, -0.34582957448988944 
0.9099999999999161, -0.3449626408551678 
0.919999999999915, -0.34440063314268493 
0.9299999999999139, -0.34404633776161053 
0.9399999999999128, -0.34383417197175065 
0.9499999999999117, -0.3437227238392343 
0.9599999999999106, -0.34368812359956674 
0.9699999999999095, -0.34371952276600254 
0.9799999999999084, -0.3438165909915933 
0.9899999999999073, -0.3439885323914113 
0.9999999999999062, -0.3442538881373387 
1.0099999999999052, -0.3446400467839465 
1.019999999999904, -0.34518092847545584 
1.029999999999903, -0.34591096189173093 
1.039999999999902, -0.34685373465649316 
1.0499999999999008, -0.34800561876160324 
1.0599999999998997, -0.34931954405354526 
1.0699999999998986, -0.35070049020840843 
1.0799999999998975, -0.3520240575023258 
1.0899999999998964, -0.3531744640612366 
1.0999999999998953, -0.35407918400355354 
1.1099999999998942, -0.35471878167205145 
1.119999999999893, -0.35511246694380405 
1.129999999999892, -0.3552955149424447 
1.1399999999998909, -0.3553016537871149 
1.1499999999998898, -0.3551535591372922 
1.1599999999998887, -0.354858906635636 
1.1699999999998876, -0.3544088752376223 
1.1799999999998865, -0.3537776705326018 
1.1899999999998854, -0.3529239161386353 
1.1999999999998843, -0.35179723026797133 
1.2099999999998832, -0.3503547277639939 
1.219999999999882, -0.34858871615630826 
1.229999999999881, -0.34655486985783723 
1.2399999999998799, -0.3443774801727013 
1.2499999999998788, -0.342216662779241 
1.2599999999998777, -0.340214697940539 
1.2699999999998766, -0.33845775843301296 
1.2799999999998755, -0.3369708760459679 
1.2899999999998744, -0.33573585237716674 
1.2999999999998733, -0.33471385499478556 
1.3099999999998722, -0.3338623441357109 
1.319999999999871, -0.33314453135593486 
1.32999999999987, -0.33253335085497226 
1.3399999999998689, -0.33201249183118053 
1.3499999999998678, -0.33157650952082734 
1.3599999999998666, -0.33123138384022116 
1.3699999999998655, -0.33099643314193855 
1.3799999999998644, -0.33090824297429167 
1.3899999999998633, -0.33102705550181594 
1.3999999999998622, -0.33144536302048533 
1.4099999999998611, -0.33229599944721444 
1.41999999999986, -0.3337502358787178 
1.429999999999859, -0.3359821025771582 
1.4399999999998578, -0.33905860248380687 
1.4499999999998567, -0.3427384955274632 
1.4599999999998556, -0.34631165646191053 
1.4699999999998545, -0.3488129203340236 
1.4799999999998534, -0.3496799061342881 
1.4899999999998523, -0.3491663349618478 
1.4999999999998512, -0.34799024085923586 
1.5099999999998501, -0.3467576493369736 
1.519999999999849, -0.34575390090587405 
1.529999999999848, -0.345032904748563 
1.5399999999998468, -0.34455014946196105 
1.5499999999998457, -0.3442407085746616 
1.5599999999998446, -0.34404911870725535 
1.5699999999998435, -0.34393580003906193 
1.5799999999998424, -0.3438753828507074 
1.5899999999998413, -0.3438535455665256 
1.5999999999998402, -0.34386458755836047 
1.6099999999998391, -0.3439102251162603 
1.619999999999838, -0.3439994321707355 
1.629999999999837, -0.34414874195753425 
1.6399999999998358, -0.3443820045616661 
1.6499999999998347, -0.344728233669996 
1.6599999999998336, -0.34521615267739864 
1.6699999999998325, -0.34586470499516675 
1.6799999999998314, -0.3466705880436815 
1.6899999999998303, -0.34759723396819975 
1.6999999999998292, -0.34857322475205954 
1.709999999999828, -0.34950674532834 
1.719999999999827, -0.35031231682343567 
1.729999999999826, -0.3509344733158097 
1.7399999999998248, -0.35135472510522153 
1.7499999999998237, -0.35158210272878504 
1.7599999999998226, -0.3516375159992674 
1.7699999999998215, -0.3515406436612513 
1.7799999999998204, -0.3513018367038609 
1.7899999999998193, -0.35091757858935646 
1.7999999999998182, -0.3503674296285134 
1.809999999999817, -0.3496116251582352 
1.819999999999816, -0.34859081129855435 
1.8299999999998149, -0.34723268764466986 
1.8399999999998138, -0.3454729522820882 
1.8499999999998127, -0.3432938199718224 
1.8599999999998116, -0.34076545867191677 
1.8699999999998105, -0.33805472635390504 
1.8799999999998094, -0.33537737277273816 
1.8899999999998083, -0.33292075186526454 
1.8999999999998072, -0.3307922759412437 
1.909999999999806, -0.32901709771842996 
1.919999999999805, -0.3275660332848004 
1.9299999999998039, -0.3263866171463087 
1.9399999999998028, -0.3254243152423192 
1.9499999999998017, -0.32463324109480723 
1.9599999999998006, -0.3239800383288571 
1.9699999999997995, -0.3234445114930901 
1.9799999999997984, -0.32301943812764805 
1.9899999999997973, -0.32271103546932867 
1.9999999999997962, -0.3225410083306858 
2.0099999999998173, -0.32255087925087744 
2.0199999999998384, -0.3228091596072811 
2.0299999999998595, -0.32342134086080226 
2.0399999999998806, -0.32454043897544127 
2.0499999999999017, -0.3263692795032423 
2.059999999999923, -0.3291311681588604 
2.069999999999944, -0.33296599438532304 
2.079999999999965, -0.3377212709375626 
2.089999999999986, -0.34274265920473074 
2.100000000000007, -0.3469959411377186 
2.1100000000000283, -0.34968745591664796 
2.1200000000000494, -0.35079642383095605 
2.1300000000000705, -0.350885272681951 
2.1400000000000916, -0.3505543299992603 
2.1500000000001127, -0.3501613022100453 
2.160000000000134, -0.34984359817011834 
2.170000000000155, -0.3496235089720409 
2.180000000000176, -0.3494825631152392 
2.190000000000197, -0.3493956513072146 
2.2000000000002182, -0.349342398160584 
2.2100000000002393, -0.34930925136532953 
2.2200000000002604, -0.34928884271606636 
2.2300000000002815, -0.34927919746520203 
2.2400000000003026, -0.3492836091161935 
2.2500000000003237, -0.34931120934565496 
2.260000000000345, -0.34937772922081767 
2.270000000000366, -0.34950544776509973 
2.280000000000387, -0.3497210243355561 
2.290000000000408, -0.3500501464901381 
2.3000000000004293, -0.3505088918693125 
2.3100000000004504, -0.35109344627373756 
2.3200000000004715, -0.35177226907194314 
2.3300000000004926, -0.3524866666064672 
2.3400000000005137, -0.3531635333613767 
2.3500000000005348, -0.35373603395139985 
2.360000000000556, -0.35416066750598507 
2.370000000000577, -0.3544216155580877 
2.380000000000598, -0.3545232730140692 
2.390000000000619, -0.3544783270620882 
2.4000000000006403, -0.3542974305739484 
2.4100000000006614, -0.353982146280916 
2.4200000000006825, -0.3535200290830946 
2.4300000000007036, -0.35288022742040204 
2.4400000000007247, -0.35200905933743026 
2.450000000000746, -0.35082753865173744 
2.460000000000767, -0.34923724408609347 
2.470000000000788, -0.34714555700284616 
2.480000000000809, -0.3445173842718647 
2.49000000000083, -0.3414352667741195 
2.5000000000008513, -0.33811581404605195 
2.5100000000008724, -0.33484415935450157 
2.5200000000008935, -0.3318651878002569 
2.5300000000009146, -0.32931357071380474 
2.5400000000009357, -0.3272146636388654 
2.550000000000957, -0.3255254080102852 
2.560000000000978, -0.3241761996872923 
2.570000000000999, -0.3230974647124772 
2.58000000000102, -0.32223188846141215 
2.5900000000010412, -0.32153810885895456 
2.6000000000010624, -0.32099072485780383 
2.6100000000010835, -0.32057955315016795 
2.6200000000011046, -0.32030972125184803 
2.6300000000011257, -0.3202035099065451 
2.6400000000011468, -0.320304621232657 
2.650000000001168, -0.32068545211086164 
2.660000000001189, -0.3214575008318678 
2.67000000000121, -0.32278313126765906 
2.680000000001231, -0.32488118101045754 
2.6900000000012523, -0.32800566818776483 
2.7000000000012734, -0.3323569737676678 
2.7100000000012945, -0.3378868091698708 
2.7200000000013156, -0.34406333325094307 
2.7300000000013367, -0.34988402004333047 
2.740000000001358, -0.35438080256647714 
2.750000000001379, -0.3572200055846261 
2.7600000000014, -0.3587237603643872 
2.770000000001421, -0.3594265324363109 
2.780000000001442, -0.359738677485646 
2.7900000000014633, -0.35988400495355005 
2.8000000000014844, -0.35996070780821365 
2.8100000000015055, -0.3600049911497015 
2.8200000000015266, -0.36002782673622635 
2.8300000000015477, -0.3600315399466506 
2.840000000001569, -0.36001626998718944 
2.85000000000159, -0.35998237180736015 
2.860000000001611, -0.35993164923131327 
2.870000000001632, -0.35986862758382465 
2.8800000000016532, -0.35980216300950296 
2.8900000000016743, -0.35974697251779075 
2.9000000000016954, -0.3597240258984052 
2.9100000000017165, -0.3597584905471032 
2.9200000000017377, -0.35987449222484236 
2.9300000000017588, -0.36008731053016646 
2.94000000000178, -0.36039522392916146 
2.950000000001801, -0.36077453094599987 
2.960000000001822, -0.36118151262422304 
2.970000000001843, -0.3615626595200784 
2.9800000000018643, -0.36186923506657387 
2.9900000000018854, -0.3620684877858741 
3.0000000000019065, -0.3621461941619884 
3.0100000000019276, -0.3621014555476511 
3.0200000000019487, -0.3619383802808334 
3.03000000000197, -0.36165836342175733 
3.040000000001991, -0.3612539269713973 
3.050000000002012, -0.36070316647964373 
3.060000000002033, -0.35996332091657635 
3.070000000002054, -0.35896266894541734 
3.0800000000020753, -0.357592511920834 
3.0900000000020964, -0.35570722714986347 
3.1000000000021175, -0.35315027998108744 
3.1100000000021386, -0.34982628215701295 
3.1200000000021597, -0.34580562367196255 
3.130000000002181, -0.3413789836872264 
3.140000000002202, -0.3369730417137187 
3.150000000002223, -0.33297057638577066 
3.160000000002244, -0.3295836894614782 
3.1700000000022652, -0.326850570623367 
3.1800000000022863, -0.3247033190681704 
3.1900000000023074, -0.32303597415969626 
3.2000000000023285, -0.32174516270099157 
3.2100000000023496, -0.3207468833385826 
3.2200000000023707, -0.31998018782890525 
3.230000000002392, -0.31940572047702537 
3.240000000002413, -0.31900334801776 
3.250000000002434, -0.31877080539421143 
3.260000000002455, -0.31872422286680735 
3.2700000000024763, -0.31890104035136296 
3.2800000000024974, -0.3193657129833706 
3.2900000000025185, -0.32021831512333404 
3.3000000000025396, -0.32160485980144743 
3.3100000000025607, -0.32372420680713254 
3.3200000000025818, -0.3268171122550959 
3.330000000002603, -0.3311074757733088 
3.340000000002624, -0.33665903916758533 
3.350000000002645, -0.3431655774279373 
3.360000000002666, -0.34985277679173976 
3.3700000000026873, -0.35574792505361263 
3.3800000000027084, -0.3602117316326593 
3.3900000000027295, -0.3631993669503263 
3.4000000000027506, -0.36505045365640776 
3.4100000000027717, -0.366162333430736 
3.420000000002793, -0.36682951350873055 
3.430000000002814, -0.3672311816976312 
3.440000000002835, -0.36746732410834004 
3.450000000002856, -0.3675923043608525 
3.460000000002877, -0.3676357200268984 
3.4700000000028983, -0.36761371862100173 
3.4800000000029194, -0.36753512507225633 
3.4900000000029405, -0.3674053145632212 
3.5000000000029616, -0.36722947575455106 
3.5100000000029827, -0.3670159095854939 
3.520000000003004, -0.3667789992321941 
3.530000000003025, -0.3665405233850148 
3.540000000003046, -0.36632772455529844 
3.550000000003067, -0.366167650558511 
3.5600000000030882, -0.36607931524986775 
3.5700000000031094, -0.3660667014707234 
3.5800000000031305, -0.36611566219536235 
3.5900000000031516, -0.36619656424496416 
3.6000000000031727, -0.3662722337340121 
3.6100000000031938, -0.36630789051100565 
3.620000000003215, -0.3662783840786375 
3.630000000003236, -0.366169910160488 
3.640000000003257, -0.3659768940180682 
3.650000000003278, -0.3656966690233986 
3.6600000000032993, -0.3653240271109754 
3.6700000000033204, -0.36484608530250423 
3.6800000000033415, -0.364236547582253 
3.6900000000033626, -0.3634476517333377 
3.7000000000033837, -0.36239789926091576 
3.710000000003405, -0.3609551267226882 
3.720000000003426, -0.35892115261389756 
3.730000000003447, -0.3560414883185145 
3.740000000003468, -0.3520853332268609 
3.750000000003489, -0.34701903567847064 
3.7600000000035103, -0.34117036654890315 
3.7700000000035314, -0.3351745182187171 
3.7800000000035525, -0.3296771897911353 
3.7900000000035736, -0.3250646760269499 
3.8000000000035947, -0.32142162870344876 
3.810000000003616, -0.31864433042724927 
3.820000000003637, -0.3165633402239771 
3.830000000003658, -0.31501479897696927 
3.840000000003679, -0.3138671949829027 
3.8500000000037002, -0.3130250781712021 
3.8600000000037213, -0.3124245376555016 
3.8700000000037424, -0.3120274966043875 
3.8800000000037635, -0.31181748685117666 
3.8900000000037847, -0.31179770456430617 
3.9000000000038058, -0.3119915448452216 
3.910000000003827, -0.312445670997297 
3.920000000003848, -0.31323548332081746 
3.930000000003869, -0.31447203719096234 
3.94000000000389, -0.3163070035774061 
3.9500000000039113, -0.31892653884117783 
3.9600000000039324, -0.3225151660803155 
3.9700000000039535, -0.3271641512148625 
3.9800000000039746, -0.3327239948975624 
3.9900000000039957, -0.33869295399071625 
4.000000000004016, -0.34432074804458734 
4.010000000003993, -0.34895806667557255 
4.02000000000397, -0.35235422154681917 
4.030000000003946, -0.3546368597228321 
4.040000000003923, -0.3560932596834987 
4.0500000000039, -0.35699539232504 
4.0600000000038765, -0.35753904605017744 
4.070000000003853, -0.3578485157082407 
4.08000000000383, -0.3579981144915866 
4.090000000003807, -0.35803070605663956 
4.100000000003783, -0.3579699590640172 
4.11000000000376, -0.35782804481665514 
4.120000000003737, -0.35761103057024674 
4.130000000003713, -0.35732362674404095 
4.14000000000369, -0.35697400632181336 
4.150000000003667, -0.35657811369537196 
4.1600000000036434, -0.35616157529889964 
4.17000000000362, -0.3557571734099504 
4.180000000003597, -0.35539774383181433 
4.1900000000035735, -0.35510718650909173 
4.20000000000355, -0.35489354447338745 
4.210000000003527, -0.35474696212155854 
4.220000000003504, -0.3546431421822898 
4.23000000000348, -0.3545508240660967 
4.240000000003457, -0.35444014704017646 
4.250000000003434, -0.35428843367497576 
4.26000000000341, -0.3540816128210379 
4.270000000003387, -0.3538119586702475 
4.280000000003364, -0.3534740557193784 
4.2900000000033405, -0.35306043042692437 
4.300000000003317, -0.3525570576130547 
4.310000000003294, -0.3519377901649743 
4.320000000003271, -0.3511558173437471 
4.330000000003247, -0.35012954054226786 
4.340000000003224, -0.3487209139618451 
4.350000000003201, -0.3467108219479301 
4.360000000003177, -0.34379724924246663 
4.370000000003154, -0.33967628789902155 
4.380000000003131, -0.33425389658389826 
4.390000000003107, -0.32787567669285866 
4.400000000003084, -0.3212879322954366 
4.410000000003061, -0.31526600100560537 
4.4200000000030375, -0.31026586069037293 
4.430000000003014, -0.3063740606911183 
4.440000000002991, -0.3034555080093879 
4.450000000002968, -0.3013053664925399 
4.460000000002944, -0.29973217248770617 
4.470000000002921, -0.2985859083174837 
4.480000000002898, -0.29775957866342884 
4.490000000002874, -0.29718230313531635 
4.500000000002851, -0.2968118439565603 
4.510000000002828, -0.2966292425806454 
4.520000000002804, -0.29663618760181276 
4.530000000002781, -0.2968551467193378 
4.540000000002758, -0.297332198171766 
4.5500000000027345, -0.2981423274936864 
4.560000000002711, -0.2993961139956403 
4.570000000002688, -0.30124417202687376 
4.580000000002665, -0.3038697981249322 
4.590000000002641, -0.3074504553445333 
4.600000000002618, -0.3120631604922707 
4.610000000002595, -0.3175376788829499 
4.620000000002571, -0.32335703846414493 
4.630000000002548, -0.3287814202266576 
4.640000000002525, -0.3332006966922245 
4.6500000000025015, -0.3364057848366432 
4.660000000002478, -0.3385435939181964 
4.670000000002455, -0.3398989827891979 
4.6800000000024315, -0.3407328714367945 
4.690000000002408, -0.34123035867836216 
4.700000000002385, -0.34150808668124744 
4.710000000002362, -0.3416355024650962 
4.720000000002338, -0.34165257308792424 
4.730000000002315, -0.3415814426451159 
4.740000000002292, -0.34143385127288967 
4.750000000002268, -0.3412164766079887 
4.760000000002245, -0.34093569057415574 
4.770000000002222, -0.34060220925936274 
4.7800000000021985, -0.3402348092125579 
4.790000000002175, -0.3398612074468643 
4.800000000002152, -0.33951447908222093 
4.810000000002129, -0.33922548276632564 
4.820000000002105, -0.33901420629000134 
4.830000000002082, -0.3388836476134807 
4.840000000002059, -0.33881863593961825 
4.850000000002035, -0.33879011912432755 
