t, s[1].omega / s[0].omega 
0, -0.7699976639114747 
0.009999999999999995, -0.7697384125085607 
0.019999999999999934, -0.7694271308833522 
0.029999999999999874, -0.7690614525097097 
0.04000000000000012, -0.768641143303338 
0.050000000000000405, -0.7681711526916255 
0.06000000000000069, -0.7676632564282053 
0.07000000000000098, -0.767136617279246 
0.08000000000000126, -0.7666182534344924 
0.09000000000000155, -0.7661439101243538 
0.10000000000000184, -0.7657588794152193 
0.11000000000000212, -0.7655176476435331 
0.12000000000000241, -0.7654812648233353 
0.130000000000002, -0.7657120866519482 
0.1400000000000009, -0.7662666832885274 
0.1499999999999998, -0.7671884833633391 
0.1599999999999987, -0.7685014384798213 
0.1699999999999976, -0.7702047090531374 
0.1799999999999965, -0.7722670979482731 
0.1899999999999954, -0.77462021028685 
0.1999999999999943, -0.7771522708677692 
0.2099999999999932, -0.7797095318438759 
0.2199999999999921, -0.7821146618235031 
0.229999999999991, -0.7842041229818592 
0.2399999999999899, -0.7858696366498288 
0.2499999999999888, -0.7870792223305659 
0.2599999999999877, -0.7878664897516973 
0.2699999999999866, -0.7883002184227138 
0.2799999999999855, -0.7884546334207033 
0.2899999999999844, -0.788391592749462 
0.2999999999999833, -0.788154561215357 
0.3099999999999822, -0.7877698917991838 
0.3199999999999811, -0.7872520688310395 
0.32999999999998, -0.7866123666428628 
0.3399999999999789, -0.7858729447968816 
0.3499999999999778, -0.7850899746073801 
0.35999999999997667, -0.7843883879633821 
0.36999999999997557, -0.7840035287178093 
0.37999999999997447, -0.7843068067920883 
0.38999999999997337, -0.7857666086079226 
0.39999999999997227, -0.7887906798409879 
0.40999999999997117, -0.7934670896741511 
0.41999999999997006, -0.7993711520824048 
0.42999999999996896, -0.8056629696281836 
0.43999999999996786, -0.8114679269589571 
0.44999999999996676, -0.8162318972027137 
0.45999999999996566, -0.8198046372792211 
0.46999999999996456, -0.8223076276422043 
0.47999999999996346, -0.8239663109890637 
0.48999999999996235, -0.8250032109157461 
0.49999999999996125, -0.8255946915213453 
0.5099999999999602, -0.8258637611649101 
0.519999999999959, -0.8258862695413429 
0.529999999999958, -0.8256985805859054 
0.5399999999999568, -0.8253017654803466 
0.5499999999999557, -0.824660502675332 
0.5599999999999546, -0.8236961476500296 
0.5699999999999535, -0.8222748868132864 
0.5799999999999524, -0.8201959688169869 
0.5899999999999513, -0.8171945168827506 
0.5999999999999502, -0.8129873971936192 
0.6099999999999491, -0.8073925517232865 
0.619999999999948, -0.8005056842700764 
0.6299999999999469, -0.7928197505703307 
0.6399999999999458, -0.7851377955102746 
0.6499999999999447, -0.7782820942435688 
0.6599999999999436, -0.7728000981712677 
0.6699999999999425, -0.7688522351640036 
0.6799999999999414, -0.766286415605046 
0.6899999999999403, -0.7647900364193057 
0.6999999999999392, -0.7640235924560896 
0.7099999999999381, -0.7636985697044161 
0.719999999999937, -0.7636039795381974 
0.7299999999999359, -0.763601088796499 
0.7399999999999348, -0.7636049044748097 
0.7499999999999337, -0.7635641595163721 
0.7599999999999326, -0.76344503373185 
0.7699999999999315, -0.76321991614417 
0.7799999999999304, -0.7628611192782333 
0.7899999999999293, -0.7623395814446796 
0.7999999999999282, -0.7616288966905731 
0.8099999999999271, -0.7607140253240846 
0.819999999999926, -0.7596011348188859 
0.8299999999999249, -0.758322296867071 
0.8399999999999238, -0.7569304349272826 
0.8499999999999227, -0.7554865894104867 
0.8599999999999216, -0.754047053160426 
0.8699999999999205, -0.7526566638577333 
0.8799999999999194, -0.7513489545548703 
0.8899999999999183, -0.7501498829726044 
0.8999999999999172, -0.7490815703463727 
0.9099999999999161, -0.7481641370172987 
0.919999999999915, -0.7474153469789948 
0.9299999999999139, -0.7468487199400528 
0.9399999999999128, -0.7464711796778489 
0.9499999999999117, -0.7462813500832619 
0.9599999999999106, -0.7462693038375499 
0.9699999999999095, -0.7464179733378208 
0.9799999999999084, -0.7467057797933785 
0.9899999999999073, -0.7471096138106118 
0.9999999999999062, -0.7476072369348958 
1.0099999999999052, -0.7481783554009815 
1.019999999999904, -0.7488038733254493 
1.029999999999903, -0.749463223321563 
1.039999999999902, -0.7501305184253256 
1.0499999999999008, -0.7507716225501365 
1.0599999999998997, -0.7513451261158084 
1.0699999999998986, -0.7518088931113142 
1.0799999999998975, -0.7521299791795407 
1.0899999999998964, -0.7522923941229361 
1.0999999999998953, -0.7522983313949567 
1.1099999999998942, -0.7521633852734055 
1.119999999999893, -0.7519099814482355 
1.129999999999892, -0.7515630958005185 
1.1399999999998909, -0.7511501650478001 
1.1499999999998898, -0.7507054644198301 
1.1599999999998887, -0.7502787174128328 
1.1699999999998876, -0.7499474489177806 
1.1799999999998865, -0.7498315437409377 
1.1899999999998854, -0.7501060117577444 
1.1999999999998843, -0.7510042770888992 
1.2099999999998832, -0.7528007441028038 
1.219999999999882, -0.7557605931158953 
1.229999999999881, -0.7600509327523641 
1.2399999999998799, -0.7656268034190256 
1.2499999999998788, -0.7721415328027765 
1.2599999999998777, -0.7789637836612378 
1.2699999999998766, -0.7853538640647775 
1.2799999999998755, -0.790727135183417 
1.2899999999998744, -0.794828134996441 
1.2999999999998733, -0.7977126969675099 
1.3099999999998722, -0.7996065710140347 
1.319999999999871, -0.8007677128984463 
1.32999999999987, -0.8014120686214611 
1.3399999999998689, -0.8016933197084833 
1.3499999999998678, -0.8017081875285041 
1.3599999999998666, -0.8015076435600708 
1.3699999999998655, -0.8011054341850116 
1.3799999999998644, -0.8004813823618007 
1.3899999999998633, -0.7995792274997139 
1.3999999999998622, -0.7982997608564062 
1.4099999999998611, -0.7964917464311991 
1.41999999999986, -0.7939476768069522 
1.429999999999859, -0.7904208091875212 
1.4399999999998578, -0.7856920316189051 
1.4499999999998567, -0.779711564304959 
1.4599999999998556, -0.7727804388198725 
1.4699999999998545, -0.7656193052926303 
1.4799999999998534, -0.7591568880680376 
1.4899999999998523, -0.7541192507934815 
1.4999999999998512, -0.7507488480936955 
1.5099999999998501, -0.7488425960566072 
1.519999999999849, -0.7479823521332005 
1.529999999999848, -0.747747326263021 
1.5399999999998468, -0.7478181393377628 
1.5499999999998457, -0.747991710346452 
1.5599999999998446, -0.7481549897441508 
1.5699999999998435, -0.7482511158477316 
1.5799999999998424, -0.748252041712647 
1.5899999999998413, -0.7481400562895478 
1.5999999999998402, -0.7478963399644774 
1.6099999999998391, -0.7474944122585102 
1.619999999999838, -0.746897725887225 
1.629999999999837, -0.7460624703413931 
1.6399999999998358, -0.7449475364218376 
1.6499999999998347, -0.7435315081494315 
1.6599999999998336, -0.741830587332457 
1.6699999999998325, -0.7399059747493979 
1.6799999999998314, -0.7378529212985306 
1.6899999999998303, -0.7357766792516924 
1.6999999999998292, -0.7337697655751044 
1.709999999999828, -0.7319008680476989 
1.719999999999827, -0.7302152632314429 
1.729999999999826, -0.7287406581258037 
1.7399999999998248, -0.7274929337020806 
1.7499999999998237, -0.7264793977384958 
1.7599999999998226, -0.7256996671582326 
1.7699999999998215, -0.7251454292280641 
1.7799999999998204, -0.7248004239863982 
1.7899999999998193, -0.724641496117084 
1.7999999999998182, -0.7246408418821411 
1.809999999999817, -0.7247689586320762 
1.819999999999816, -0.7249975413496748 
1.8299999999998149, -0.7253016901744285 
1.8399999999998138, -0.7256610772910097 
1.8499999999998127, -0.7260598876254453 
1.8599999999998116, -0.7264853240971487 
1.8699999999998105, -0.7269245630372285 
1.8799999999998094, -0.7273607429596762 
1.8899999999998083, -0.7277698553974817 
1.8999999999998072, -0.7281211767604318 
1.909999999999806, -0.7283825659208862 
1.919999999999805, -0.7285285907344328 
1.9299999999998039, -0.7285468859081836 
1.9399999999998028, -0.7284393572237995 
1.9499999999998017, -0.7282188172057377 
1.9599999999998006, -0.7279044407725636 
1.9699999999997995, -0.727519250093777 
1.9799999999997984, -0.727091181054003 
1.9899999999997973, -0.7266580152733213 
1.9999999999997962, -0.7262759313371852 
2.0099999999998173, -0.7260309596674268 
2.0199999999998384, -0.7260514613748225 
2.0299999999998595, -0.7265175352421074 
2.0399999999998806, -0.7276602317158558 
2.0499999999999017, -0.7297405810528983 
2.059999999999923, -0.7329976993721969 
2.069999999999944, -0.737560803665729 
2.079999999999965, -0.743339498587234 
2.089999999999986, -0.7499445885933603 
2.100000000000007, -0.7567235817733999 
2.1100000000000283, -0.7629543623250797 
2.1200000000000494, -0.768105318302158 
2.1300000000000705, -0.7719816045670751 
2.1400000000000916, -0.7746791470792653 
2.1500000000001127, -0.7764362429403403 
2.160000000000134, -0.7775054139496664 
2.170000000000155, -0.7780908192477028 
2.180000000000176, -0.7783346574375953 
2.190000000000197, -0.7783245448845979 
2.2000000000002182, -0.7781044613857425 
2.2100000000002393, -0.7776821370969026 
2.2200000000002604, -0.7770308305168597 
2.2300000000002815, -0.7760851650271114 
2.2400000000003026, -0.7747314711462755 
2.2500000000003237, -0.7727951132616824 
2.260000000000345, -0.7700333310444839 
2.270000000000366, -0.7661549731807351 
2.280000000000387, -0.7609037054522598 
2.290000000000408, -0.7542297670674273 
2.3000000000004293, -0.7464882147124 
2.3100000000004504, -0.7384753032202389 
2.3200000000004715, -0.7311619743572574 
2.3300000000004926, -0.7252805501401351 
2.3400000000005137, -0.7210892680855261 
2.3500000000005348, -0.7184301364733021 
2.360000000000556, -0.7169354918141686 
2.370000000000577, -0.7162122584569285 
2.380000000000598, -0.7159392038542313 
2.390000000000619, -0.7158916127423504 
2.4000000000006403, -0.7159281608825959 
2.4100000000006614, -0.715966181971504 
2.4200000000006825, -0.7159584577877595 
2.4300000000007036, -0.7158757898326542 
2.4400000000007247, -0.7156954724937019 
2.450000000000746, -0.7153947336460782 
2.460000000000767, -0.7149486557491788 
2.470000000000788, -0.7143327948600392 
2.480000000000809, -0.7135304421443787 
2.49000000000083, -0.7125422810918689 
2.5000000000008513, -0.7113930530330359 
2.5100000000008724, -0.7101295390026421 
2.5200000000008935, -0.7088093941237438 
2.5300000000009146, -0.7074871861916834 
2.5400000000009357, -0.7062053066237721 
2.550000000000957, -0.7049925775903262 
2.560000000000978, -0.703868156069473 
2.570000000000999, -0.7028467648263438 
2.58000000000102, -0.7019425960736165 
2.5900000000010412, -0.7011710584779551 
2.6000000000010624, -0.700548626274753 
2.6100000000010835, -0.7000914275013661 
2.6200000000011046, -0.6998132873178996 
2.6300000000011257, -0.6997239360885666 
2.6400000000011468, -0.6998279751855012 
2.650000000001168, -0.7001248989936395 
2.660000000001189, -0.7006100344309838 
2.67000000000121, -0.701275806121552 
2.680000000001231, -0.7021123889714039 
2.6900000000012523, -0.703106659629637 
2.7000000000012734, -0.7042385804813789 
2.7100000000012945, -0.7054751447275781 
2.7200000000013156, -0.7067641537699061 
2.7300000000013367, -0.7080327321149823 
2.740000000001358, -0.7091958510262215 
2.750000000001379, -0.7101749717086983 
2.7600000000014, -0.7109181537930946 
2.770000000001421, -0.7114096561631735 
2.780000000001442, -0.711664575385557 
2.7900000000014633, -0.7117146450311197 
2.8000000000014844, -0.711594443848548 
2.8100000000015055, -0.7113331122782651 
2.8200000000015266, -0.7109519345585992 
2.8300000000015477, -0.7104664015354699 
2.840000000001569, -0.7098920149607981 
2.85000000000159, -0.7092545193696171 
2.860000000001611, -0.7086063245589352 
2.870000000001632, -0.7080504537859824 
2.8800000000016532, -0.7077692769301704 
2.8900000000016743, -0.708044449120304 
2.9000000000016954, -0.7092365515205923 
2.9100000000017165, -0.7116818435145779 
2.9200000000017377, -0.7154989505539914 
2.9300000000017588, -0.7204097954906405 
2.94000000000178, -0.7257680056327606 
2.950000000001801, -0.7308465627676869 
2.960000000001822, -0.7351498171390759 
2.970000000001843, -0.7385071660273443 
2.9800000000018643, -0.740975800061041 
2.9900000000018854, -0.7427095644139188 
3.0000000000019065, -0.7438751197595674 
3.0100000000019276, -0.7446151416464052 
3.0200000000019487, -0.7450377992288538 
3.03000000000197, -0.7452173750230556 
3.040000000001991, -0.7451980343554283 
3.050000000002012, -0.7449969377876318 
3.060000000002033, -0.7446050326037509 
3.070000000002054, -0.7439851012684079 
3.0800000000020753, -0.7430679943667656 
3.0900000000020964, -0.7417505100226806 
3.1000000000021175, -0.7399026876397742 
3.1100000000021386, -0.73739604870891 
3.1200000000021597, -0.7341591259331823 
3.130000000002181, -0.7302432915267809 
3.140000000002202, -0.7258533532345882 
3.150000000002223, -0.7213056460375586 
3.160000000002244, -0.7169327706584442 
3.1700000000022652, -0.71299649430483 
3.1800000000022863, -0.7096502368377121 
3.1900000000023074, -0.706946701870846 
3.2000000000023285, -0.7048653532120979 
3.2100000000023496, -0.703340618694575 
3.2200000000023707, -0.7022838869732021 
3.230000000002392, -0.7015991975325689 
3.240000000002413, -0.701194080485027 
3.250000000002434, -0.7009864847875986 
3.260000000002455, -0.7009082508783301 
3.2700000000024763, -0.7009056767773068 
3.2800000000024974, -0.7009380972066207 
3.2900000000025185, -0.7009756330008187 
3.3000000000025396, -0.7009971735216499 
3.3100000000025607, -0.7009891981272143 
3.3200000000025818, -0.700945275788709 
3.330000000002603, -0.7008652704146408 
3.340000000002624, -0.7007530693386089 
3.350000000002645, -0.7006126483383877 
3.360000000002666, -0.7004440468728077 
3.3700000000026873, -0.7002417167849029 
3.3800000000027084, -0.6999965137646116 
3.3900000000027295, -0.699700143263007 
3.4000000000027506, -0.6993493899187446 
3.4100000000027717, -0.6989482483249546 
3.420000000002793, -0.6985081225913273 
3.430000000002814, -0.6980476206733722 
3.440000000002835, -0.6975933936801639 
3.450000000002856, -0.6971825988609499 
3.460000000002877, -0.6968666726117471 
3.4700000000028983, -0.6967154369372129 
3.4800000000029194, -0.6968200855525832 
3.4900000000029405, -0.6972932929411513 
3.5000000000029616, -0.698264576898225 
3.5100000000029827, -0.6998689683719939 
3.520000000003004, -0.7022267213804695 
3.530000000003025, -0.7054115520470032 
3.540000000003046, -0.70940701709885 
3.550000000003067, -0.7140597689322832 
3.5600000000030882, -0.7190564840689475 
3.5700000000031094, -0.7239640820922119 
3.5800000000031305, -0.7283473597013782 
3.5900000000031516, -0.7319092851074734 
3.6000000000031727, -0.7345607917781336 
3.6100000000031938, -0.7363847929630981 
3.620000000003215, -0.7375460364660549 
3.630000000003236, -0.738214079047381 
3.640000000003257, -0.7385247437502963 
3.650000000003278, -0.7385708948514341 
3.6600000000032993, -0.738406083001855 
3.6700000000033204, -0.7380502512052763 
3.6800000000033415, -0.73749268765202 
3.6900000000033626, -0.7366905589604291 
3.7000000000033837, -0.7355625996213231 
3.710000000003405, -0.7339785424868793 
3.720000000003426, -0.7317476800324358 
3.730000000003447, -0.728617547696326 
3.740000000003468, -0.7243085008104584 
3.750000000003489, -0.7186227455952341 
3.7600000000035103, -0.7116362987318359 
3.7700000000035314, -0.70386531001806 
3.7800000000035525, -0.696196368398839 
3.7900000000035736, -0.6895286208612428 
3.8000000000035947, -0.6843985582208102 
3.810000000003616, -0.6808729261767987 
3.820000000003637, -0.6786943076463621 
3.830000000003658, -0.677488639012379 
3.840000000003679, -0.6769067436501286 
3.8500000000037002, -0.6766818702072315 
3.8600000000037213, -0.6766336885883252 
3.8700000000037424, -0.6766499621004065 
3.8800000000037635, -0.6766642241702667 
3.8900000000037847, -0.6766370431861618 
3.9000000000038058, -0.6765426558939969 
3.910000000003827, -0.6763605508764969 
3.920000000003848, -0.6760713142890028 
3.930000000003869, -0.6756564745550887 
3.94000000000389, -0.6751021964069808 
3.9500000000039113, -0.6744056256926815 
3.9600000000039324, -0.6735805484431083 
3.9700000000039535, -0.6726578519737116 
3.9800000000039746, -0.6716787458399738 
3.9900000000039957, -0.6706839402937912 
4.000000000004016, -0.6697049570523975 
4.010000000003993, -0.6687615197437067 
4.02000000000397, -0.6678644252532381 
4.030000000003946, -0.6670207091441508 
4.040000000003923, -0.6662382839219084 
4.0500000000039, -0.6655288879966897 
4.0600000000038765, -0.6649094517949796 
4.070000000003853, -0.6644023681780791 
4.08000000000383, -0.6640350104211962 
4.090000000003807, -0.6638386578344845 
4.100000000003783, -0.6638469774885823 
4.11000000000376, -0.6640943059223274 
4.120000000003737, -0.6646139874198906 
4.130000000003713, -0.6654367831810121 
4.14000000000369, -0.6665888086504904 
4.150000000003667, -0.6680876994107395 
4.1600000000036434, -0.6699351433873378 
4.17000000000362, -0.6721044328897687 
4.180000000003597, -0.67452470111132 
4.1900000000035735, -0.6770697468590126 
4.20000000000355, -0.6795653042810835 
4.210000000003527, -0.6818243544063656 
4.220000000003504, -0.6836995610278843 
4.23000000000348, -0.6851217689443779 
4.240000000003457, -0.6861012146078329 
4.250000000003434, -0.6866982975335902 
4.26000000000341, -0.6869884388423697 
4.270000000003387, -0.6870381005108713 
4.280000000003364, -0.6868942155038005 
4.2900000000033405, -0.6865818434192584 
4.300000000003317, -0.6861047014965386 
4.310000000003294, -0.6854453954039312 
4.320000000003271, -0.6845639651080585 
4.330000000003247, -0.6833943361297937 
4.340000000003224, -0.6818388480358691 
4.350000000003201, -0.6797620740807717 
4.360000000003177, -0.6769888172355868 
4.370000000003154, -0.6733219887592578 
4.380000000003131, -0.6686141535829974 
4.390000000003107, -0.6629195558924098 
4.400000000003084, -0.6566540071323688 
4.410000000003061, -0.6505581226615451 
4.4200000000030375, -0.645379046740771 
4.430000000003014, -0.6415276346455927 
4.440000000002991, -0.6389993824524896 
4.450000000002968, -0.6375296843443347 
4.460000000002944, -0.6367853210121733 
4.470000000002921, -0.6364786214147825 
4.480000000002898, -0.6364029312450793 
4.490000000002874, -0.6364256444822078 
4.500000000002851, -0.636467701244715 
4.510000000002828, -0.6364835603100797 
4.520000000002804, -0.636446045511778 
4.530000000002781, -0.6363363007521803 
4.540000000002758, -0.6361380121451028 
4.5500000000027345, -0.6358352882164393 
4.560000000002711, -0.6354140342239045 
4.570000000002688, -0.6348664642863263 
4.580000000002665, -0.6341970148501993 
4.590000000002641, -0.6334260072524409 
4.600000000002618, -0.6325873192100006 
4.610000000002595, -0.6317198249152505 
4.620000000002571, -0.6308570843630187 
4.630000000002548, -0.6300209543596995 
4.640000000002525, -0.6292214785767325 
4.6500000000025015, -0.6284613044715266 
4.660000000002478, -0.6277412843321748 
4.670000000002455, -0.6270648942808335 
4.6800000000024315, -0.6264408816452682 
4.690000000002408, -0.625884689232324 
4.700000000002385, -0.6254193894823169 
4.710000000002362, -0.6250765204212568 
4.720000000002338, -0.6248968377783857 
4.730000000002315, -0.6249307998497502 
4.740000000002292, -0.6252385552196176 
4.750000000002268, -0.6258891474754404 
4.760000000002245, -0.6269583585022861 
4.770000000002222, -0.6285238574649035 
4.7800000000021985, -0.6306550689989632 
4.790000000002175, -0.633394042873663 
4.800000000002152, -0.63672472104091 
4.810000000002129, -0.6405353285146981 
4.820000000002105, -0.6445943021561689 
4.830000000002082, -0.6485733935197557 
4.840000000002059, -0.652134265859065 
4.850000000002035, -0.6550391590646898 
4.860000000002012, -0.657210618664696 
4.870000000001989, -0.6587078344619954 
4.880000000001965, -0.6596574945497844 
4.890000000001942, -0.6601925080186211 
4.900000000001919, -0.6604200636008362 
4.9100000000018955, -0.6604127839151394 
4.920000000001872, -0.6602102106221205 
4.930000000001849, -0.6598218323572582 
