t, s[1].omega / s[0].omega 
0, -0.6699977027849979 
0.009999999999999995, -0.6697581005515232 
0.019999999999999934, -0.6694957479031518 
0.029999999999999874, -0.6692029691076736 
0.04000000000000012, -0.6688719343130919 
0.050000000000000405, -0.6684988781198122 
0.06000000000000069, -0.6680863841176119 
0.07000000000000098, -0.667643828523632 
0.08000000000000126, -0.6671873439292777 
0.09000000000000155, -0.6667406610982052 
0.10000000000000184, -0.6663374808185304 
0.11000000000000212, -0.6660253015350178 
0.12000000000000241, -0.6658700865460562 
0.130000000000002, -0.6659606929863775 
0.1400000000000009, -0.6664114769867131 
0.1499999999999998, -0.6673608398431657 
0.1599999999999987, -0.6689625444759967 
0.1699999999999976, -0.6713653469256285 
0.1799999999999965, -0.674675697674873 
0.1899999999999954, -0.6789013972415843 
0.1999999999999943, -0.6838876535816657 
0.2099999999999932, -0.6892830848108689 
0.2199999999999921, -0.6945898619244757 
0.229999999999991, -0.6993126765617472 
0.2399999999999899, -0.7031275214383634 
0.2499999999999888, -0.705953140966905 
0.2599999999999877, -0.7078961248268565 
0.2699999999999866, -0.7091435208536575 
0.2799999999999855, -0.7098798258669424 
0.2899999999999844, -0.7102496054086457 
0.2999999999999833, -0.7103509640736363 
0.3099999999999822, -0.7102411322472987 
0.3199999999999811, -0.7099431784577517 
0.32999999999998, -0.7094493443975394 
0.3399999999999789, -0.7087195527869958 
0.3499999999999778, -0.7076748130554418 
0.35999999999997667, -0.706186569468071 
0.36999999999997557, -0.704066892587462 
0.37999999999997447, -0.7010735343991636 
0.38999999999997337, -0.6969570502478242 
0.39999999999997227, -0.6915768765038569 
0.40999999999997117, -0.6850624728128257 
0.41999999999997006, -0.6778997503171569 
0.42999999999996896, -0.6708128906044013 
0.43999999999996786, -0.6644868601872896 
0.44999999999996676, -0.6593385743662286 
0.45999999999996566, -0.6554695155520267 
0.46999999999996456, -0.6527555419387466 
0.47999999999996346, -0.6509675336739228 
0.48999999999996235, -0.64986042393184 
0.49999999999996125, -0.6492199380584867 
0.5099999999999602, -0.6488786101800442 
0.519999999999959, -0.6487148341660542 
0.529999999999958, -0.6486446281842031 
0.5399999999999568, -0.6486116528052835 
0.5499999999999557, -0.6485782290106968 
0.5599999999999546, -0.6485185218969653 
0.5699999999999535, -0.6484142859033947 
0.5799999999999524, -0.6482531780658609 
0.5899999999999513, -0.648029197369847 
0.5999999999999502, -0.6477440356448936 
0.6099999999999491, -0.6474073573815645 
0.619999999999948, -0.6470342712638136 
0.6299999999999469, -0.6466401337660798 
0.6399999999999458, -0.6462351681548085 
0.6499999999999447, -0.6458219670142273 
0.6599999999999436, -0.6453970807725856 
0.6699999999999425, -0.6449552798172177 
0.6799999999999414, -0.6444939014405658 
0.6899999999999403, -0.6440155606294532 
0.6999999999999392, -0.6435292341349068 
0.7099999999999381, -0.643050821055165 
0.719999999999937, -0.6426042898014093 
0.7299999999999359, -0.6422239415635527 
0.7399999999999348, -0.6419577192187067 
0.7499999999999337, -0.641871053605668 
0.7599999999999326, -0.6420503925305282 
0.7699999999999315, -0.6426051592733782 
0.7799999999999304, -0.6436662503405055 
0.7899999999999293, -0.6453780521536588 
0.7999999999999282, -0.6478792532444881 
0.8099999999999271, -0.6512664979692582 
0.819999999999926, -0.6555381127713934 
0.8299999999999249, -0.66052991082057 
0.8399999999999238, -0.6658831262199632 
0.8499999999999227, -0.6711005046640657 
0.8599999999999216, -0.675700847868694 
0.8699999999999205, -0.6793845139939567 
0.8799999999999194, -0.682093105918967 
0.8899999999999183, -0.6839453181011647 
0.8999999999999172, -0.6851292811644591 
0.9099999999999161, -0.6858245000145379 
0.919999999999915, -0.6861690505228273 
0.9299999999999139, -0.686255317956854 
0.9399999999999128, -0.6861361076853864 
0.9499999999999117, -0.6858310826446701 
0.9599999999999106, -0.6853296008576533 
0.9699999999999095, -0.6845887968719606 
0.9799999999999084, -0.6835269602962348 
0.9899999999999073, -0.6820140396528822 
0.9999999999999062, -0.6798658446719853 
1.0099999999999052, -0.6768580403316123 
1.019999999999904, -0.6727855368927199 
1.029999999999903, -0.667580511389932 
1.039999999999902, -0.6614417152774957 
1.0499999999999008, -0.6548586991688479 
1.0599999999998997, -0.648460812726839 
1.0699999999998986, -0.6427854898391218 
1.0799999999998975, -0.638131993340518 
1.0899999999998964, -0.6345586635823686 
1.0999999999998953, -0.6319630247592787 
1.1099999999998942, -0.6301693593563159 
1.119999999999893, -0.6289893434528644 
1.129999999999892, -0.6282538543052272 
1.1399999999998909, -0.6278250410974848 
1.1499999999998898, -0.6275974313327639 
1.1599999999998887, -0.6274938793617197 
1.1699999999998876, -0.6274597160541131 
1.1799999999998865, -0.627456948419112 
1.1899999999998854, -0.6274595014888658 
1.1999999999998843, -0.6274499895975112 
1.2099999999998832, -0.6274180984619686 
1.219999999999882, -0.627360142707654 
1.229999999999881, -0.6272787205798602 
1.2399999999998799, -0.6271810389869014 
1.2499999999998788, -0.627075121444362 
1.2599999999998777, -0.6269648261121866 
1.2699999999998766, -0.626846198750232 
1.2799999999998755, -0.6267075570995349 
1.2899999999998744, -0.6265335563361538 
1.2999999999998733, -0.6263109231978161 
1.3099999999998722, -0.6260327537904595 
1.319999999999871, -0.6256998505121768 
1.32999999999987, -0.6253198942457763 
1.3399999999998689, -0.6249063937758684 
1.3499999999998678, -0.6244790629269387 
1.3599999999998666, -0.624066493577309 
1.3699999999998655, -0.6237114531979433 
1.3799999999998644, -0.6234788687538576 
1.3899999999998633, -0.6234661868813058 
1.3999999999998622, -0.6238148061725082 
1.4099999999998611, -0.6247190145597162 
1.41999999999986, -0.6264245772214112 
1.429999999999859, -0.6292026977969988 
1.4399999999998578, -0.6332800321005632 
1.4499999999998567, -0.6387147627283315 
1.4599999999998556, -0.6452542627935085 
1.4699999999998545, -0.6522858022772445 
1.4799999999998534, -0.659000217928758 
1.4899999999998523, -0.6647177725052612 
1.4999999999998512, -0.6691281842359909 
1.5099999999998501, -0.6722795741524625 
1.519999999999849, -0.6744087072787878 
1.529999999999848, -0.6757836660568757 
1.5399999999998468, -0.6766265997873566 
1.5499999999998457, -0.6770964856087329 
1.5599999999998446, -0.6772969762815759 
1.5699999999998435, -0.6772889264992543 
1.5799999999998424, -0.6770999974658833 
1.5899999999998413, -0.6767296709571992 
1.5999999999998402, -0.6761500400826306 
1.6099999999998391, -0.6753037397728918 
1.619999999999838, -0.6741021360351037 
1.629999999999837, -0.6724303661984352 
1.6399999999998358, -0.670169691215077 
1.6499999999998347, -0.6672451304761264 
1.6599999999998336, -0.6636874933470501 
1.6699999999998325, -0.6596697876512075 
1.6799999999998314, -0.6554766783896107 
1.6899999999998303, -0.6514159274208998 
1.6999999999998292, -0.6477308283955299 
1.709999999999828, -0.6445611665654682 
1.719999999999827, -0.6419522241421134 
1.729999999999826, -0.6398849563867565 
1.7399999999998248, -0.6383053306726625 
1.7499999999998237, -0.637144706591127 
1.7599999999998226, -0.6363317528736145 
1.7699999999998215, -0.6357988400189287 
1.7799999999998204, -0.6354853598988448 
1.7899999999998193, -0.6353393524645753 
1.7999999999998182, -0.6353180735883803 
1.809999999999817, -0.6353878296585624 
1.819999999999816, -0.635523356229416 
1.8299999999998149, -0.6357070073035234 
1.8399999999998138, -0.6359278775394434 
1.8499999999998127, -0.6361806398631416 
1.8599999999998116, -0.636463489495188 
1.8699999999998105, -0.6367745608979515 
1.8799999999998094, -0.6371069997662088 
1.8899999999998083, -0.6374444405277138 
1.8999999999998072, -0.6377598310198416 
1.909999999999806, -0.6380197080124163 
1.919999999999805, -0.6381927461773946 
1.9299999999998039, -0.6382580442135184 
1.9399999999998028, -0.6382086601973392 
1.9499999999998017, -0.638049577292328 
1.9599999999998006, -0.6377928610912053 
1.9699999999997995, -0.6374534326377155 
1.9799999999997984, -0.6370474462576251 
1.9899999999997973, -0.6365938671395568 
1.9999999999997962, -0.636119423855967 
2.0099999999998173, -0.6356673569587492 
2.0199999999998384, -0.6353105652372788 
2.0299999999998595, -0.6351689532840192 
2.0399999999998806, -0.6354276395296108 
2.0499999999999017, -0.636345340598678 
2.059999999999923, -0.6382302456415009 
2.069999999999944, -0.6413518540006976 
2.079999999999965, -0.6457784013292411 
2.089999999999986, -0.6512131298367868 
2.100000000000007, -0.6569992457145382 
2.1100000000000283, -0.6623858520018021 
2.1200000000000494, -0.6668646891764902 
2.1300000000000705, -0.670291669495349 
2.1400000000000916, -0.6727738902858444 
2.1500000000001127, -0.6745071959800597 
2.160000000000134, -0.6756800503200291 
2.170000000000155, -0.6764416730811523 
2.180000000000176, -0.6769001384584855 
2.190000000000197, -0.6771288688691559 
2.2000000000002182, -0.6771733635661417 
2.2100000000002393, -0.677055927192029 
2.2200000000002604, -0.676778075418333 
2.2300000000002815, -0.6763210121285306 
2.2400000000003026, -0.6756453624344612 
2.2500000000003237, -0.6746927942086699 
2.260000000000345, -0.6733941298636021 
2.270000000000366, -0.6716890668230542 
2.280000000000387, -0.6695573959324497 
2.290000000000408, -0.6670488454246832 
2.3000000000004293, -0.6642888929648494 
2.3100000000004504, -0.6614490375761422 
2.3200000000004715, -0.6586979845574663 
2.3300000000004926, -0.6561636586467128 
2.3400000000005137, -0.6539212775391625 
2.3500000000005348, -0.6520016024663602 
2.360000000000556, -0.6504060834392125 
2.370000000000577, -0.6491199250444184 
2.380000000000598, -0.6481203576724626 
2.390000000000619, -0.6473809262613772 
2.4000000000006403, -0.6468735329253399 
2.4100000000006614, -0.6465696365915468 
2.4200000000006825, -0.6464413614122655 
2.4300000000007036, -0.6464627170133849 
2.4400000000007247, -0.646610817164117 
2.450000000000746, -0.6468668792919894 
2.460000000000767, -0.6472167842776693 
2.470000000000788, -0.6476509301854244 
2.480000000000809, -0.6481629538901116 
2.49000000000083, -0.6487467645760745 
2.5000000000008513, -0.6493916520207319 
2.5100000000008724, -0.6500764402037387 
2.5200000000008935, -0.6507655286367204 
2.5300000000009146, -0.6514106574100378 
2.5400000000009357, -0.6519601323873768 
2.550000000000957, -0.6523720393475048 
2.560000000000978, -0.6526240711940192 
2.570000000000999, -0.652714748079567 
2.58000000000102, -0.6526571638452546 
2.5900000000010412, -0.6524704546105589 
2.6000000000010624, -0.6521733939482159 
2.6100000000010835, -0.6517817128498403 
2.6200000000011046, -0.6513089658273211 
2.6300000000011257, -0.6507705953029089 
2.6400000000011468, -0.6501914911478003 
2.650000000001168, -0.6496178940807724 
2.660000000001189, -0.6491339852166093 
2.67000000000121, -0.6488803824432531 
2.680000000001231, -0.6490638758740375 
2.6900000000012523, -0.6499351298463597 
2.7000000000012734, -0.6517050134754165 
2.7100000000012945, -0.6544021822430865 
2.7200000000013156, -0.657763959607874 
2.7300000000013367, -0.6613058910020657 
2.740000000001358, -0.6645659731877158 
2.750000000001379, -0.667298292048278 
2.7600000000014, -0.6694656993769069 
2.770000000001421, -0.6711299127866825 
2.780000000001442, -0.6723728475500036 
2.7900000000014633, -0.6732702022391408 
2.8000000000014844, -0.6738871151991538 
2.8100000000015055, -0.6742772816955638 
2.8200000000015266, -0.674481822865478 
2.8300000000015477, -0.6745283280880825 
2.840000000001569, -0.6744302093922767 
2.85000000000159, -0.6741860550414577 
2.860000000001611, -0.6737788893719546 
2.870000000001632, -0.6731760815946501 
2.8800000000016532, -0.6723319975163086 
2.8900000000016743, -0.6711967707629325 
2.9000000000016954, -0.6697338302875384 
2.9100000000017165, -0.6679433115478611 
2.9200000000017377, -0.665879385795074 
2.9300000000017588, -0.663646696382381 
2.94000000000178, -0.6613736321867587 
2.950000000001801, -0.6591783144434047 
2.960000000001822, -0.6571465341309806 
2.970000000001843, -0.6553279257099518 
2.9800000000018643, -0.6537440284835152 
2.9900000000018854, -0.6523992171181999 
3.0000000000019065, -0.6512891902869422 
3.0100000000019276, -0.6504057648119715 
3.0200000000019487, -0.6497388237851374 
3.03000000000197, -0.6492767623952391 
3.040000000001991, -0.6490065285897286 
3.050000000002012, -0.6489139069275429 
3.060000000002033, -0.6489842670475612 
3.070000000002054, -0.6492036736079678 
3.0800000000020753, -0.649560050953183 
3.0900000000020964, -0.6500439747029668 
3.1000000000021175, -0.6506485462532678 
3.1100000000021386, -0.6513676724582211 
3.1200000000021597, -0.6521921098399746 
3.130000000002181, -0.6531033042635572 
3.140000000002202, -0.6540667877509181 
3.150000000002223, -0.6550291933021042 
3.160000000002244, -0.6559235696342682 
3.1700000000022652, -0.6566838297036867 
3.1800000000022863, -0.6572619424080073 
3.1900000000023074, -0.6576378893792889 
3.2000000000023285, -0.6578175386380901 
3.2100000000023496, -0.6578222489571772 
3.2200000000023707, -0.6576775245672997 
3.230000000002392, -0.6574053916204996 
3.240000000002413, -0.6570212969200298 
3.250000000002434, -0.6565345178112607 
3.260000000002455, -0.6559512186288987 
3.2700000000024763, -0.6552801834422354 
3.2800000000024974, -0.6545419620630053 
3.2900000000025185, -0.653781833717105 
3.3000000000025396, -0.6530842070468382 
3.3100000000025607, -0.6525790639592023 
3.3200000000025818, -0.65242121298111 
3.330000000002603, -0.6527240887559909 
3.340000000002624, -0.6534691026640895 
3.350000000002645, -0.6544805486996066 
3.360000000002666, -0.655537779898405 
3.3700000000026873, -0.6565240090679988 
3.3800000000027084, -0.657440867046869 
3.3900000000027295, -0.6583130989955236 
3.4000000000027506, -0.6591282749372459 
3.4100000000027717, -0.6598482799741163 
3.420000000002793, -0.6604395037919693 
3.430000000002814, -0.660886591757075 
3.440000000002835, -0.6611901297120861 
3.450000000002856, -0.6613585325652186 
3.460000000002877, -0.661400463851862 
3.4700000000028983, -0.6613195041372426 
3.4800000000029194, -0.6611107691318809 
3.4900000000029405, -0.6607590295322232 
3.5000000000029616, -0.6602386572339884 
3.5100000000029827, -0.6595168197678113 
3.520000000003004, -0.6585619132880066 
3.530000000003025, -0.6573576678854287 
3.540000000003046, -0.6559185688059049 
3.550000000003067, -0.6542970969559564 
3.5600000000030882, -0.6525750432592126 
3.5700000000031094, -0.6508420134210582 
3.5800000000031305, -0.6491739230806577 
3.5900000000031516, -0.6476222794235541 
3.6000000000031727, -0.6462153490371236 
3.6100000000031938, -0.6449656249448453 
3.620000000003215, -0.6438777968654918 
3.630000000003236, -0.6429543093683134 
3.640000000003257, -0.6421981061606088 
3.650000000003278, -0.6416133040064709 
3.6600000000032993, -0.6412047347938162 
3.6700000000033204, -0.6409771246273193 
3.6800000000033415, -0.6409344438794827 
3.6900000000033626, -0.6410797239174528 
3.7000000000033837, -0.6414153774197875 
3.710000000003405, -0.6419437694558267 
3.720000000003426, -0.6426674686423588 
3.730000000003447, -0.643588277153058 
3.740000000003468, -0.6447038994211447 
3.750000000003489, -0.6460013226589372 
3.7600000000035103, -0.6474473465910593 
3.7700000000035314, -0.6489797643226701 
3.7800000000035525, -0.6505063068488968 
3.7900000000035736, -0.6519182798841618 
3.8000000000035947, -0.6531174011687922 
3.810000000003616, -0.6540421110226063 
3.820000000003637, -0.6546774458444786 
3.830000000003658, -0.6550452295399667 
3.840000000003679, -0.6551848142085284 
3.8500000000037002, -0.655136074035883 
3.8600000000037213, -0.6549294900445254 
3.8700000000037424, -0.6545822586935153 
3.8800000000037635, -0.6540975936738824 
3.8900000000037847, -0.6534650660083988 
3.9000000000038058, -0.652660953337798 
3.910000000003827, -0.6516482914547963 
3.920000000003848, -0.6503763980084843 
3.930000000003869, -0.6487790254908562 
3.94000000000389, -0.6467699792017518 
3.9500000000039113, -0.6442396893875487 
3.9600000000039324, -0.6410739232911534 
3.9700000000039535, -0.6372356063178733 
3.9800000000039746, -0.6329063398674418 
3.9900000000039957, -0.6285470380354484 
4.000000000004016, -0.6247247500720026 
4.010000000003993, -0.6218227151009144 
4.02000000000397, -0.6199069588696096 
4.030000000003946, -0.6188090549031093 
4.040000000003923, -0.6182788932281634 
4.0500000000039, -0.6180891568246557 
4.0600000000038765, -0.6180733157191852 
4.070000000003853, -0.6181239987544375 
4.08000000000383, -0.6181774038899118 
4.090000000003807, -0.6181970074696358 
4.100000000003783, -0.6181610040450017 
4.11000000000376, -0.6180539449187996 
4.120000000003737, -0.6178619671978843 
4.130000000003713, -0.6175711637187202 
4.14000000000369, -0.617169019662481 
4.150000000003667, -0.6166486616889122 
4.1600000000036434, -0.6160144157673941 
4.17000000000362, -0.6152853799870256 
4.180000000003597, -0.6144934901446362 
4.1900000000035735, -0.6136756239804173 
4.20000000000355, -0.6128637355953213 
4.210000000003527, -0.6120784343927991 
4.220000000003504, -0.6113285425523308 
4.23000000000348, -0.6106152096324261 
4.240000000003457, -0.6099374029722457 
4.250000000003434, -0.6092963556803815 
4.26000000000341, -0.6086982764314433 
4.270000000003387, -0.6081558521663657 
4.280000000003364, -0.6076893659004409 
4.2900000000033405, -0.607327951723504 
4.300000000003317, -0.6071110990297609 
4.310000000003294, -0.607090237390944 
4.320000000003271, -0.607330078044644 
4.330000000003247, -0.6079092198649844 
4.340000000003224, -0.608919129092869 
4.350000000003201, -0.6104597103138348 
4.360000000003177, -0.6126281694236474 
4.370000000003154, -0.6154963037324366 
4.380000000003131, -0.6190722175569839 
4.390000000003107, -0.623250995174333 
4.400000000003084, -0.6277789207753366 
4.410000000003061, -0.6322749643225383 
4.4200000000030375, -0.63633418265985 
4.430000000003014, -0.6396660108420915 
4.440000000002991, -0.6421713625083546 
4.450000000002968, -0.6439155728952168 
4.460000000002944, -0.6450448626515988 
4.470000000002921, -0.6457131567213243 
4.480000000002898, -0.6460450393190691 
4.490000000002874, -0.6461264293711111 
4.500000000002851, -0.6460074096260262 
4.510000000002828, -0.6457070269389646 
4.520000000002804, -0.6452155290734571 
4.530000000002781, -0.6444925032936619 
4.540000000002758, -0.6434608815501003 
4.5500000000027345, -0.6419987827543453 
4.560000000002711, -0.6399359706087302 
4.570000000002688, -0.6370705850050801 
4.580000000002665, -0.6332288505900214 
4.590000000002641, -0.6283742405903407 
4.600000000002618, -0.6227141289537597 
4.610000000002595, -0.6167001528309747 
4.620000000002571, -0.6108797642675319 
4.630000000002548, -0.6057000292676868 
4.640000000002525, -0.6014003460450928 
4.6500000000025015, -0.5980241651418862 
4.660000000002478, -0.5954897522963678 
4.670000000002455, -0.5936600213057622 
4.6800000000024315, -0.5923882484111533 
4.690000000002408, -0.5915411069459677 
4.700000000002385, -0.5910072872307963 
4.710000000002362, -0.5906986271059282 
4.720000000002338, -0.59054790852507 
4.730000000002315, -0.5905054833869492 
4.740000000002292, -0.5905358146576101 
4.750000000002268, -0.5906144991390401 
4.760000000002245, -0.5907260475784708 
4.770000000002222, -0.5908624107868474 
4.7800000000021985, -0.5910218360278601 
4.790000000002175, -0.5912071872357103 
4.800000000002152, -0.5914227376897343 
4.810000000002129, -0.5916691528567914 
4.820000000002105, -0.5919379783981715 
4.830000000002082, -0.5922085124771234 
4.840000000002059, -0.5924498810554433 
4.850000000002035, -0.592628515389312 
4.860000000002012, -0.5927174406278406 
4.870000000001989, -0.5927022833232231 
4.880000000001965, -0.5925814846997313 
4.890000000001942, -0.5923622740672997 
4.900000000001919, -0.5920558021561751 
4.9100000000018955, -0.5916739647279365 
4.920000000001872, -0.5912288496519386 
