t, s[1].omega / s[0].omega 
0, -0.829997638380904 
0.009999999999999995, -0.8297292945252066 
0.019999999999999934, -0.8293981064491455 
0.029999999999999874, -0.829007132109365 
0.04000000000000012, -0.828562674812459 
0.050000000000000405, -0.8280752648892454 
0.06000000000000069, -0.8275601916870796 
0.07000000000000098, -0.8270377590490364 
0.08000000000000126, -0.8265334762696315 
0.09000000000000155, -0.8260779762227404 
0.10000000000000184, -0.8257060240114441 
0.11000000000000212, -0.8254539790503304 
0.12000000000000241, -0.8253556497647943 
0.130000000000002, -0.8254373716170142 
0.1400000000000009, -0.8257137492979562 
0.1499999999999998, -0.8261853135827636 
0.1599999999999987, -0.8268383986477266 
0.1699999999999976, -0.8276464839075677 
0.1799999999999965, -0.8285717985119749 
0.1899999999999954, -0.8295664936184093 
0.1999999999999943, -0.8305739392946954 
0.2099999999999932, -0.8315319289693719 
0.2199999999999921, -0.8323795053947393 
0.229999999999991, -0.8330668368238134 
0.2399999999999899, -0.8335642543034029 
0.2499999999999888, -0.8338656015415766 
0.2599999999999877, -0.8339842709762199 
0.2699999999999866, -0.8339448609902534 
0.2799999999999855, -0.8337751153627597 
0.2899999999999844, -0.8335012226710429 
0.2999999999999833, -0.833147226191248 
0.3099999999999822, -0.832738105979319 
0.3199999999999811, -0.8323059859771332 
0.32999999999998, -0.8318989188583868 
0.3399999999999789, -0.8315908948225754 
0.3499999999999778, -0.8314896869854185 
0.35999999999997667, -0.8317364497071802 
0.36999999999997557, -0.8324896552901168 
0.37999999999997447, -0.8338889074766218 
0.38999999999997337, -0.8360029876584509 
0.39999999999997227, -0.8387790610936008 
0.40999999999997117, -0.8420199608247364 
0.41999999999997006, -0.845414121639217 
0.42999999999996896, -0.8486193122681971 
0.43999999999996786, -0.8513638938999843 
0.44999999999996676, -0.853510714340932 
0.45999999999996566, -0.8550553603895816 
0.46999999999996456, -0.8560779392964285 
0.47999999999996346, -0.8566880219981418 
0.48999999999996235, -0.8569877396958908 
0.49999999999996125, -0.8570558835995815 
0.5099999999999602, -0.8569453036482996 
0.519999999999959, -0.8566858504523396 
0.529999999999958, -0.856288509946701 
0.5399999999999568, -0.8557494028655865 
0.5499999999999557, -0.855054355954479 
0.5599999999999546, -0.8541862523501275 
0.5699999999999535, -0.853138427003638 
0.5799999999999524, -0.8519368243449721 
0.5899999999999513, -0.8506686394184587 
0.5999999999999502, -0.8495032532891262 
0.6099999999999491, -0.8486777900361215 
0.619999999999948, -0.84842493526029 
0.6299999999999469, -0.8488635205280097 
0.6399999999999458, -0.8499246438269665 
0.6499999999999447, -0.8513768815332396 
0.6599999999999436, -0.852933092472955 
0.6699999999999425, -0.8543587945833068 
0.6799999999999414, -0.8555220236062588 
0.6899999999999403, -0.8563841269495589 
0.6999999999999392, -0.8569639673099709 
0.7099999999999381, -0.8573035020695136 
0.719999999999937, -0.8574454397211915 
0.7299999999999359, -0.8574219946059186 
0.7399999999999348, -0.8572501376526681 
0.7499999999999337, -0.8569292839053018 
0.7599999999999326, -0.8564389063998938 
0.7699999999999315, -0.8557350250211566 
0.7799999999999304, -0.854746104095577 
0.7899999999999293, -0.8533713833079417 
0.7999999999999282, -0.851488585067124 
0.8099999999999271, -0.8489816293833616 
0.819999999999926, -0.8457957547325453 
0.8299999999999249, -0.8420077786251948 
0.8399999999999238, -0.8378678707355242 
0.8499999999999227, -0.8337619799108017 
0.8599999999999216, -0.8300933218827715 
0.8699999999999205, -0.8271495946883183 
0.8799999999999194, -0.825033158304891 
0.8899999999999183, -0.8236770286210222 
0.8999999999999172, -0.822913740134309 
0.9099999999999161, -0.8225496715552423 
0.919999999999915, -0.8224152302873284 
0.9299999999999139, -0.822385113179928 
0.9399999999999128, -0.8223771374139952 
0.9499999999999117, -0.8223411168628996 
0.9599999999999106, -0.8222459869729379 
0.9699999999999095, -0.8220690444349087 
0.9799999999999084, -0.8217883333635321 
0.9899999999999073, -0.8213782166225376 
0.9999999999999062, -0.8208083944372069 
1.0099999999999052, -0.8200471559807537 
1.019999999999904, -0.8190693396184413 
1.029999999999903, -0.8178673865951358 
1.039999999999902, -0.8164606921228827 
1.0499999999999008, -0.8148974060412566 
1.0599999999998997, -0.8132466404778608 
1.0699999999998986, -0.8115851717534438 
1.0799999999998975, -0.8099852630032519 
1.0899999999998964, -0.8085074292845137 
1.0999999999998953, -0.8071977078431329 
1.1099999999998942, -0.8060870529124438 
1.119999999999893, -0.8051911009306851 
1.129999999999892, -0.8045100733931376 
1.1399999999998909, -0.8040295936191683 
1.1499999999998898, -0.803723185334869 
1.1599999999998887, -0.8035564262963429 
1.1699999999998876, -0.8034918197474921 
1.1799999999998865, -0.8034930865074434 
1.1899999999998854, -0.8035279705606724 
1.1999999999998843, -0.8035694396814741 
1.2099999999998832, -0.803595806453244 
1.219999999999882, -0.8035904588359933 
1.229999999999881, -0.8035415776290767 
1.2399999999998799, -0.803441723897728 
1.2499999999998788, -0.8032869622605505 
1.2599999999998777, -0.8030755433752261 
1.2699999999998766, -0.8028067981632642 
1.2799999999998755, -0.8024810277754166 
1.2899999999998744, -0.8021004938335915 
1.2999999999998733, -0.8016708021340472 
1.3099999999998722, -0.8012018931148729 
1.319999999999871, -0.8007084673164806 
1.32999999999987, -0.8002102108322656 
1.3399999999998689, -0.799732131084185 
1.3499999999998678, -0.7993048242272963 
1.3599999999998666, -0.7989640303933646 
1.3699999999998655, -0.7987487534846596 
1.3799999999998644, -0.7986976571881412 
1.3899999999998633, -0.7988442287148252 
1.3999999999998622, -0.7992118602861857 
1.4099999999998611, -0.7998100365989816 
1.41999999999986, -0.8006321393986783 
1.429999999999859, -0.8016544745611366 
1.4399999999998578, -0.8028357578156404 
1.4499999999998567, -0.8041169853657157 
1.4599999999998556, -0.805423186899654 
1.4699999999998545, -0.8066697714169712 
1.4799999999998534, -0.8077749940099042 
1.4899999999998523, -0.808675705971748 
1.4999999999998512, -0.8093391709140831 
1.5099999999998501, -0.8097646210231148 
1.519999999999849, -0.8099747271030638 
1.529999999999848, -0.8100029630857895 
1.5399999999998468, -0.8098831142969694 
1.5499999999998457, -0.8096437172562154 
1.5599999999998446, -0.8093072089273378 
1.5699999999998435, -0.8088926847655518 
1.5799999999998424, -0.8084217044382631 
1.5899999999998413, -0.80792733929148 
1.5999999999998402, -0.8074666821507248 
1.6099999999998391, -0.8071354808117182 
1.619999999999838, -0.807079701913936 
1.629999999999837, -0.8074931814165875 
1.6399999999998358, -0.8085867528885217 
1.6499999999998347, -0.8105201426404083 
1.6599999999998336, -0.8133108977620436 
1.6699999999998325, -0.81676862293792 
1.6799999999998314, -0.820515826160554 
1.6899999999998303, -0.8241108252176996 
1.6999999999998292, -0.8272038679716719 
1.709999999999828, -0.8296264537504305 
1.719999999999827, -0.8313783918234325 
1.729999999999826, -0.8325571278772752 
1.7399999999998248, -0.8332887082651913 
1.7499999999998237, -0.8336869331058157 
1.7599999999998226, -0.8338380034104572 
1.7699999999998215, -0.8337990530976767 
1.7799999999998204, -0.8336014415305225 
1.7899999999998193, -0.8332540669214072 
1.7999999999998182, -0.8327449083892399 
1.809999999999817, -0.832040582150289 
1.819999999999816, -0.8310848160986154 
1.8299999999998149, -0.8297983003998632 
1.8399999999998138, -0.8280849648882782 
1.8499999999998127, -0.8258528814465288 
1.8599999999998116, -0.8230580719298404 
1.8699999999998105, -0.8197681654156697 
1.8799999999998094, -0.8162141661962483 
1.8899999999998083, -0.8127722708579241 
1.8999999999998072, -0.8098449282500795 
1.909999999999806, -0.8077004944200757 
1.919999999999805, -0.8063850262781725 
1.9299999999998039, -0.8057565206790057 
1.9399999999998028, -0.8055892771510427 
1.9499999999998017, -0.8056681987090443 
1.9599999999998006, -0.8058350224533 
1.9699999999997995, -0.8059929455632107 
1.9799999999997984, -0.8060912183000604 
1.9899999999997973, -0.8061061785058744 
1.9999999999997962, -0.80602594302052 
2.0099999999998173, -0.8058399262582394 
2.0199999999998384, -0.8055320561291467 
2.0299999999998595, -0.8050765098566028 
2.0399999999998806, -0.8044358172063072 
2.0499999999999017, -0.8035626371581598 
2.059999999999923, -0.8024076200843812 
2.069999999999944, -0.8009349033660313 
2.079999999999965, -0.7991422918513909 
2.089999999999986, -0.7970766893125101 
2.100000000000007, -0.7948337711056424 
2.1100000000000283, -0.7925393749558094 
2.1200000000000494, -0.7903221599754436 
2.1300000000000705, -0.7882906519487574 
2.1400000000000916, -0.7865212028859219 
2.1500000000001127, -0.7850555079534856 
2.160000000000134, -0.7839034939152957 
2.170000000000155, -0.7830486503904901 
2.180000000000176, -0.7824547331450074 
2.190000000000197, -0.7820733913433894 
2.2000000000002182, -0.7818518607216461 
2.2100000000002393, -0.7817394326058407 
2.2200000000002604, -0.7816916362371285 
2.2300000000002815, -0.7816718803300022 
2.2400000000003026, -0.7816511543285521 
2.2500000000003237, -0.7816068484845855 
2.260000000000345, -0.7815217054281208 
2.270000000000366, -0.781383463355407 
2.280000000000387, -0.7811850639864273 
2.290000000000408, -0.7809246944875669 
2.3000000000004293, -0.7806048982528375 
2.3100000000004504, -0.7802307451131016 
2.3200000000004715, -0.7798080089407079 
2.3300000000004926, -0.7793424594508342 
2.3400000000005137, -0.7788405317086234 
2.3500000000005348, -0.7783106997829006 
2.360000000000556, -0.7777647252311838 
2.370000000000577, -0.7772184506456181 
2.380000000000598, -0.7766922414262161 
2.390000000000619, -0.7762111522079146 
2.4000000000006403, -0.7758045906567774 
2.4100000000006614, -0.7755050569331073 
2.4200000000006825, -0.7753456897087909 
2.4300000000007036, -0.7753568176053081 
2.4400000000007247, -0.7755622188689559 
2.450000000000746, -0.7759759619653555 
2.460000000000767, -0.7766003481831818 
2.470000000000788, -0.7774247906453597 
2.480000000000809, -0.7784249258110638 
2.49000000000083, -0.7795613765702265 
2.5000000000008513, -0.7807786308129951 
2.5100000000008724, -0.782006132177544 
2.5200000000008935, -0.7831645622850452 
2.5300000000009146, -0.7841784568040172 
2.5400000000009357, -0.7849915003484766 
2.550000000000957, -0.785576966077599 
2.560000000000978, -0.7859377516624808 
2.570000000000999, -0.7860972749497936 
2.58000000000102, -0.7860874370183794 
2.5900000000010412, -0.7859392526516057 
2.6000000000010624, -0.785678233040317 
2.6100000000010835, -0.785324024644938 
2.6200000000011046, -0.7848932670194526 
2.6300000000011257, -0.7844052707679082 
2.6400000000011468, -0.7838908587195856 
2.650000000001168, -0.7834047448884096 
2.660000000001189, -0.7830403181559125 
2.67000000000121, -0.7829418070834496 
2.680000000001231, -0.7833027160577802 
2.6900000000012523, -0.7843347095490585 
2.7000000000012734, -0.7861966666224497 
2.7100000000012945, -0.7888992904014439 
2.7200000000013156, -0.7922398532419624 
2.7300000000013367, -0.7958336159144968 
2.740000000001358, -0.7992493475806207 
2.750000000001379, -0.8021640401624797 
2.7600000000014, -0.80443627801306 
2.770000000001421, -0.806079602428176 
2.780000000001442, -0.8071906806094653 
2.7900000000014633, -0.8078868976125368 
2.8000000000014844, -0.8082719582536217 
2.8100000000015055, -0.8084237464298386 
2.8200000000015266, -0.8083935001434917 
2.8300000000015477, -0.8082085467874001 
2.840000000001569, -0.8078746734773976 
2.85000000000159, -0.8073765696970521 
2.860000000001611, -0.8066760249816903 
2.870000000001632, -0.8057085826602165 
2.8800000000016532, -0.8043810922469629 
2.8900000000016743, -0.8025758711430534 
2.9000000000016954, -0.8001714775075438 
2.9100000000017165, -0.7970906390177671 
2.9200000000017377, -0.7933720521007541 
2.9300000000017588, -0.7892297621874532 
2.94000000000178, -0.7850395697999863 
2.950000000001801, -0.7812274162001906 
2.960000000001822, -0.7781192764548883 
2.970000000001843, -0.7758492588562271 
2.9800000000018643, -0.7743669243345838 
2.9900000000018854, -0.7735095078358689 
3.0000000000019065, -0.7730820625894995 
3.0100000000019276, -0.772911198356191 
3.0200000000019487, -0.7728670203599917 
3.03000000000197, -0.7728630335939664 
3.040000000001991, -0.7728459101586285 
3.050000000002012, -0.7727832659296325 
3.060000000002033, -0.7726532794270173 
3.070000000002054, -0.7724372299893382 
3.0800000000020753, -0.772114964098632 
3.0900000000020964, -0.7716633317276992 
3.1000000000021175, -0.7710580264856965 
3.1100000000021386, -0.770279152682988 
3.1200000000021597, -0.7693194468384488 
3.130000000002181, -0.7681916772564225 
3.140000000002202, -0.7669305728978999 
3.150000000002223, -0.7655871449122168 
3.160000000002244, -0.7642182277623675 
3.1700000000022652, -0.7628767904678099 
3.1800000000022863, -0.7616067222342539 
3.1900000000023074, -0.7604420298135887 
3.2000000000023285, -0.7594081948290459 
3.2100000000023496, -0.758523551328837 
3.2200000000023707, -0.7577997213467438 
3.230000000002392, -0.7572412334240425 
3.240000000002413, -0.7568450186319693 
3.250000000002434, -0.7566005255958581 
3.260000000002455, -0.7564908549242335 
3.2700000000024763, -0.7564948055443228 
3.2800000000024974, -0.7565893218150008 
3.2900000000025185, -0.7567517203633073 
3.3000000000025396, -0.756961246585541 
3.3100000000025607, -0.7571997758751307 
3.3200000000025818, -0.7574516451097522 
3.330000000002603, -0.7577026674206645 
3.340000000002624, -0.757938550545475 
3.350000000002645, -0.7581433805583735 
3.360000000002666, -0.7582992968662806 
3.3700000000026873, -0.7583882678815052 
3.3800000000027084, -0.7583956160628655 
3.3900000000027295, -0.7583134948964346 
3.4000000000027506, -0.7581423902930905 
3.4100000000027717, -0.7578901997790833 
3.420000000002793, -0.7575701200598106 
3.430000000002814, -0.7571990827618444 
3.440000000002835, -0.7567978816040839 
3.450000000002856, -0.7563932718882095 
3.460000000002877, -0.7560216749242665 
3.4700000000028983, -0.7557336056122752 
3.4800000000029194, -0.7555973478870034 
3.4900000000029405, -0.7556997504270615 
3.5000000000029616, -0.7561416284562794 
3.5100000000029827, -0.7570255664545648 
3.520000000003004, -0.758435187347312 
3.530000000003025, -0.7604073469846181 
3.540000000003046, -0.7629027045099621 
3.550000000003067, -0.7657860489925581 
3.5600000000030882, -0.7688328184839223 
3.5700000000031094, -0.7717735549424928 
3.5800000000031305, -0.7743661985904672 
3.5900000000031516, -0.7764601659233789 
3.6000000000031727, -0.7780167576644363 
3.6100000000031938, -0.7790832583145814 
3.620000000003215, -0.7797478288683058 
3.630000000003236, -0.7801022724040619 
3.640000000003257, -0.7802221974946845 
3.650000000003278, -0.7801608604854103 
3.6600000000032993, -0.77994978930259 
3.6700000000033204, -0.7796012726297888 
3.6800000000033415, -0.7791103932289566 
3.6900000000033626, -0.7784560421157851 
3.7000000000033837, -0.7776014649539216 
3.710000000003405, -0.7764958904083619 
3.720000000003426, -0.775079995319963 
3.730000000003447, -0.7732991716569908 
3.740000000003468, -0.7711285393471152 
3.750000000003489, -0.7686094882076916 
3.7600000000035103, -0.7658853764470834 
3.7700000000035314, -0.7632060958857473 
3.7800000000035525, -0.760869431954663 
3.7900000000035736, -0.7591103765245 
3.8000000000035947, -0.7580099004703267 
3.810000000003616, -0.7574888777704754 
3.820000000003637, -0.7573765893888645 
3.830000000003658, -0.7574919479492153 
3.840000000003679, -0.7576926441805245 
3.8500000000037002, -0.7578873308821699 
3.8600000000037213, -0.7580264335813255 
3.8700000000037424, -0.7580868137850564 
3.8800000000037635, -0.7580581889802168 
3.8900000000037847, -0.7579334259242769 
3.9000000000038058, -0.7577021988877799 
3.910000000003827, -0.7573470360804919 
3.920000000003848, -0.7568413856081933 
3.930000000003869, -0.7561503939291638 
3.94000000000389, -0.7552360303804451 
3.9500000000039113, -0.7540679186399293 
3.9600000000039324, -0.7526384006145338 
3.9700000000039535, -0.750975493905221 
3.9800000000039746, -0.7491450682707532 
3.9900000000039957, -0.7472386920297331 
4.000000000004016, -0.7453532477826643 
4.010000000003993, -0.7435729765871383 
4.02000000000397, -0.741960331363819 
4.030000000003946, -0.7405549800959137 
4.040000000003923, -0.7393768888779986 
4.0500000000039, -0.7384300951512701 
4.0600000000038765, -0.737705848143773 
4.070000000003853, -0.7371852593981965 
4.08000000000383, -0.7368420151976165 
4.090000000003807, -0.7366454043672579 
4.100000000003783, -0.7365634330571117 
4.11000000000376, -0.7365655297544087 
4.120000000003737, -0.7366244254050242 
4.130000000003713, -0.7367171038873367 
4.14000000000369, -0.7368250128399327 
4.150000000003667, -0.7369338072736926 
4.1600000000036434, -0.7370327359208322 
4.17000000000362, -0.7371135545892253 
4.180000000003597, -0.7371688942152461 
4.1900000000035735, -0.7371905079188601 
4.20000000000355, -0.7371684132607084 
4.210000000003527, -0.7370918488495413 
4.220000000003504, -0.7369518660660656 
4.23000000000348, -0.7367441337634064 
4.240000000003457, -0.736470419543663 
4.250000000003434, -0.7361383726075852 
4.26000000000341, -0.7357605097256427 
4.270000000003387, -0.7353536788644333 
4.280000000003364, -0.7349398077146014 
4.2900000000033405, -0.7345480428997722 
4.300000000003317, -0.7342178037751868 
4.310000000003294, -0.7340018071252302 
4.320000000003271, -0.7339677014131882 
4.330000000003247, -0.7341966591436104 
4.340000000003224, -0.7347772865278109 
4.350000000003201, -0.7357936223057634 
4.360000000003177, -0.7373068351923339 
4.370000000003154, -0.7393318053983658 
4.380000000003131, -0.7418130561498139 
4.390000000003107, -0.7446101109836933 
4.400000000003084, -0.7475071555146183 
4.410000000003061, -0.7502567478882627 
4.4200000000030375, -0.7526460625983127 
4.430000000003014, -0.7545514001040905 
4.440000000002991, -0.7559508336228149 
4.450000000002968, -0.7568965539456938 
4.460000000002944, -0.7574731618471011 
4.470000000002921, -0.7577651671774943 
4.480000000002898, -0.757840497333752 
4.490000000002874, -0.7577458020282457 
4.500000000002851, -0.7575072730136736 
4.510000000002828, -0.7571327222246036 
4.520000000002804, -0.7566129502745829 
4.530000000002781, -0.7559219251735099 
4.540000000002758, -0.7550162544450362 
4.5500000000027345, -0.7538354231171577 
4.560000000002711, -0.7523057380238283 
4.570000000002688, -0.7503529281339401 
4.580000000002665, -0.7479296576845031 
4.590000000002641, -0.7450603692365788 
4.600000000002618, -0.7418895421736362 
4.610000000002595, -0.7386933575764527 
4.620000000002571, -0.7358131143473201 
4.630000000002548, -0.7335276344364334 
4.640000000002525, -0.7319513569232715 
4.6500000000025015, -0.731026746637682 
4.660000000002478, -0.7305934181198891 
4.670000000002455, -0.7304697711429211 
4.6800000000024315, -0.7305043169007275 
4.690000000002408, -0.7305919142239985 
4.700000000002385, -0.7306686299020593 
4.710000000002362, -0.7306990591020742 
4.720000000002338, -0.7306638895040877 
4.730000000002315, -0.7305504055294273 
4.740000000002292, -0.7303460779028188 
4.750000000002268, -0.7300347189190912 
4.760000000002245, -0.7295950204019983 
4.770000000002222, -0.7290019643375026 
4.7800000000021985, -0.7282319187624408 
4.790000000002175, -0.7272713171467207 
4.800000000002152, -0.7261262657251363 
4.810000000002129, -0.7248278388631996 
4.820000000002105, -0.7234286521737809 
4.830000000002082, -0.7219916025563132 
4.840000000002059, -0.7205769085530777 
4.850000000002035, -0.7192336012159648 
4.860000000002012, -0.7179972731648812 
4.870000000001989, -0.716891997632292 
4.880000000001965, -0.7159334033075921 
4.890000000001942, -0.7151309967699687 
4.900000000001919, -0.7144892300661044 
4.9100000000018955, -0.7140076810627751 
4.920000000001872, -0.7136810029173168 
