t, s[1].omega / s[0].omega 
0, -1.9699968025383363 
0.009999999999999995, -1.9695522959262408 
0.019999999999999934, -1.9688569633061648 
0.029999999999999874, -1.9679126391645632 
0.04000000000000012, -1.9667719485997075 
0.050000000000000405, -1.9656098121791878 
0.06000000000000069, -1.9647201066409956 
0.07000000000000098, -1.9642877354357844 
0.08000000000000126, -1.9641803601137524 
0.09000000000000155, -1.9641313108028928 
0.10000000000000184, -1.9639796208513214 
0.11000000000000212, -1.963675157611203 
0.12000000000000241, -1.9632106715786921 
0.130000000000002, -1.9626125164298904 
0.1400000000000009, -1.9620065013007975 
0.1499999999999998, -1.961669151364502 
0.1599999999999987, -1.9618381841480654 
0.1699999999999976, -1.9624080730992925 
0.1799999999999965, -1.9630426225052815 
0.1899999999999954, -1.9634956495059175 
0.1999999999999943, -1.963683225399722 
0.2099999999999932, -1.9636038770661561 
0.2199999999999921, -1.9632738503086784 
0.229999999999991, -1.962703097112176 
0.2399999999999899, -1.9618992301419695 
0.2499999999999888, -1.9608968062205983 
0.2599999999999877, -1.9598124043609115 
0.2699999999999866, -1.9588768534522658 
0.2799999999999855, -1.9583117895050262 
0.2899999999999844, -1.958101382117211 
0.2999999999999833, -1.9580247677333715 
0.3099999999999822, -1.9578922326527863 
0.3199999999999811, -1.9576230096252467 
0.32999999999998, -1.9571922398993717 
0.3399999999999789, -1.9566011874943219 
0.3499999999999778, -1.9559250204941758 
0.35999999999997667, -1.9554087388724217 
0.36999999999997557, -1.95539374002933 
0.37999999999997447, -1.9559407805934814 
0.38999999999997337, -1.9567167765953415 
0.39999999999997227, -1.957367089444349 
0.40999999999997117, -1.9577369638309476 
0.41999999999997006, -1.957810941712245 
0.42999999999996896, -1.9576169816304596 
0.43999999999996786, -1.957181896576087 
0.44999999999996676, -1.9565245121115833 
0.45999999999996566, -1.9556726038288432 
0.46999999999996456, -1.9547009231296522 
0.47999999999996346, -1.9537721666867736 
0.48999999999996235, -1.9530982608549432 
0.49999999999996125, -1.95276349424998 
0.5099999999999602, -1.9526322266467138 
0.519999999999959, -1.9525084300148081 
0.529999999999958, -1.9522769145901748 
0.5399999999999568, -1.951890866756831 
0.5499999999999557, -1.9513291449990704 
0.5599999999999546, -1.9506139150803858 
0.5699999999999535, -1.9499140430567814 
0.5799999999999524, -1.9496098553944052 
0.5899999999999513, -1.949994012103866 
0.5999999999999502, -1.9508623371503375 
0.6099999999999491, -1.951747459273752 
0.619999999999948, -1.9523597142596318 
0.6299999999999469, -1.9526348769833912 
0.6399999999999458, -1.9526055723449933 
0.6499999999999447, -1.9523182245039383 
0.6599999999999436, -1.9518085042369762 
0.6699999999999425, -1.9511078832481246 
0.6799999999999414, -1.9502686562196239 
0.6899999999999403, -1.949398556346375 
0.6999999999999392, -1.9486670793300598 
0.7099999999999381, -1.9482109131185283 
0.719999999999937, -1.9479973169329372 
0.7299999999999359, -1.9478626652240194 
0.7399999999999348, -1.9476649482470525 
0.7499999999999337, -1.9473309564944032 
0.7599999999999326, -1.946820306426814 
0.7699999999999315, -1.9461123621362255 
0.7799999999999304, -1.9452778660790178 
0.7899999999999293, -1.9446267702127304 
0.7999999999999282, -1.9446416484873388 
0.8099999999999271, -1.9454336530174614 
0.819999999999926, -1.9465350780792654 
0.8299999999999249, -1.9474511974047644 
0.8399999999999238, -1.9479926465845459 
0.8499999999999227, -1.9481707471958074 
0.8599999999999216, -1.9480509307964833 
0.8699999999999205, -1.9476917416675665 
0.8799999999999194, -1.947137488272228 
0.8899999999999183, -1.9464344332020556 
0.8999999999999172, -1.9456569946145355 
0.9099999999999161, -1.9449269272989755 
0.919999999999915, -1.9443823861371812 
0.9299999999999139, -1.9440724440100965 
0.9399999999999128, -1.9439017903157165 
0.9499999999999117, -1.9437259724654765 
0.9599999999999106, -1.9434453783841263 
0.9699999999999095, -1.9430013980341934 
0.9799999999999084, -1.9423465094350578 
0.9899999999999073, -1.9414677494604597 
0.9999999999999062, -1.940522886463824 
1.0099999999999052, -1.9399967000706997 
1.019999999999904, -1.940391407114781 
1.029999999999903, -1.9415369315524622 
1.039999999999902, -1.9427710405153107 
1.0499999999999008, -1.9436542093939693 
1.0599999999998997, -1.9441025950199347 
1.0699999999998986, -1.9441850828038423 
1.0799999999998975, -1.94398785556077 
1.0899999999998964, -1.9435770047924978 
1.0999999999998953, -1.9430052701292886 
1.1099999999998942, -1.9423332821518353 
1.119999999999893, -1.9416491974273817 
1.129999999999892, -1.941066539029536 
1.1399999999998909, -1.9406712559185035 
1.1499999999998898, -1.9404438534391324 
1.1599999999998887, -1.9402711738311975 
1.1699999999998876, -1.940038179881587 
1.1799999999998865, -1.9396677699773819 
1.1899999999998854, -1.9390979215858632 
1.1999999999998843, -1.9382677741464973 
1.2099999999998832, -1.9371861138253077 
1.219999999999882, -1.9361397713513404 
1.229999999999881, -1.9357920922729819 
1.2399999999998799, -1.9365559495683897 
1.2499999999998788, -1.937947409983621 
1.2599999999998777, -1.9392097258738743 
1.2699999999998766, -1.9400066827564721 
1.2799999999998755, -1.9403471481735781 
1.2899999999998744, -1.940338411901827 
1.2999999999998733, -1.9400768261042305 
1.3099999999998722, -1.939632417819763 
1.319999999999871, -1.9390659550518639 
1.32999999999987, -1.9384495596265634 
1.3399999999998689, -1.9378734494273595 
1.3499999999998678, -1.9374251723973284 
1.3599999999998666, -1.9371364699645663 
1.3699999999998655, -1.9369471376923575 
1.3799999999998644, -1.9367494482238647 
1.3899999999998633, -1.936451329931073 
1.3999999999998622, -1.9359813753493245 
1.4099999999998611, -1.935262705770548 
1.41999999999986, -1.934219139486237 
1.429999999999859, -1.932898726740967 
1.4399999999998578, -1.9317492362763276 
1.4499999999998567, -1.9315777676634291 
1.4599999999998556, -1.932614981526155 
1.4699999999998545, -1.9341070775263465 
1.4799999999998534, -1.9352989605775057 
1.4899999999998523, -1.9359699578196605 
1.4999999999998512, -1.9361964289682732 
1.5099999999998501, -1.9361044760318311 
1.519999999999849, -1.935791657174498 
1.529999999999848, -1.935329645005826 
1.5399999999998468, -1.934786826573554 
1.5499999999998457, -1.9342421655176376 
1.5599999999998446, -1.9337761298880782 
1.5699999999998435, -1.9334407512991063 
1.5799999999998424, -1.9332233257109928 
1.5899999999998413, -1.9330456657309294 
1.5999999999998402, -1.9328125815161665 
1.6099999999998391, -1.9324446298352396 
1.619999999999838, -1.9318645960620273 
1.629999999999837, -1.9309744585108284 
1.6399999999998358, -1.9296841971553065 
1.6499999999998347, -1.9280948127663162 
1.6599999999998336, -1.9268170146536572 
1.6699999999998325, -1.926737768737291 
1.6799999999998314, -1.9278769361367432 
1.6899999999998303, -1.9293136304343173 
1.6999999999998292, -1.9303570352404722 
1.709999999999828, -1.9308811688126482 
1.719999999999827, -1.9309977881730824 
1.729999999999826, -1.930834232091017 
1.7399999999998248, -1.930483062369601 
1.7499999999998237, -1.930017028663451 
1.7599999999998226, -1.9295119238635352 
1.7699999999998215, -1.9290483394599154 
1.7799999999998204, -1.928687715602845 
1.7899999999998193, -1.9284448006961548 
1.7999999999998182, -1.9282757002575046 
1.809999999999817, -1.9280979044047637 
1.819999999999816, -1.9278278248829348 
1.8299999999998149, -1.9273904371745456 
1.8399999999998138, -1.926697547836262 
1.8499999999998127, -1.9256303986821925 
1.8599999999998116, -1.924090358204881 
1.8699999999998105, -1.92222960833 
1.8799999999998094, -1.9207762905139034 
1.8899999999998083, -1.9206312006860327 
1.8999999999998072, -1.9216648179692974 
1.909999999999806, -1.9229121216339895 
1.919999999999805, -1.9237612927825964 
1.9299999999998039, -1.9241378839996586 
1.9399999999998028, -1.924157559068788 
1.9499999999998017, -1.9239360077121723 
1.9599999999998006, -1.9235578116703909 
1.9699999999997995, -1.923097774143177 
1.9799999999997984, -1.9226395863245362 
1.9899999999997973, -1.9222616871572495 
1.9999999999997962, -1.922001324713961 
2.0099999999998173, -1.9218387285898277 
2.0199999999998384, -1.9217096230728767 
2.0299999999998595, -1.9215331974477103 
2.0399999999998806, -1.921234685067763 
2.0499999999999017, -1.9207404809264819 
2.059999999999923, -1.9199545616652998 
2.069999999999944, -1.918747731611924 
2.079999999999965, -1.9170221670231453 
2.089999999999986, -1.914955455121562 
2.100000000000007, -1.9132981511074523 
2.1100000000000283, -1.9129156417614663 
2.1200000000000494, -1.9136578012403702 
2.1300000000000705, -1.9146261190286578 
2.1400000000000916, -1.9152675099288807 
2.1500000000001127, -1.9155109085903654 
2.160000000000134, -1.9154510477958087 
2.170000000000155, -1.9151842666646974 
2.180000000000176, -1.914786359560988 
2.190000000000197, -1.9143360772085594 
2.2000000000002182, -1.913927590272937 
2.2100000000002393, -1.9136377832254272 
2.2200000000002604, -1.9134788886007978 
2.2300000000002815, -1.9133992387820467 
2.2400000000003026, -1.9133191569940113 
2.2500000000003237, -1.913160711642627 
2.260000000000345, -1.9128569684693217 
2.270000000000366, -1.9123392847064609 
2.280000000000387, -1.911515949121667 
2.290000000000408, -1.9102674992064401 
2.3000000000004293, -1.9085098244826302 
2.3100000000004504, -1.9064048042030577 
2.3200000000004715, -1.9046072192818113 
2.3300000000004926, -1.9038998244845342 
2.3400000000005137, -1.9042394319119769 
2.3500000000005348, -1.9048870311827397 
2.360000000000556, -1.9053282998596839 
2.370000000000577, -1.90545900588215 
2.380000000000598, -1.9053365734623273 
2.390000000000619, -1.9050335327003496 
2.4000000000006403, -1.904616090500849 
2.4100000000006614, -1.904168726987154 
2.4200000000006825, -1.9038028375878866 
2.4300000000007036, -1.9036028997696395 
2.4400000000007247, -1.903559738396309 
2.450000000000746, -1.9035874170689753 
2.460000000000767, -1.9035874170048745 
2.470000000000788, -1.9034823282077133 
2.480000000000809, -1.903214441750426 
2.49000000000083, -1.902728200905046 
2.5000000000008513, -1.9019521827488872 
2.5100000000008724, -1.9007977170397221 
2.5200000000008935, -1.8992062766506232 
2.5300000000009146, -1.897294751585018 
2.5400000000009357, -1.8955369009403964 
2.550000000000957, -1.894569743288944 
2.560000000000978, -1.894503525606675 
2.570000000000999, -1.8948307978325762 
2.58000000000102, -1.8950883894616848 
2.5900000000010412, -1.8951255078763996 
2.6000000000010624, -1.8949537346350638 
2.6100000000010835, -1.8946180962732082 
2.6200000000011046, -1.894171867757667 
2.6300000000011257, -1.8937043121996928 
2.6400000000011468, -1.8933553804758279 
2.650000000001168, -1.8932412170593405 
2.660000000001189, -1.8933440262073096 
2.67000000000121, -1.8935328270722454 
2.680000000001231, -1.8936732908674396 
2.6900000000012523, -1.8936798459985664 
2.7000000000012734, -1.8935050030959926 
2.7100000000012945, -1.8931139019946435 
2.7200000000013156, -1.8924661240145024 
2.7300000000013367, -1.8915134636664697 
2.740000000001358, -1.8902275592189184 
2.750000000001379, -1.8886810334833317 
2.7600000000014, -1.8871611468840335 
2.770000000001421, -1.8861138058556262 
2.780000000001442, -1.8857434463372402 
2.7900000000014633, -1.8857904085486137 
2.8000000000014844, -1.885884733825262 
2.8100000000015055, -1.885843223154339 
2.8200000000015266, -1.8856313909464517 
2.8300000000015477, -1.8852630871279543 
2.840000000001569, -1.8847709442271743 
2.85000000000159, -1.884239410271718 
2.860000000001611, -1.8838450306316818 
2.870000000001632, -1.8837807491362373 
2.8800000000016532, -1.8840617912529443 
2.8900000000016743, -1.8844981237870582 
2.9000000000016954, -1.884878217381195 
2.9100000000017165, -1.8850830820785187 
2.9200000000017377, -1.8850708162450516 
2.9300000000017588, -1.8848313888751949 
2.94000000000178, -1.8843587082666642 
2.950000000001801, -1.8836431900536628 
2.960000000001822, -1.8826845253745255 
2.970000000001843, -1.8815310444332218 
2.9800000000018643, -1.8803403616210126 
2.9900000000018854, -1.8793829795681691 
3.0000000000019065, -1.8788621009888693 
3.0100000000019276, -1.8787039576238054 
3.0200000000019487, -1.878662804289514 
3.03000000000197, -1.8785558823046624 
3.040000000001991, -1.8783120573930414 
3.050000000002012, -1.8779124100783284 
3.060000000002033, -1.8773584056175898 
3.070000000002054, -1.8767055179981351 
3.0800000000020753, -1.8761468665563303 
3.0900000000020964, -1.8760005972907092 
3.1000000000021175, -1.8764244598404762 
3.1100000000021386, -1.8771959549755615 
3.1200000000021597, -1.8779521911586194 
3.130000000002181, -1.8784747519360827 
3.140000000002202, -1.8787065190408743 
3.150000000002223, -1.8786641973671632 
3.160000000002244, -1.8783794792189699 
3.1700000000022652, -1.8778791082010422 
3.1800000000022863, -1.877188619462671 
3.1900000000023074, -1.876352129580392 
3.2000000000023285, -1.8754621579102175 
3.2100000000023496, -1.874672542783981 
3.2200000000023707, -1.8741335556213632 
3.230000000002392, -1.873861854136818 
3.240000000002413, -1.8737242589000285 
3.250000000002434, -1.8735684107213024 
3.260000000002455, -1.8733034965860642 
3.2700000000024763, -1.8728816597907905 
3.2800000000024974, -1.8722671496289967 
3.2900000000025185, -1.8714561943660688 
3.3000000000025396, -1.8705868356123996 
3.3100000000025607, -1.8700660894937617 
3.3200000000025818, -1.8703519821918502 
3.330000000002603, -1.8713846826512603 
3.340000000002624, -1.8726111371460405 
3.350000000002645, -1.8735749128817016 
3.360000000002666, -1.8741343484088695 
3.3700000000026873, -1.8743247279148836 
3.3800000000027084, -1.8742230733368637 
3.3900000000027295, -1.8738962241356494 
3.4000000000027506, -1.8733965052466206 
3.4100000000027717, -1.8727762637992869 
3.420000000002793, -1.8721058983075107 
3.430000000002814, -1.8714809572082092 
3.440000000002835, -1.8709985989874827 
3.450000000002856, -1.8706956201816105 
3.460000000002877, -1.8705096045514 
3.4700000000028983, -1.870328837952415 
3.4800000000029194, -1.8700602836319464 
3.4900000000029405, -1.8696373103595838 
3.5000000000029616, -1.868993712781344 
3.5100000000029827, -1.8680593892908341 
3.520000000003004, -1.8668408787861481 
3.530000000003025, -1.8656395804871948 
3.540000000003046, -1.8651540290205884 
3.550000000003067, -1.865857970893059 
3.5600000000030882, -1.8673018252884996 
3.5700000000031094, -1.8686793477369599 
3.5800000000031305, -1.869590683836203 
3.5900000000031516, -1.8700225928710286 
3.6000000000031727, -1.8700878858394738 
3.6100000000031938, -1.8698946813247717 
3.620000000003215, -1.869522193994324 
3.630000000003236, -1.8690353180598251 
3.640000000003257, -1.8685035534632792 
3.650000000003278, -1.8680042809495503 
3.6600000000032993, -1.8676043125418684 
3.6700000000033204, -1.867330356692586 
3.6800000000033415, -1.867147866236678 
3.6900000000033626, -1.866976637325116 
3.7000000000033837, -1.866732186122568 
3.710000000003405, -1.8663421911731977 
3.720000000003426, -1.8657288642930752 
3.730000000003447, -1.864788374390843 
3.740000000003468, -1.8634149532764137 
3.750000000003489, -1.8616570200140352 
3.7600000000035103, -1.8600221069192628 
3.7700000000035314, -1.8594113614875236 
3.7800000000035525, -1.8601265644813303 
3.7900000000035736, -1.861422969896001 
3.8000000000035947, -1.862503782193152 
3.810000000003616, -1.8631120128541698 
3.820000000003637, -1.8633089348453151 
3.830000000003658, -1.8632151767329845 
3.840000000003679, -1.8629261737724214 
3.8500000000037002, -1.8625150155898467 
3.8600000000037213, -1.8620558959060962 
3.8700000000037424, -1.8616319858764405 
3.8800000000037635, -1.8613098674651352 
3.8900000000037847, -1.8611062881712281 
3.9000000000038058, -1.8609841739613593 
3.910000000003827, -1.860873453287495 
3.920000000003848, -1.8606981220928316 
3.930000000003869, -1.8603903227292562 
3.94000000000389, -1.8598808710668036 
3.9500000000039113, -1.8590786049077184 
3.9600000000039324, -1.857863857809417 
3.9700000000039535, -1.8561437465058197 
3.9800000000039746, -1.8540461993093758 
3.9900000000039957, -1.8521759433655762 
4.000000000004016, -1.8513512813987938 
4.010000000003993, -1.8516676305017548 
4.02000000000397, -1.8524191231717086 
4.030000000003946, -1.8530061956857078 
4.040000000003923, -1.8532631152956927 
4.0500000000039, -1.853235828904436 
4.0600000000038765, -1.8530029175069338 
4.070000000003853, -1.8526309315561236 
4.08000000000383, -1.8521903693261101 
4.090000000003807, -1.8517774942074479 
4.100000000003783, -1.8514936944557454 
4.11000000000376, -1.8513791593979358 
4.120000000003737, -1.851384791646297 
4.130000000003713, -1.8514174506146859 
4.14000000000369, -1.8513899759943562 
4.150000000003667, -1.8512371187916465 
4.1600000000036434, -1.8509072575789385 
4.17000000000362, -1.8503454463162263 
4.180000000003597, -1.8494814115015021 
4.1900000000035735, -1.8482388991276442 
4.20000000000355, -1.8465965682131091 
4.210000000003527, -1.8447291440187865 
4.220000000003504, -1.843119908811192 
4.23000000000348, -1.8422901733829131 
4.240000000003457, -1.8422391224051364 
4.250000000003434, -1.842500370149527 
4.26000000000341, -1.8426907151588956 
4.270000000003387, -1.8426855289067785 
4.280000000003364, -1.8424907160196557 
4.2900000000033405, -1.8421407807711105 
4.300000000003317, -1.841680972977829 
4.310000000003294, -1.8411973845663188 
4.320000000003271, -1.8408392366771764 
4.330000000003247, -1.8407486839618676 
4.340000000003224, -1.840927247829115 
4.350000000003201, -1.841231338125611 
4.360000000003177, -1.8414990102878632 
4.370000000003154, -1.8416282280518999 
4.380000000003131, -1.8415713691159834 
4.390000000003107, -1.8413057790994614 
4.400000000003084, -1.840812510895136 
4.410000000003061, -1.8400696595968973 
4.4200000000030375, -1.8390639167398901 
4.430000000003014, -1.8378293873817229 
4.440000000002991, -1.83651362118484 
4.450000000002968, -1.8354015312179777 
4.460000000002944, -1.8347528881458115 
4.470000000002921, -1.8345481427894117 
4.480000000002898, -1.8345339285734674 
4.490000000002874, -1.8344871471007558 
4.500000000002851, -1.834312281555054 
4.510000000002828, -1.833986165930731 
4.520000000002804, -1.8335078990368632 
4.530000000002781, -1.8329054382535088 
4.540000000002758, -1.8322982093596127 
4.5500000000027345, -1.8319455920286412 
4.560000000002711, -1.832100497139472 
4.570000000002688, -1.8327237865734578 
4.580000000002665, -1.8335052304196862 
4.590000000002641, -1.8341569749623088 
4.600000000002618, -1.8345500533243566 
4.610000000002595, -1.8346669595435752 
4.620000000002571, -1.834531313140155 
4.630000000002548, -1.834171536725225 
4.640000000002525, -1.8336122621689637 
4.6500000000025015, -1.8328830161717389 
4.660000000002478, -1.832039203567033 
4.670000000002455, -1.8311861652636936 
4.6800000000024315, -1.8304737507388709 
4.690000000002408, -1.8300156972542987 
4.700000000002385, -1.8297874379758077 
4.710000000002362, -1.8296520207245095 
4.720000000002338, -1.8294777113224996 
4.730000000002315, -1.829187533680201 
4.740000000002292, -1.8287348310196694 
4.750000000002268, -1.8280784757320994 
4.760000000002245, -1.8272076952776222 
4.770000000002222, -1.8262568584711034 
4.7800000000021985, -1.8256463065718809 
4.790000000002175, -1.82588514360821 
4.800000000002152, -1.8269682365075746 
4.810000000002129, -1.828323613522518 
4.820000000002105, -1.8294301457271227 
4.830000000002082, -1.8301074821885255 
4.840000000002059, -1.8303871291418883 
4.850000000002035, -1.830356920914587 
4.860000000002012, -1.83009572782404 
4.870000000001989, -1.8296643485292332 
4.880000000001965, -1.8291181221717392 
4.890000000001942, -1.8285225270388676 
4.900000000001919, -1.8279577139262055 
4.9100000000018955, -1.827502111502307 
4.920000000001872, -1.8271939122582688 
4.930000000001849, -1.8269979919207764 
4.940000000001826, -1.8268260147064659 
