t, s[1].omega / s[0].omega 
0, -1.6299971169533336 
0.009999999999999995, -1.629558112118659 
0.019999999999999934, -1.6288198116937245 
0.029999999999999874, -1.6277846053248257 
0.04000000000000012, -1.6264755169987317 
0.050000000000000405, -1.6249702792189797 
0.06000000000000069, -1.623445488878454 
0.07000000000000098, -1.6221759316423032 
0.08000000000000126, -1.6213955452935327 
0.09000000000000155, -1.6210962909688795 
0.10000000000000184, -1.621045486146367 
0.11000000000000212, -1.6209980199868261 
0.12000000000000241, -1.620807230159969 
0.130000000000002, -1.6203867189673544 
0.1400000000000009, -1.6196389339671282 
0.1499999999999998, -1.6184107303684154 
0.1599999999999987, -1.616524541292901 
0.1699999999999976, -1.6140360181980107 
0.1799999999999965, -1.611853703658377 
0.1899999999999954, -1.6119267903446854 
0.1999999999999943, -1.6153678052037534 
0.2099999999999932, -1.6206652608360124 
0.2199999999999921, -1.625505470281491 
0.229999999999991, -1.6288633773545342 
0.2399999999999899, -1.6308246918160747 
0.2499999999999888, -1.6317983980007356 
0.2599999999999877, -1.6321401683734753 
0.2699999999999866, -1.632084046418043 
0.2799999999999855, -1.631775301754065 
0.2899999999999844, -1.631320030212973 
0.2999999999999833, -1.6308244402519043 
0.3099999999999822, -1.6304006833254843 
0.3199999999999811, -1.6301304796813187 
0.32999999999998, -1.6300290705319704 
0.3399999999999789, -1.6300504455774774 
0.3499999999999778, -1.6301129150198264 
0.35999999999997667, -1.630122777534297 
0.36999999999997557, -1.6299919541059524 
0.37999999999997447, -1.6296376796664127 
0.38999999999997337, -1.6289635783610916 
0.39999999999997227, -1.6278359108646459 
0.40999999999997117, -1.626070366401613 
0.41999999999997006, -1.6234537498589823 
0.42999999999996896, -1.6198554397104907 
0.43999999999996786, -1.6155012387571603 
0.44999999999996676, -1.6112955771258086 
0.45999999999996566, -1.6085461096960951 
0.46999999999996456, -1.6077697033578673 
0.47999999999996346, -1.60820990792913 
0.48999999999996235, -1.6088772825044486 
0.49999999999996125, -1.6093014738589708 
0.5099999999999602, -1.6094039314779682 
0.519999999999959, -1.60922302234898 
0.529999999999958, -1.6087946604421997 
0.5399999999999568, -1.6081465153598091 
0.5499999999999557, -1.6073698186192558 
0.5599999999999546, -1.6067539113972127 
0.5699999999999535, -1.6068192038001563 
0.5799999999999524, -1.6079540504288405 
0.5899999999999513, -1.6099475674402721 
0.5999999999999502, -1.6121673947285327 
0.6099999999999491, -1.614092654092639 
0.619999999999948, -1.6155058532679103 
0.6299999999999469, -1.6163926230892571 
0.6399999999999458, -1.616818584813661 
0.6499999999999447, -1.6168637689499132 
0.6599999999999436, -1.6165986365715395 
0.6699999999999425, -1.6160813257865825 
0.6799999999999414, -1.6153664977451911 
0.6899999999999403, -1.6145200465228278 
0.6999999999999392, -1.6136323248589608 
0.7099999999999381, -1.612820819773925 
0.719999999999937, -1.6122061969624202 
0.7299999999999359, -1.6118474284203028 
0.7399999999999348, -1.611686629943198 
0.7499999999999337, -1.6115852530172148 
0.7599999999999326, -1.6114063718933447 
0.7699999999999315, -1.611041208333334 
0.7799999999999304, -1.6103736367881964 
0.7899999999999293, -1.6092224995854874 
0.7999999999999282, -1.6072878231087753 
0.8099999999999271, -1.6041606139172753 
0.819999999999926, -1.5995974174034604 
0.8299999999999249, -1.5943286076677206 
0.8399999999999238, -1.590704962393438 
0.8499999999999227, -1.5908929172321635 
0.8599999999999216, -1.5940286789667986 
0.8699999999999205, -1.5975675632062536 
0.8799999999999194, -1.600104883381173 
0.8899999999999183, -1.601537058062495 
0.8999999999999172, -1.6021802787468555 
0.9099999999999161, -1.6023233213004324 
0.919999999999915, -1.6021487488203328 
0.9299999999999139, -1.6017698959030575 
0.9399999999999128, -1.6012901128941757 
0.9499999999999117, -1.6008544792089576 
0.9599999999999106, -1.6006429525871972 
0.9699999999999095, -1.6007681572045893 
0.9799999999999084, -1.6011827843247144 
0.9899999999999073, -1.6017270452911716 
0.9999999999999062, -1.6022393529794197 
1.0099999999999052, -1.6026082823286933 
1.019999999999904, -1.602768354796361 
1.029999999999903, -1.6026802398961582 
1.039999999999902, -1.602313425269632 
1.0499999999999008, -1.6016362609076946 
1.0599999999998997, -1.6006147801092072 
1.0699999999998986, -1.5992226609586724 
1.0799999999998975, -1.597469478889605 
1.0899999999998964, -1.5954568904263575 
1.0999999999998953, -1.5934471496483256 
1.1099999999998942, -1.5918413355775098 
1.119999999999893, -1.590939155249336 
1.129999999999892, -1.5906717580683265 
1.1399999999998909, -1.590701427774467 
1.1499999999998898, -1.5907277027333562 
1.1599999999998887, -1.590599098918721 
1.1699999999998876, -1.5902469706915705 
1.1799999999998865, -1.58960464527842 
1.1899999999998854, -1.5885697402045198 
1.1999999999998843, -1.587042043054895 
1.2099999999998832, -1.5851426030525109 
1.219999999999882, -1.5836734998214674 
1.229999999999881, -1.5841806126014566 
1.2399999999998799, -1.5875122774978627 
1.2499999999998788, -1.5924861056440214 
1.2599999999998777, -1.5971826686965473 
1.2699999999998766, -1.6006126355727068 
1.2799999999998755, -1.6027363536384218 
1.2899999999998744, -1.6038705415347656 
1.2999999999998733, -1.6043379338765669 
1.3099999999998722, -1.6043708113958501 
1.319999999999871, -1.6041197496030015 
1.32999999999987, -1.6036900479695446 
1.3399999999998689, -1.6031777844016446 
1.3499999999998678, -1.602686222071362 
1.3599999999998666, -1.6023074174310252 
1.3699999999998655, -1.602087562012097 
1.3799999999998644, -1.6020145330351927 
1.3899999999998633, -1.6020287986465704 
1.3999999999998622, -1.6020425597627075 
1.4099999999998611, -1.6019632927200143 
1.41999999999986, -1.6017055848083945 
1.429999999999859, -1.601179907251846 
1.4399999999998578, -1.600268448524244 
1.4499999999998567, -1.5988038736252952 
1.4599999999998556, -1.5965692399968359 
1.4699999999998545, -1.5933574811720497 
1.4799999999998534, -1.5891624503710209 
1.4899999999998523, -1.584523665608004 
1.4999999999998512, -1.5806692634606085 
1.5099999999998501, -1.5787353025723887 
1.519999999999849, -1.5786185449379606 
1.529999999999848, -1.5792865438670907 
1.5399999999998468, -1.5799244194472275 
1.5499999999998457, -1.580254374086651 
1.5599999999998446, -1.5802696514032983 
1.5699999999998435, -1.580016712861378 
1.5799999999998424, -1.5795258641754073 
1.5899999999998413, -1.578829036793944 
1.5999999999998402, -1.5780477808437943 
1.6099999999998391, -1.5775258323347006 
1.619999999999838, -1.577802924398797 
1.629999999999837, -1.5791890705714056 
1.6399999999998358, -1.58137278178691 
1.6499999999998347, -1.5837001061563383 
1.6599999999998336, -1.5856794455364853 
1.6699999999998325, -1.587120096291589 
1.6799999999998314, -1.5880218355878846 
1.6899999999998303, -1.5884580149173424 
1.6999999999998292, -1.5885142571812803 
1.709999999999828, -1.5882658807201016 
1.719999999999827, -1.5877755346231255 
1.729999999999826, -1.5871019920800626 
1.7399999999998248, -1.5863137070088422 
1.7499999999998237, -1.5854986834816553 
1.7599999999998226, -1.5847625747748888 
1.7699999999998215, -1.5842063966675242 
1.7799999999998204, -1.5838767308354902 
1.7899999999998193, -1.583723355912052 
1.7999999999998182, -1.5836250985399896 
1.809999999999817, -1.5834559807823572 
1.819999999999816, -1.5831111018124695 
1.8299999999998149, -1.5824792107690944 
1.8399999999998138, -1.581392329599143 
1.8499999999998127, -1.5795742486803905 
1.8599999999998116, -1.5766267603091317 
1.8699999999998105, -1.5721882541652161 
1.8799999999998094, -1.5665100152020595 
1.8899999999998083, -1.561259666467358 
1.8999999999998072, -1.5588991065979294 
1.909999999999806, -1.559998003018458 
1.919999999999805, -1.5626597299933107 
1.9299999999998039, -1.565039272262662 
1.9399999999998028, -1.5665481216217845 
1.9499999999998017, -1.5672992689638965 
1.9599999999998006, -1.5675322017806772 
1.9699999999997995, -1.56742403869241 
1.9799999999997984, -1.5670833144973586 
1.9899999999997973, -1.5665958945619274 
1.9999999999997962, -1.5660870223093526 
2.0099999999998173, -1.5657610715080963 
2.0199999999998384, -1.565835105540997 
2.0299999999998595, -1.5663707014790478 
2.0399999999998806, -1.5672112538104326 
2.0499999999999017, -1.5681144176568413 
2.059999999999923, -1.5688920543566631 
2.069999999999944, -1.5694426000217683 
2.079999999999965, -1.5697245615176296 
2.089999999999986, -1.569726138429036 
2.100000000000007, -1.5694463341362022 
2.1100000000000283, -1.5688867672268418 
2.1200000000000494, -1.568051787213753 
2.1300000000000705, -1.5669568002049594 
2.1400000000000916, -1.5656467876923306 
2.1500000000001127, -1.564224951864802 
2.160000000000134, -1.56287556111549 
2.170000000000155, -1.5618286816356182 
2.180000000000176, -1.561225690417353 
2.190000000000197, -1.5609998556560976 
2.2000000000002182, -1.5609416506370768 
2.2100000000002393, -1.5608561146981907 
2.2200000000002604, -1.5606220058518514 
2.2300000000002815, -1.5601524250001464 
2.2400000000003026, -1.5593344499330877 
2.2500000000003237, -1.5579828101677102 
2.260000000000345, -1.555842325912318 
2.270000000000366, -1.5527672194009043 
2.280000000000387, -1.549287286327103 
2.290000000000408, -1.5472097761024834 
2.3000000000004293, -1.5485458483925194 
2.3100000000004504, -1.5529393965994631 
2.3200000000004715, -1.5579730980411859 
2.3300000000004926, -1.5618722295949683 
2.3400000000005137, -1.5643000439537156 
2.3500000000005348, -1.5655901596626631 
2.360000000000556, -1.5661388234359428 
2.370000000000577, -1.5662255591391594 
2.380000000000598, -1.5660203973133107 
2.390000000000619, -1.5656340854108028 
2.4000000000006403, -1.5651696089555374 
2.4100000000006614, -1.5647546612166834 
2.4200000000006825, -1.5645218768101117 
2.4300000000007036, -1.5645375711792595 
2.4400000000007247, -1.5647606925887667 
2.450000000000746, -1.5650826090521375 
2.460000000000767, -1.5653880582881403 
2.470000000000788, -1.5655844458466597 
2.480000000000809, -1.5656044160528453 
2.49000000000083, -1.5653963381607725 
2.5000000000008513, -1.564911941540526 
2.5100000000008724, -1.5640981544837893 
2.5200000000008935, -1.5628974625381307 
2.5300000000009146, -1.56126114752227 
2.5400000000009357, -1.559184793666444 
2.550000000000957, -1.5567780675584637 
2.560000000000978, -1.5543497333509317 
2.570000000000999, -1.5523854688244718 
2.58000000000102, -1.5512647144802956 
2.5900000000010412, -1.550932362240007 
2.6000000000010624, -1.5509972889058588 
2.6100000000010835, -1.5510982125779507 
2.6200000000011046, -1.5510547880449501 
2.6300000000011257, -1.550799945384234 
2.6400000000011468, -1.5502875287863962 
2.650000000001168, -1.5494451934452456 
2.660000000001189, -1.5481855261234174 
2.67000000000121, -1.546536461591417 
2.680000000001231, -1.544978208368693 
2.6900000000012523, -1.5447185640934202 
2.7000000000012734, -1.5469563385563025 
2.7100000000012945, -1.551369107006082 
2.7200000000013156, -1.5562815469443867 
2.7300000000013367, -1.5603163153202104 
2.740000000001358, -1.5630608219833975 
2.750000000001379, -1.5646833299039125 
2.7600000000014, -1.5654965655301476 
2.770000000001421, -1.5657673389059164 
2.780000000001442, -1.5656801812233532 
2.7900000000014633, -1.5653576131607188 
2.8000000000014844, -1.5648941554563514 
2.8100000000015055, -1.5643852610806066 
2.8200000000015266, -1.5639324706934328 
2.8300000000015477, -1.5636163558751472 
2.840000000001569, -1.5634647834848967 
2.85000000000159, -1.5634488467961791 
2.860000000001611, -1.563499123343264 
2.870000000001632, -1.5635273158233913 
2.8800000000016532, -1.5634468998855637 
2.8900000000016743, -1.5631794041212606 
2.9000000000016954, -1.5626424166549868 
2.9100000000017165, -1.5617307566966305 
2.9200000000017377, -1.560304071761681 
2.9300000000017588, -1.5581947214044198 
2.94000000000178, -1.5552615303371904 
2.950000000001801, -1.551531755912793 
2.960000000001822, -1.5474350095553517 
2.970000000001843, -1.5439010308772194 
2.9800000000018643, -1.5418561345469433 
2.9900000000018854, -1.5413773550547547 
3.0000000000019065, -1.5417332306010834 
3.0100000000019276, -1.542204870817655 
3.0200000000019487, -1.5424710535551547 
3.03000000000197, -1.5424708052512854 
3.040000000001991, -1.5422174965880693 
3.050000000002012, -1.541717495908546 
3.060000000002033, -1.5409671177748858 
3.070000000002054, -1.540021199669493 
3.0800000000020753, -1.53915318627635 
3.0900000000020964, -1.5389885162861927 
3.1000000000021175, -1.5402098252660408 
3.1100000000021386, -1.5428348561163368 
3.1200000000021597, -1.5460863077137441 
3.130000000002181, -1.5490983538691274 
3.140000000002202, -1.5514209368045373 
3.150000000002223, -1.5529817215170723 
3.160000000002244, -1.5538851806609282 
3.1700000000022652, -1.5542772363255986 
3.1800000000022863, -1.5542881221547376 
3.1900000000023074, -1.5540190722014073 
3.2000000000023285, -1.553549950440461 
3.2100000000023496, -1.5529554105404162 
3.2200000000023707, -1.5523179661666515 
3.230000000002392, -1.5517261606412527 
3.240000000002413, -1.5512572011893453 
3.250000000002434, -1.5509542626128865 
3.260000000002455, -1.5508053323929443 
3.2700000000024763, -1.550739587401205 
3.2800000000024974, -1.5506559815516805 
3.2900000000025185, -1.5504564881420315 
3.3000000000025396, -1.550049016558031 
3.3100000000025607, -1.5493223278334143 
3.3200000000025818, -1.5481119560631909 
3.330000000002603, -1.546174214002153 
3.340000000002624, -1.5432004771402845 
3.350000000002645, -1.5389501553794276 
3.360000000002666, -1.5336091030056207 
3.3700000000026873, -1.5282490797973811 
3.3800000000027084, -1.5245869273448163 
3.3900000000027295, -1.5235055313629466 
3.4000000000027506, -1.5241986261781695 
3.4100000000027717, -1.525334930423154 
3.420000000002793, -1.5261916967924243 
3.430000000002814, -1.5266239213455655 
3.440000000002835, -1.5266968195167165 
3.450000000002856, -1.5264907894333775 
3.460000000002877, -1.5260560600944064 
3.4700000000028983, -1.5254361072470373 
3.4800000000029194, -1.5247394596228985 
3.4900000000029405, -1.5242398222116489 
3.5000000000029616, -1.5243692643535105 
3.5100000000029827, -1.52542922041519 
3.520000000003004, -1.5272617628312233 
3.530000000003025, -1.5293664202305253 
3.540000000003046, -1.5312841367544685 
3.550000000003067, -1.5327786269229293 
3.5600000000030882, -1.5337937327125726 
3.5700000000031094, -1.5343632757047794 
3.5800000000031305, -1.53455141561579 
3.5900000000031516, -1.5344245030961345 
3.6000000000031727, -1.534041894813916 
3.6100000000031938, -1.533458260910561 
3.620000000003215, -1.53273297625135 
3.630000000003236, -1.5319403300821097 
3.640000000003257, -1.5311722183410574 
3.650000000003278, -1.5305270473060244 
3.6600000000032993, -1.5300795518022625 
3.6700000000033204, -1.529837357572239 
3.6800000000033415, -1.5297254924761616 
3.6900000000033626, -1.5296268093442382 
3.7000000000033837, -1.529431420622037 
3.710000000003405, -1.5290438707745824 
3.720000000003426, -1.5283534050063292 
3.730000000003447, -1.5271913709250529 
3.740000000003468, -1.5252922618169291 
3.750000000003489, -1.5222924318559377 
3.7600000000035103, -1.5178666673757255 
3.7700000000035314, -1.512162887132786 
3.7800000000035525, -1.506416578973943 
3.7900000000035736, -1.5027028648285587 
3.8000000000035947, -1.5020698823330583 
3.810000000003616, -1.503464621841944 
3.820000000003637, -1.5052350010716276 
3.830000000003658, -1.506536324429645 
3.840000000003679, -1.5072486945201038 
3.8500000000037002, -1.5074991789582524 
3.8600000000037213, -1.5074205021365774 
3.8700000000037424, -1.5070981820125804 
3.8800000000037635, -1.5065907019397067 
3.8900000000037847, -1.5059843685211753 
3.9000000000038058, -1.5054692112393913 
3.910000000003827, -1.5053611978394514 
3.920000000003848, -1.5059416388801996 
3.930000000003869, -1.5071988069087507 
3.94000000000389, -1.5088139288677334 
3.9500000000039113, -1.5104105700438926 
3.9600000000039324, -1.511742510199887 
3.9700000000039535, -1.5127084906033188 
3.9800000000039746, -1.5132964292157909 
3.9900000000039957, -1.5135346335349475 
4.000000000004016, -1.5134645743654642 
4.010000000003993, -1.5131290694685051 
4.02000000000397, -1.5125702740449485 
4.030000000003946, -1.5118349240330682 
4.040000000003923, -1.510983992811992 
4.0500000000039, -1.5101009282887083 
4.0600000000038765, -1.509290465717957 
4.070000000003853, -1.5086578360593181 
4.08000000000383, -1.5082617684477035 
4.090000000003807, -1.5080702709782812 
4.100000000003783, -1.5079746184523048 
4.11000000000376, -1.5078503496201496 
4.120000000003737, -1.507594208100971 
4.130000000003713, -1.5071115519704215 
4.14000000000369, -1.5062776908101974 
4.150000000003667, -1.5048940297705864 
4.1600000000036434, -1.5026556729402987 
4.17000000000362, -1.499182546407575 
4.180000000003597, -1.4942467378655024 
4.1900000000035735, -1.4883251378242488 
4.20000000000355, -1.4830786005662941 
4.210000000003527, -1.4804952243527714 
4.220000000003504, -1.4808845048333825 
4.23000000000348, -1.482733851469764 
4.240000000003457, -1.4845538886624836 
4.250000000003434, -1.4857740478563328 
4.26000000000341, -1.48640115973968 
4.270000000003387, -1.4865893003624255 
4.280000000003364, -1.486467453059168 
4.2900000000033405, -1.486114960173659 
4.300000000003317, -1.485590197416901 
4.310000000003294, -1.4849881777415885 
4.320000000003271, -1.4845123225476695 
4.330000000003247, -1.4844793852821994 
4.340000000003224, -1.485144812117644 
4.350000000003201, -1.4864656279452269 
4.360000000003177, -1.4881164797326938 
4.370000000003154, -1.489732906999977 
4.380000000003131, -1.4910797110191105 
4.390000000003107, -1.492060090488551 
4.400000000003084, -1.4926628778452797 
4.410000000003061, -1.492916732152356 
4.4200000000030375, -1.492864070493074 
4.430000000003014, -1.492549292268101 
4.440000000002991, -1.4920163487874505 
4.450000000002968, -1.4913133386734811 
4.460000000002944, -1.4905012191631786 
4.470000000002921, -1.4896606214303356 
4.480000000002898, -1.4888893067745947 
4.490000000002874, -1.488283150560104 
4.500000000002851, -1.4878967524140965 
4.510000000002828, -1.4877050769294689 
4.520000000002804, -1.4876113701972105 
4.530000000002781, -1.4874986252025644 
4.540000000002758, -1.4872661285349342 
4.5500000000027345, -1.486822727962535 
4.560000000002711, -1.486054113450715 
4.570000000002688, -1.4847841893333038 
4.580000000002665, -1.4827450000421047 
4.590000000002641, -1.4795913361631015 
4.600000000002618, -1.4750524357367834 
4.610000000002595, -1.4693372723801956 
4.620000000002571, -1.4636280114932578 
4.630000000002548, -1.4597851565588147 
4.640000000002525, -1.4587707666304959 
4.6500000000025015, -1.459741665065383 
4.660000000002478, -1.461235629398288 
4.670000000002455, -1.462412836321657 
4.6800000000024315, -1.4630880599468898 
4.690000000002408, -1.4633388807526175 
4.700000000002385, -1.4632730703779289 
4.710000000002362, -1.4629626679307821 
4.720000000002338, -1.4624510484642241 
4.730000000002315, -1.4617969462248372 
4.740000000002292, -1.4611539018343156 
4.750000000002268, -1.4608433532868672 
4.760000000002245, -1.4612732857041497 
4.770000000002222, -1.4626298095283312 
4.7800000000021985, -1.4646647284483845 
4.790000000002175, -1.4668859584652967 
4.800000000002152, -1.468880725144699 
4.810000000002129, -1.4704400957117545 
4.820000000002105, -1.4715150941036912 
4.830000000002082, -1.472140538180592 
4.840000000002059, -1.4723826888883824 
4.850000000002035, -1.4723121525121572 
4.860000000002012, -1.471993418803877 
4.870000000001989, -1.4714855093979977 
4.880000000001965, -1.470849735413373 
4.890000000001942, -1.470158085576568 
4.900000000001919, -1.4694933539635744 
4.9100000000018955, -1.4689366138138986 
4.920000000001872, -1.4685453341817793 
4.930000000001849, -1.4683285426886457 
4.940000000001826, -1.468235161353587 
