t, s[1].omega / s[0].omega 
0, -0.7599976680231076 
0.009999999999999995, -0.759740361620892 
0.019999999999999934, -0.7594343803669907 
0.029999999999999874, -0.7590780630227743 
0.04000000000000012, -0.7586717058099872 
0.050000000000000405, -0.7582200855944066 
0.06000000000000069, -0.7577338129284272 
0.07000000000000098, -0.7572297905049611 
0.08000000000000126, -0.7567316284951124 
0.09000000000000155, -0.7562704926580134 
0.10000000000000184, -0.7558860852442169 
0.11000000000000212, -0.7556268627394099 
0.12000000000000241, -0.7555484831080743 
0.130000000000002, -0.7557099256836772 
0.1400000000000009, -0.7561675546373464 
0.1499999999999998, -0.7569681048629714 
0.1599999999999987, -0.7581415965726184 
0.1699999999999976, -0.7596944296019038 
0.1799999999999965, -0.761602072325984 
0.1899999999999954, -0.7638011578893891 
0.1999999999999943, -0.7661835388320715 
0.2099999999999932, -0.7685991701981882 
0.2199999999999921, -0.7708760380041565 
0.229999999999991, -0.7728573320633118 
0.2399999999999899, -0.7744404478508988 
0.2499999999999888, -0.7755953103338707 
0.2599999999999877, -0.7763531649299982 
0.2699999999999866, -0.7767779462568535 
0.2799999999999855, -0.7769388005038211 
0.2899999999999844, -0.7768935549020075 
0.2999999999999833, -0.7766827845009544 
0.3099999999999822, -0.7763302576551464 
0.3199999999999811, -0.7758464315495546 
0.32999999999998, -0.7752339524608528 
0.3399999999999789, -0.7744961804367654 
0.3499999999999778, -0.7736511625032172 
0.35999999999997667, -0.7727534557829616 
0.36999999999997557, -0.7719225798668437 
0.37999999999997447, -0.771366481620728 
0.38999999999997337, -0.7713719302131264 
0.39999999999997227, -0.7722269666975617 
0.40999999999997117, -0.7740765421170646 
0.41999999999997006, -0.7767961542822256 
0.42999999999996896, -0.780006401232498 
0.43999999999996786, -0.7832408252546984 
0.44999999999996676, -0.786130941203006 
0.45999999999996566, -0.7884863901537266 
0.46999999999996456, -0.7902717915179569 
0.47999999999996346, -0.7915436704182424 
0.48999999999996235, -0.7923937650226742 
0.49999999999996125, -0.7929134953050376 
0.5099999999999602, -0.793177088584098 
0.519999999999959, -0.7932360198823855 
0.529999999999958, -0.7931183197195358 
0.5399999999999568, -0.7928285970980024 
0.5499999999999557, -0.7923465568278999 
0.5599999999999546, -0.791623218848881 
0.5699999999999535, -0.7905756876669214 
0.5799999999999524, -0.7890842992150682 
0.5899999999999513, -0.7870009391167152 
0.5999999999999502, -0.784181695333887 
0.6099999999999491, -0.7805513280507517 
0.619999999999948, -0.7761806387106838 
0.6299999999999469, -0.771324115944401 
0.6399999999999458, -0.7663715711169293 
0.6499999999999447, -0.7617312058019055 
0.6599999999999436, -0.7577160239630436 
0.6699999999999425, -0.7544893856661886 
0.6799999999999414, -0.7520721074023226 
0.6899999999999403, -0.7503829269399452 
0.6999999999999392, -0.7492856565525513 
0.7099999999999381, -0.7486286248776695 
0.719999999999937, -0.7482713241631853 
0.7299999999999359, -0.7480981602549664 
0.7399999999999348, -0.7480218298120509 
0.7499999999999337, -0.7479800380293156 
0.7599999999999326, -0.7479292178887468 
0.7699999999999315, -0.7478380476225576 
0.7799999999999304, -0.7476825286785121 
0.7899999999999293, -0.7474435705350599 
0.7999999999999282, -0.7471073304725862 
0.8099999999999271, -0.7466675993164468 
0.819999999999926, -0.7461282994455363 
0.8299999999999249, -0.7455036039745369 
0.8399999999999238, -0.7448144944140969 
0.8499999999999227, -0.7440832702647202 
0.8599999999999216, -0.7433291518550023 
0.8699999999999205, -0.7425670843352868 
0.8799999999999194, -0.7418094443160413 
0.8899999999999183, -0.7410688885330424 
0.8999999999999172, -0.7403607861439223 
0.9099999999999161, -0.7397046013217018 
0.919999999999915, -0.7391242035651319 
0.9299999999999139, -0.7386471733598285 
0.9399999999999128, -0.7383031093422427 
0.9499999999999117, -0.7381210660621248 
0.9599999999999106, -0.7381265697996809 
0.9699999999999095, -0.7383389237916531 
0.9799999999999084, -0.7387694478118376 
0.9899999999999073, -0.7394208250260231 
0.9999999999999062, -0.7402870430885031 
1.0099999999999052, -0.7413528632050015 
1.019999999999904, -0.7425917019241269 
1.029999999999903, -0.7439616362289614 
1.039999999999902, -0.7454011836863311 
1.0499999999999008, -0.7468290057399176 
1.0599999999998997, -0.7481524252554757 
1.0699999999998986, -0.7492855423118304 
1.0799999999998975, -0.7501696385441877 
1.0899999999998964, -0.7507842454428488 
1.0999999999998953, -0.751143139769277 
1.1099999999998942, -0.7512801252983238 
1.119999999999893, -0.7512340030582498 
1.129999999999892, -0.7510387803901423 
1.1399999999998909, -0.7507200700409595 
1.1499999999998898, -0.7502962350205898 
1.1599999999998887, -0.7497831042190818 
1.1699999999998876, -0.7492023940156101 
1.1799999999998865, -0.7485950975972303 
1.1899999999998854, -0.7480410785253918 
1.1999999999998843, -0.747683443032219 
1.2099999999998832, -0.7477488779070087 
1.219999999999882, -0.7485425076654666 
1.229999999999881, -0.7503852657149235 
1.2399999999998799, -0.7534757361655406 
1.2499999999998788, -0.7577224809307846 
1.2599999999998777, -0.7626773398888316 
1.2699999999998766, -0.7676800604895901 
1.2799999999998755, -0.7721389760330628 
1.2899999999998744, -0.7757304050464674 
1.2999999999998733, -0.7784055974320545 
1.3099999999998722, -0.7802810785100445 
1.319999999999871, -0.7815276231023073 
1.32999999999987, -0.7823055554557202 
1.3399999999998689, -0.7827402844617073 
1.3499999999998678, -0.7829190685437866 
1.3599999999998666, -0.7828952271642158 
1.3699999999998655, -0.7826928014373977 
1.3799999999998644, -0.7823087501816359 
1.3899999999998633, -0.7817116800745225 
1.3999999999998622, -0.7808371983710439 
1.4099999999998611, -0.7795816309314125 
1.41999999999986, -0.7777995379542177 
1.429999999999859, -0.7753167833924692 
1.4399999999998578, -0.7719757627726483 
1.4499999999998567, -0.7677193343846673 
1.4599999999998556, -0.7626823280109637 
1.4699999999998545, -0.7572187780044304 
1.4799999999998534, -0.7518151869842222 
1.4899999999998523, -0.7469324319564935 
1.4999999999998512, -0.742877094722614 
1.5099999999998501, -0.7397615535725812 
1.519999999999849, -0.7375383906025619 
1.529999999999848, -0.7360643994554702 
1.5399999999998468, -0.7351604657273767 
1.5499999999998457, -0.7346532967556356 
1.5599999999998446, -0.734397643111534 
1.5699999999998435, -0.7342831745739511 
1.5799999999998424, -0.734231688257362 
1.5899999999998413, -0.7341897930030152 
1.5999999999998402, -0.7341207631988842 
1.6099999999998391, -0.7339977416252282 
1.619999999999838, -0.733799398819297 
1.629999999999837, -0.7335085319171174 
1.6399999999998358, -0.7331134914284986 
1.6499999999998347, -0.7326113026840827 
1.6599999999998336, -0.7320101154673406 
1.6699999999998325, -0.7313284330818158 
1.6799999999998314, -0.7305905227099712 
1.6899999999998303, -0.7298203322619756 
1.6999999999998292, -0.7290373375911794 
1.709999999999828, -0.7282560264275391 
1.719999999999827, -0.7274881750050496 
1.729999999999826, -0.7267459359679307 
1.7399999999998248, -0.7260442686758135 
1.7499999999998237, -0.7254022380414746 
1.7599999999998226, -0.7248432538063828 
1.7699999999998215, -0.7243943614876567 
1.7799999999998204, -0.7240846271230286 
1.7899999999998193, -0.7239427689034842 
1.7999999999998182, -0.7239944568637279 
1.809999999999817, -0.724259893432863 
1.819999999999816, -0.7247521722629819 
1.8299999999998149, -0.7254764434469652 
1.8399999999998138, -0.7264292707024347 
1.8499999999998127, -0.7275970782664298 
1.8599999999998116, -0.7289526578027095 
1.8699999999998105, -0.7304498048976693 
1.8799999999998094, -0.7320185383612171 
1.8899999999998083, -0.7335661087454336 
1.8999999999998072, -0.7349890379729228 
1.909999999999806, -0.7361954241490773 
1.919999999999805, -0.7371272955131639 
1.9299999999998039, -0.737769958521205 
1.9399999999998028, -0.7381443073485228 
1.9499999999998017, -0.738289710976989 
1.9599999999998006, -0.7382479664497106 
1.9699999999997995, -0.7380537054385925 
1.9799999999997984, -0.7377311903431488 
1.9899999999997973, -0.7372954670495805 
1.9999999999997962, -0.7367564971445729 
2.0099999999998173, -0.7361263698063066 
2.0199999999998384, -0.7354309347864029 
2.0299999999998595, -0.7347274265748949 
2.0399999999998806, -0.734127445558847 
2.0499999999999017, -0.7338177271496473 
2.059999999999923, -0.734058528759651 
2.069999999999944, -0.7351288446568277 
2.079999999999965, -0.7372033495677154 
2.089999999999986, -0.7402115130931751 
2.100000000000007, -0.7438002108578157 
2.1100000000000283, -0.747472006435971 
2.1200000000000494, -0.750799356909921 
2.1300000000000705, -0.7535473340568222 
2.1400000000000916, -0.7556626569581194 
2.1500000000001127, -0.7572017102295273 
2.160000000000134, -0.7582642270801685 
2.170000000000155, -0.7589527428102593 
2.180000000000176, -0.7593535237598925 
2.190000000000197, -0.7595301871647655 
2.2000000000002182, -0.7595231311519213 
2.2100000000002393, -0.7593504844403054 
2.2200000000002604, -0.759008244101856 
2.2300000000002815, -0.7584686064757078 
2.2400000000003026, -0.7576767207671604 
2.2500000000003237, -0.7565480079436514 
2.260000000000345, -0.7549714705736225 
2.270000000000366, -0.7528281255555365 
2.280000000000387, -0.7500325478744008 
2.290000000000408, -0.7465910087215335 
2.3000000000004293, -0.7426442801838494 
2.3100000000004504, -0.7384553807634575 
2.3200000000004715, -0.7343379079002397 
2.3300000000004926, -0.7305683492961272 
2.3400000000005137, -0.7273305762979081 
2.3500000000005348, -0.7247056095917641 
2.360000000000556, -0.7226904748478484 
2.370000000000577, -0.7212260623633377 
2.380000000000598, -0.720222775265471 
2.390000000000619, -0.7195804978477115 
2.4000000000006403, -0.7192026305443033 
2.4100000000006614, -0.7190046340386117 
2.4200000000006825, -0.718917758658835 
2.4300000000007036, -0.718889040746949 
2.4400000000007247, -0.718879013312056 
2.450000000000746, -0.7188586416745886 
2.460000000000767, -0.7188067341385482 
2.470000000000788, -0.7187085744293136 
2.480000000000809, -0.7185557989611331 
2.49000000000083, -0.718346681533222 
2.5000000000008513, -0.7180854460296485 
2.5100000000008724, -0.7177797192859704 
2.5200000000008935, -0.7174368067506836 
2.5300000000009146, -0.7170608411545631 
2.5400000000009357, -0.7166525424271853 
2.550000000000957, -0.716211509548677 
2.560000000000978, -0.7157393902794841 
2.570000000000999, -0.7152422826183849 
2.58000000000102, -0.7147319255658537 
2.5900000000010412, -0.7142262927279466 
2.6000000000010624, -0.7137503493296761 
2.6100000000010835, -0.7133372073838335 
2.6200000000011046, -0.7130292845852967 
2.6300000000011257, -0.7128786954780398 
2.6400000000011468, -0.7129460870999993 
2.650000000001168, -0.7132974351296588 
2.660000000001189, -0.713998739379597 
2.67000000000121, -0.7151087509021135 
2.680000000001231, -0.7166695623241173 
2.6900000000012523, -0.718694338855039 
2.7000000000012734, -0.7211517607281531 
2.7100000000012945, -0.7239496627938118 
2.7200000000013156, -0.7269266470610207 
2.7300000000013367, -0.7298660003570636 
2.740000000001358, -0.7325404753460815 
2.750000000001379, -0.734773856910038 
2.7600000000014, -0.7364843278552466 
2.770000000001421, -0.7376844507806755 
2.780000000001442, -0.7384464345294641 
2.7900000000014633, -0.738860958374846 
2.8000000000014844, -0.7390092556104085 
2.8100000000015055, -0.7389511305197323 
2.8200000000015266, -0.7387229373080818 
2.8300000000015477, -0.7383393668485166 
2.840000000001569, -0.7377955332432841 
2.85000000000159, -0.7370681518961761 
2.860000000001611, -0.7361160553085747 
2.870000000001632, -0.7348813139082024 
2.8800000000016532, -0.7332931486350647 
2.8900000000016743, -0.731277663395546 
2.9000000000016954, -0.7287772327042814 
2.9100000000017165, -0.7257843798110022 
2.9200000000017377, -0.7223926502768045 
2.9300000000017588, -0.7188463471039664 
2.94000000000178, -0.71552852858819 
2.950000000001801, -0.7128331839797388 
2.960000000001822, -0.7109870556070208 
2.970000000001843, -0.7099715310272616 
2.9800000000018643, -0.7095918855118729 
2.9900000000018854, -0.7096029983531044 
3.0000000000019065, -0.7097979155507658 
3.0100000000019276, -0.7100373519063621 
3.0200000000019487, -0.7102420563364454 
3.03000000000197, -0.7103729511705918 
3.040000000001991, -0.7104124698141614 
3.050000000002012, -0.7103510715140886 
3.060000000002033, -0.7101785704554378 
3.070000000002054, -0.7098789537970377 
3.0800000000020753, -0.7094279771174802 
3.0900000000020964, -0.7087940081460256 
3.1000000000021175, -0.7079435574515769 
3.1100000000021386, -0.7068524372746395 
3.1200000000021597, -0.7055202173185161 
3.130000000002181, -0.7039807469678212 
3.140000000002202, -0.7023004155336359 
3.150000000002223, -0.7005628892388328 
3.160000000002244, -0.6988489672902947 
3.1700000000022652, -0.6972224808032116 
3.1800000000022863, -0.6957265486696753 
3.1900000000023074, -0.6943872481530053 
3.2000000000023285, -0.6932195444127802 
3.2100000000023496, -0.6922320162678002 
3.2200000000023707, -0.6914293083312578 
3.230000000002392, -0.6908127189888132 
3.240000000002413, -0.6903798492731171 
3.250000000002434, -0.6901241978643889 
3.260000000002455, -0.690035292355987 
3.2700000000024763, -0.690099556188573 
3.2800000000024974, -0.6903017432303609 
3.2900000000025185, -0.6906265249470801 
3.3000000000025396, -0.6910597138680282 
3.3100000000025607, -0.6915885918449447 
3.3200000000025818, -0.6922008302498868 
3.330000000002603, -0.692881656776295 
3.340000000002624, -0.6936095680005288 
3.350000000002645, -0.6943522243274373 
3.360000000002666, -0.6950655917569173 
3.3700000000026873, -0.6956991669600434 
3.3800000000027084, -0.6962067942410355 
3.3900000000027295, -0.6965579022116308 
3.4000000000027506, -0.6967427576022323 
3.4100000000027717, -0.6967695919738975 
3.420000000002793, -0.696656920249106 
3.430000000002814, -0.6964260333475673 
3.440000000002835, -0.6960966822045498 
3.450000000002856, -0.6956865910118517 
3.460000000002877, -0.6952144903921109 
3.4700000000028983, -0.6947066319974843 
3.4800000000029194, -0.694207324245741 
3.4900000000029405, -0.6937940196827547 
3.5000000000029616, -0.693595839293389 
3.5100000000029827, -0.6938097241610164 
3.520000000003004, -0.6946996843548137 
3.530000000003025, -0.6965547456446316 
3.540000000003046, -0.6995835543564263 
3.550000000003067, -0.7037628143347315 
3.5600000000030882, -0.7087351292602827 
3.5700000000031094, -0.7138847119196348 
3.5800000000031305, -0.7185902894097103 
3.5900000000031516, -0.7224641723581161 
3.6000000000031727, -0.7254079154558462 
3.6100000000031938, -0.7275162761246051 
3.620000000003215, -0.7289568514538929 
3.630000000003236, -0.7298949304936856 
3.640000000003257, -0.7304637217792044 
3.650000000003278, -0.7307592556247687 
3.6600000000032993, -0.7308443111230957 
3.6700000000033204, -0.730753651962355 
3.6800000000033415, -0.7304975329348854 
3.6900000000033626, -0.7300625508417344 
3.7000000000033837, -0.7294099720236475 
3.710000000003405, -0.7284728745546449 
3.720000000003426, -0.7271557659088138 
3.730000000003447, -0.7253439738306201 
3.740000000003468, -0.722932361248301 
3.750000000003489, -0.7198762113193548 
3.7600000000035103, -0.716245609568169 
3.7700000000035314, -0.7122432783581721 
3.7800000000035525, -0.7081592205110517 
3.7900000000035736, -0.704284991228001 
3.8000000000035947, -0.7008408808895332 
3.810000000003616, -0.6979478363885655 
3.820000000003637, -0.6956376511339007 
3.830000000003658, -0.6938792423575146 
3.840000000003679, -0.6926048151693064 
3.8500000000037002, -0.6917299710535664 
3.8600000000037213, -0.6911675582345004 
3.8700000000037424, -0.6908365489178385 
3.8800000000037635, -0.6906670303836228 
3.8900000000037847, -0.6906021100761908 
3.9000000000038058, -0.6905975476800109 
3.910000000003827, -0.6906200591719159 
3.920000000003848, -0.6906452590042655 
3.930000000003869, -0.690656011172335 
3.94000000000389, -0.6906415213779081 
3.9500000000039113, -0.6905968614364889 
3.9600000000039324, -0.690522032500162 
3.9700000000039535, -0.6904196967793054 
3.9800000000039746, -0.6902917180811721 
3.9900000000039957, -0.6901360761864016 
4.000000000004016, -0.6899461572212436 
4.010000000003993, -0.6897131027259241 
4.02000000000397, -0.6894298201818443 
4.030000000003946, -0.6890943320732219 
4.040000000003923, -0.6887111415602031 
4.0500000000039, -0.6882910679678643 
4.0600000000038765, -0.6878509736597979 
4.070000000003853, -0.6874145913362876 
4.08000000000383, -0.6870149114890906 
4.090000000003807, -0.686697893359905 
4.100000000003783, -0.6865267340485655 
4.11000000000376, -0.686585458000794 
4.120000000003737, -0.6869801074153921 
4.130000000003713, -0.687835327652986 
4.14000000000369, -0.6892836277518284 
4.150000000003667, -0.6914441168988854 
4.1600000000036434, -0.6943879200663382 
4.17000000000362, -0.6980915262306453 
4.180000000003597, -0.7023911688906026 
4.1900000000035735, -0.7069695453000457 
4.20000000000355, -0.7114112198553139 
4.210000000003527, -0.7153254171407976 
4.220000000003504, -0.718469368479508 
4.23000000000348, -0.7207914182161588 
4.240000000003457, -0.7223827446192933 
4.250000000003434, -0.7233946527904901 
4.26000000000341, -0.7239756037626186 
4.270000000003387, -0.7242422917545043 
4.280000000003364, -0.7242739250111383 
4.2900000000033405, -0.7241159192725538 
4.300000000003317, -0.7237846310494921 
4.310000000003294, -0.7232695173125319 
4.320000000003271, -0.7225314981190369 
4.330000000003247, -0.7214973634215048 
4.340000000003224, -0.7200513273678613 
4.350000000003201, -0.7180281522232559 
4.360000000003177, -0.7152197128750991 
4.370000000003154, -0.7114174119427885 
4.380000000003131, -0.7065126022620647 
4.390000000003107, -0.7006359424892095 
4.400000000003084, -0.6942349849661862 
4.410000000003061, -0.6879724811543934 
4.4200000000030375, -0.6824738793855204 
4.430000000003014, -0.6781093223751532 
4.440000000002991, -0.6749448528563985 
4.450000000002968, -0.6728310776816383 
4.460000000002944, -0.6715256552405223 
4.470000000002921, -0.6707831985289381 
4.480000000002898, -0.6703997565577018 
4.490000000002874, -0.670224445803 
4.500000000002851, -0.6701539592546392 
4.510000000002828, -0.6701209538412407 
4.520000000002804, -0.6700822026847667 
4.530000000002781, -0.6700089797454076 
4.540000000002758, -0.6698803903974226 
4.5500000000027345, -0.6696797178413287 
4.560000000002711, -0.6693936983803821 
4.570000000002688, -0.6690143484994434 
4.580000000002665, -0.6685421146645476 
4.590000000002641, -0.6679879985942232 
4.600000000002618, -0.6673722237286486 
4.610000000002595, -0.666719026670261 
4.620000000002571, -0.6660501144716374 
4.630000000002548, -0.6653804143001705 
4.640000000002525, -0.6647179180824043 
4.6500000000025015, -0.6640666666009738 
4.660000000002478, -0.6634306090262221 
4.670000000002455, -0.6628166499953542 
4.6800000000024315, -0.6622364872398745 
4.690000000002408, -0.6617076664397328 
4.700000000002385, -0.6612543410594556 
4.710000000002362, -0.6609078857580173 
4.720000000002338, -0.660707191057194 
4.730000000002315, -0.6606983472147308 
4.740000000002292, -0.6609334783829022 
4.750000000002268, -0.661468563798423 
4.760000000002245, -0.662359974934859 
4.770000000002222, -0.6636590038640533 
4.7800000000021985, -0.665402933031462 
4.790000000002175, -0.6676008258300865 
4.800000000002152, -0.6702137046727596 
4.810000000002129, -0.6731341245643562 
4.820000000002105, -0.6761789698941038 
4.830000000002082, -0.679113510324042 
4.840000000002059, -0.6817103713539511 
4.850000000002035, -0.6838159973692226 
4.860000000002012, -0.6853828340890734 
4.870000000001989, -0.6864521688387127 
4.880000000001965, -0.6871103826248421 
4.890000000001942, -0.6874493384546565 
4.900000000001919, -0.6875442521276602 
4.9100000000018955, -0.6874462792922463 
4.920000000001872, -0.6871823317902667 
