t, s[1].omega / s[0].omega 
0, -0.6999976915912902 
0.009999999999999995, -0.6997515306705354 
0.019999999999999934, -0.6994730036010064 
0.029999999999999874, -0.6991574520023919 
0.04000000000000012, -0.6988009070068778 
0.050000000000000405, -0.6984032717609603 
0.06000000000000069, -0.6979700277159748 
0.07000000000000098, -0.6975126417673043 
0.08000000000000126, -0.697048755641775 
0.09000000000000155, -0.6966031114556681 
0.10000000000000184, -0.6962094996883454 
0.11000000000000212, -0.6959133500278549 
0.12000000000000241, -0.6957741155653532 
0.130000000000002, -0.6958663285200342 
0.1400000000000009, -0.69627811956576 
0.1499999999999998, -0.6971060393014754 
0.1599999999999987, -0.6984450211504488 
0.1699999999999976, -0.7003721357911319 
0.1799999999999965, -0.7029228812252957 
0.1899999999999954, -0.7060609547728223 
0.1999999999999943, -0.7096495100247208 
0.2099999999999932, -0.7134433041293236 
0.2199999999999921, -0.7171255724677444 
0.229999999999991, -0.720392010661399 
0.2399999999999899, -0.7230414293276735 
0.2499999999999888, -0.7250160562997497 
0.2599999999999877, -0.7263745669951626 
0.2699999999999866, -0.7272320181098102 
0.2799999999999855, -0.7277082263247652 
0.2899999999999844, -0.7279006350804046 
0.2999999999999833, -0.7278765352031265 
0.3099999999999822, -0.7276743646774149 
0.3199999999999811, -0.7273068739943713 
0.32999999999998, -0.7267626938628406 
0.3399999999999789, -0.7260050468792507 
0.3499999999999778, -0.7249674454422346 
0.35999999999997667, -0.7235473158729001 
0.36999999999997557, -0.7216009870458233 
0.37999999999997447, -0.7189491352247303 
0.38999999999997337, -0.7154108163057621 
0.39999999999997227, -0.710887751158205 
0.40999999999997117, -0.7054920632410309 
0.41999999999997006, -0.6996350494117901 
0.42999999999996896, -0.6939516572961374 
0.43999999999996786, -0.6890544203236091 
0.44999999999996676, -0.6852964912754042 
0.45999999999996566, -0.6827109091741235 
0.46999999999996456, -0.681109485147276 
0.47999999999996346, -0.6802220675153402 
0.48999999999996235, -0.6797941681027331 
0.49999999999996125, -0.6796287679178112 
0.5099999999999602, -0.67959073360453 
0.519999999999959, -0.6795946068545062 
0.529999999999958, -0.6795887461517198 
0.5399999999999568, -0.6795415842961902 
0.5499999999999557, -0.6794316095072318 
0.5599999999999546, -0.6792410034766079 
0.5699999999999535, -0.6789526074401987 
0.5799999999999524, -0.6785501381840743 
0.5899999999999513, -0.678021547278483 
0.5999999999999502, -0.6773644561360715 
0.6099999999999491, -0.6765908546840327 
0.619999999999948, -0.6757274127953866 
0.6299999999999469, -0.6748098502569885 
0.6399999999999458, -0.6738740074963844 
0.6499999999999447, -0.6729485990775725 
0.6599999999999436, -0.672052860110884 
0.6699999999999425, -0.6711986661020087 
0.6799999999999414, -0.67039459844694 
0.6899999999999403, -0.6696496769987952 
0.6999999999999392, -0.6689757811521623 
0.7099999999999381, -0.668388784517594 
0.719999999999937, -0.6679087461822169 
0.7299999999999359, -0.6675594222518064 
0.7399999999999348, -0.6673672522354681 
0.7499999999999337, -0.6673599817695031 
0.7599999999999326, -0.6675651432464641 
0.7699999999999315, -0.6680085822150185 
0.7799999999999304, -0.6687129737993814 
0.7899999999999293, -0.6696958083038888 
0.7999999999999282, -0.6709657820191844 
0.8099999999999271, -0.6725162887351082 
0.819999999999926, -0.6743155041779123 
0.8299999999999249, -0.6762953161954721 
0.8399999999999238, -0.6783459705757645 
0.8499999999999227, -0.6803262174576543 
0.8599999999999216, -0.6820931100717552 
0.8699999999999205, -0.6835402168479752 
0.8799999999999194, -0.684621948226724 
0.8899999999999183, -0.6853506851648634 
0.8999999999999172, -0.6857740619280992 
0.9099999999999161, -0.6859495437276302 
0.919999999999915, -0.6859272888322827 
0.9299999999999139, -0.6857424451492073 
0.9399999999999128, -0.6854132847053032 
0.9499999999999117, -0.6849415293027177 
0.9599999999999106, -0.684312722867173 
0.9699999999999095, -0.6834958187478702 
0.9799999999999084, -0.6824419652494621 
0.9899999999999073, -0.6810830261567213 
0.9999999999999062, -0.6793311509382427 
1.0099999999999052, -0.6770829165124709 
1.019999999999904, -0.6742374185009795 
1.029999999999903, -0.6707457175757667 
1.039999999999902, -0.666699412007472 
1.0499999999999008, -0.6624075484878793 
1.0599999999998997, -0.658350539727232 
1.0699999999998986, -0.6549823858984815 
1.0799999999998975, -0.6525343760230657 
1.0899999999998964, -0.6509769735424995 
1.0999999999998953, -0.650119189638499 
1.1099999999998942, -0.6497298715085396 
1.119999999999893, -0.6496113813428245 
1.129999999999892, -0.6496227286386744 
1.1399999999998909, -0.6496743390923891 
1.1499999999998898, -0.6497134307215408 
1.1599999999998887, -0.6497096483405806 
1.1699999999998876, -0.6496441284255327 
1.1799999999998865, -0.6495022412590069 
1.1899999999998854, -0.6492695125764895 
1.1999999999998843, -0.6489304558600343 
1.2099999999998832, -0.6484704135439835 
1.219999999999882, -0.6478802755175757 
1.229999999999881, -0.6471625973468711 
1.2399999999998799, -0.6463357427935107 
1.2499999999998788, -0.6454324065114453 
1.2599999999998777, -0.6444919839781673 
1.2699999999998766, -0.6435507363166656 
1.2799999999998755, -0.6426351022028451 
1.2899999999998744, -0.6417606504908447 
1.2999999999998733, -0.6409353552585412 
1.3099999999998722, -0.6401642805966696 
1.319999999999871, -0.639453503189537 
1.32999999999987, -0.6388125698004989 
1.3399999999998689, -0.6382557422064535 
1.3499999999998678, -0.6378024963109443 
1.3599999999998666, -0.637477568569067 
1.3699999999998655, -0.6373106474973 
1.3799999999998644, -0.6373357329886742 
1.3899999999998633, -0.6375901837895829 
1.3999999999998622, -0.6381134096353118 
1.4099999999998611, -0.6389449015116809 
1.41999999999986, -0.6401207648535773 
1.429999999999859, -0.6416672471425205 
1.4399999999998578, -0.6435894632791632 
1.4499999999998567, -0.6458548333876233 
1.4599999999998556, -0.6483752810183452 
1.4699999999998545, -0.6509997204885914 
1.4799999999998534, -0.6535322201527917 
1.4899999999998523, -0.6557798654096478 
1.4999999999998512, -0.6576086476469765 
1.5099999999998501, -0.658972564880449 
1.519999999999849, -0.6599016964374116 
1.529999999999848, -0.6604665580685332 
1.5399999999998468, -0.66074429833922 
1.5499999999998457, -0.6607988621563055 
1.5599999999998446, -0.6606736007911469 
1.5699999999998435, -0.6603902583005172 
1.5799999999998424, -0.659949402794612 
1.5899999999998413, -0.6593295328882111 
1.5999999999998402, -0.6584835203626144 
1.6099999999998391, -0.6573319379437919 
1.619999999999838, -0.6557542400317264 
1.629999999999837, -0.6535826323988015 
1.6399999999998358, -0.6506121552211594 
1.6499999999998347, -0.6466520174171674 
1.6599999999998336, -0.6416384167586155 
1.6699999999998325, -0.6357728597309168 
1.6799999999998314, -0.6295628154553901 
1.6899999999998303, -0.6236648358037599 
1.6999999999998292, -0.6186200368111814 
1.709999999999828, -0.6146866203344812 
1.719999999999827, -0.6118510529595401 
1.729999999999826, -0.6099388714189229 
1.7399999999998248, -0.6087243198520143 
1.7499999999998237, -0.6079968678887078 
1.7599999999998226, -0.6075879395642622 
1.7699999999998215, -0.6073741012274684 
1.7799999999998204, -0.6072700052421276 
1.7899999999998193, -0.6072186633685671 
1.7999999999998182, -0.6071825067600459 
1.809999999999817, -0.607136476604745 
1.819999999999816, -0.6070634222580068 
1.8299999999998149, -0.6069517322119546 
1.8399999999998138, -0.6067949032755892 
1.8499999999998127, -0.6065923290745038 
1.8599999999998116, -0.6063499560432131 
1.8699999999998105, -0.6060791724119687 
1.8799999999998094, -0.6057931542165259 
1.8899999999998083, -0.6055018097364271 
1.8999999999998072, -0.6052079615242764 
1.909999999999806, -0.6049069754887689 
1.919999999999805, -0.6045899025664077 
1.9299999999998039, -0.6042481113201752 
1.9399999999998028, -0.6038769753303339 
1.9499999999998017, -0.6034774883419306 
1.9599999999998006, -0.6030563578069963 
1.9699999999997995, -0.6026259232329129 
1.9799999999997984, -0.6022050639026554 
1.9899999999997973, -0.6018217281893287 
1.9999999999997962, -0.6015173005673666 
2.0099999999998173, -0.6013527435209988 
2.0199999999998384, -0.601416057838733 
2.0299999999998595, -0.6018297231184776 
2.0399999999998806, -0.602754924732913 
2.0499999999999017, -0.6043860383883365 
2.059999999999923, -0.6069242920853365 
2.069999999999944, -0.6105173083400512 
2.079999999999965, -0.6151620291445175 
2.089999999999986, -0.620606402149285 
2.100000000000007, -0.6263367253422965 
2.1100000000000283, -0.6317248833421867 
2.1200000000000494, -0.6362732845189962 
2.1300000000000705, -0.6397734316760759 
2.1400000000000916, -0.6422798705336914 
2.1500000000001127, -0.6439801767711641 
2.160000000000134, -0.6450810016844971 
2.170000000000155, -0.6457530737112585 
2.180000000000176, -0.6461190319279569 
2.190000000000197, -0.6462591245992424 
2.2000000000002182, -0.6462202714470632 
2.2100000000002393, -0.6460230372082146 
2.2200000000002604, -0.6456653524391952 
2.2300000000002815, -0.6451234483000828 
2.2400000000003026, -0.6443514685616553 
2.2500000000003237, -0.643282768002863 
2.260000000000345, -0.641838187166336 
2.270000000000366, -0.6399476222113845 
2.280000000000387, -0.6375858886826274 
2.290000000000408, -0.6348089338033661 
2.3000000000004293, -0.6317629516797798 
2.3100000000004504, -0.6286499884160526 
2.3200000000004715, -0.6256681246999409 
2.3300000000004926, -0.6229637277436334 
2.3400000000005137, -0.6206163659748697 
2.3500000000005348, -0.6186496952528683 
2.360000000000556, -0.6170514128185316 
2.370000000000577, -0.6157906889674835 
2.380000000000598, -0.614829508626131 
2.390000000000619, -0.6141288141615595 
2.4000000000006403, -0.6136514642828361 
2.4100000000006614, -0.6133636324434456 
2.4200000000006825, -0.6132355687960951 
2.4300000000007036, -0.6132421133448092 
2.4400000000007247, -0.6133630550751864 
2.450000000000746, -0.6135833095512264 
2.460000000000767, -0.6138928147967737 
2.470000000000788, -0.614285912111286 
2.480000000000809, -0.6147597604157959 
2.49000000000083, -0.6153111940771653 
2.5000000000008513, -0.6159317662491798 
2.5100000000008724, -0.6166019111165286 
2.5200000000008935, -0.6172869832034713 
2.5300000000009146, -0.6179389302174914 
2.5400000000009357, -0.6185053805953556 
2.550000000000957, -0.6189428660738331 
2.560000000000978, -0.6192269492814911 
2.570000000000999, -0.6193539196575377 
2.58000000000102, -0.6193348769514251 
2.5900000000010412, -0.6191871474082398 
2.6000000000010624, -0.6189273503817021 
2.6100000000010835, -0.6185676543445808 
2.6200000000011046, -0.618114831657807 
2.6300000000011257, -0.6175712967948599 
2.6400000000011468, -0.6169376782319748 
2.650000000001168, -0.6162168449883754 
2.660000000001189, -0.6154190627639153 
2.67000000000121, -0.6145663935709049 
2.680000000001231, -0.6136911222692878 
2.6900000000012523, -0.612819996918562 
2.7000000000012734, -0.6119425006632977 
2.7100000000012945, -0.6109891956134228 
2.7200000000013156, -0.609874250453281 
2.7300000000013367, -0.6086055007289711 
2.740000000001358, -0.607342347915951 
2.750000000001379, -0.6063026712186254 
2.7600000000014, -0.6056173032154264 
2.770000000001421, -0.605280909104845 
2.780000000001442, -0.6052019837269749 
2.7900000000014633, -0.6052707458446867 
2.8000000000014844, -0.6053978476902123 
2.8100000000015055, -0.6055238061435709 
2.8200000000015266, -0.6056137836247515 
2.8300000000015477, -0.6056486485736378 
2.840000000001569, -0.6056171209356666 
2.85000000000159, -0.6055102369802519 
2.860000000001611, -0.6053181025839964 
2.870000000001632, -0.6050288387274659 
2.8800000000016532, -0.604629921523045 
2.8900000000016743, -0.6041121044317093 
2.9000000000016954, -0.6034751753797967 
2.9100000000017165, -0.6027329836514932 
2.9200000000017377, -0.6019140277353262 
2.9300000000017588, -0.6010556696823761 
2.94000000000178, -0.6001943925905928 
2.950000000001801, -0.5993574619596049 
2.960000000001822, -0.5985599235424037 
2.970000000001843, -0.5978069283119611 
2.9800000000018643, -0.597098676555679 
2.9900000000018854, -0.5964352080416455 
3.0000000000019065, -0.5958197143945704 
3.0100000000019276, -0.5952604454568181 
3.0200000000019487, -0.5947718851850544 
3.03000000000197, -0.5943758006675033 
3.040000000001991, -0.5941024434978104 
3.050000000002012, -0.5939918978766293 
3.060000000002033, -0.5940953871951146 
3.070000000002054, -0.5944761845169302 
3.0800000000020753, -0.5952094586231864 
3.0900000000020964, -0.5963797207111672 
3.1000000000021175, -0.5980733726536929 
3.1100000000021386, -0.6003624737122667 
3.1200000000021597, -0.6032757755543972 
3.130000000002181, -0.6067580453646506 
3.140000000002202, -0.610632826007917 
3.150000000002223, -0.6146019717089841 
3.160000000002244, -0.6183119555248009 
3.1700000000022652, -0.6214685041025187 
3.1800000000022863, -0.623925938634226 
3.1900000000023074, -0.6256935477848552 
3.2000000000023285, -0.6268762069176624 
3.2100000000023496, -0.6276060867542634 
3.2200000000023707, -0.6280002006679174 
3.230000000002392, -0.6281448556091921 
3.240000000002413, -0.6280948487921483 
3.250000000002434, -0.6278771468969572 
3.260000000002455, -0.6274937770661747 
3.2700000000024763, -0.6269219735947562 
3.2800000000024974, -0.6261113470851061 
3.2900000000025185, -0.624979399258623 
3.3000000000025396, -0.6234096679347714 
3.3100000000025607, -0.6212619893797684 
3.3200000000025818, -0.6184087570794597 
3.330000000002603, -0.6148031981827602 
3.340000000002624, -0.6105535320960612 
3.350000000002645, -0.6059414326524686 
3.360000000002666, -0.6013450322779065 
3.3700000000026873, -0.5971103407951088 
3.3800000000027084, -0.5934593170576531 
3.3900000000027295, -0.5904746634395965 
3.4000000000027506, -0.588136281985449 
3.4100000000027717, -0.5863685862402463 
3.420000000002793, -0.5850763569682751 
3.430000000002814, -0.5841654305815076 
3.440000000002835, -0.5835522701333244 
3.450000000002856, -0.5831671673665305 
3.460000000002877, -0.5829543195049977 
3.4700000000028983, -0.5828705708630697 
3.4800000000029194, -0.5828837181800053 
3.4900000000029405, -0.5829708323830645 
3.5000000000029616, -0.5831168215094198 
3.5100000000029827, -0.583313262954331 
3.520000000003004, -0.5835572550504216 
3.530000000003025, -0.5838496957964789 
3.540000000003046, -0.5841922275288067 
3.550000000003067, -0.5845825126326963 
3.5600000000030882, -0.5850087802802474 
3.5700000000031094, -0.585446226251886 
3.5800000000031305, -0.5858584151767501 
3.5900000000031516, -0.5862047916830263 
3.6000000000031727, -0.5864512496534017 
3.6100000000031938, -0.5865779970594582 
3.620000000003215, -0.5865808517922954 
3.630000000003236, -0.5864668267304853 
3.640000000003257, -0.586247764375863 
3.650000000003278, -0.5859352178267354 
3.6600000000032993, -0.5855377566108734 
3.6700000000033204, -0.5850604964321133 
3.6800000000033415, -0.5845063274937481 
3.6900000000033626, -0.5838784977179898 
3.7000000000033837, -0.5831842315351456 
3.710000000003405, -0.5824382842890874 
3.720000000003426, -0.5816630713374923 
3.730000000003447, -0.5808784977551135 
3.740000000003468, -0.5800744356945252 
3.750000000003489, -0.5791746896256152 
3.7600000000035103, -0.5780396458715582 
3.7700000000035314, -0.5765647080827099 
3.7800000000035525, -0.5748234106236925 
3.7900000000035736, -0.5730799085546081 
3.8000000000035947, -0.5716221458231501 
3.810000000003616, -0.5705978006034254 
3.820000000003637, -0.5699924338252021 
3.830000000003658, -0.5697027688066394 
3.840000000003679, -0.5696104241936207 
3.8500000000037002, -0.5696191505670136 
3.8600000000037213, -0.569662895071547 
3.8700000000037424, -0.5697005645519642 
3.8800000000037635, -0.5697076553326046 
3.8900000000037847, -0.5696689756356348 
3.9000000000038058, -0.5695735633455643 
3.910000000003827, -0.569411830287446 
3.920000000003848, -0.5691748449296878 
3.930000000003869, -0.5688557244716927 
3.94000000000389, -0.5684527812399487 
3.9500000000039113, -0.5679730934946053 
3.9600000000039324, -0.5674340810781621 
3.9700000000039535, -0.5668608979027925 
3.9800000000039746, -0.5662798587697482 
3.9900000000039957, -0.5657110995785983 
4.000000000004016, -0.5651643679542981 
4.010000000003993, -0.5646396183127724 
4.02000000000397, -0.5641311339510365 
4.030000000003946, -0.5636324925550504 
4.040000000003923, -0.5631402819085612 
4.0500000000039, -0.5626560298653207 
4.0600000000038765, -0.5621870564933134 
4.070000000003853, -0.5617473277929775 
4.08000000000383, -0.5613591417152033 
4.090000000003807, -0.5610560881395498 
4.100000000003783, -0.5608874303814841 
4.11000000000376, -0.5609237955716747 
4.120000000003737, -0.5612635876569751 
4.130000000003713, -0.5620384474698576 
4.14000000000369, -0.563413800905762 
4.150000000003667, -0.5655765728832302 
4.1600000000036434, -0.5686975210627719 
4.17000000000362, -0.5728564977783477 
4.180000000003597, -0.5779396521633628 
4.1900000000035735, -0.5835675440339012 
4.20000000000355, -0.5891515079605879 
4.210000000003527, -0.594105362412013 
4.220000000003504, -0.5980737766575153 
4.23000000000348, -0.6010005743498164 
4.240000000003457, -0.6030310216198187 
4.250000000003434, -0.6043759059113254 
4.26000000000341, -0.6052268933987881 
4.270000000003387, -0.6057282150178194 
4.280000000003364, -0.605977676702018 
4.2900000000033405, -0.606036122335139 
4.300000000003317, -0.6059362535897734 
4.310000000003294, -0.6056883941559946 
4.320000000003271, -0.6052833881992943 
4.330000000003247, -0.6046938725356952 
4.340000000003224, -0.6038761685471236 
4.350000000003201, -0.602776416667255 
4.360000000003177, -0.6013452206910002 
4.370000000003154, -0.5995618971595756 
4.380000000003131, -0.5974600868467934 
4.390000000003107, -0.5951369275288423 
4.400000000003084, -0.5927328928404362 
4.410000000003061, -0.5903913427174418 
4.4200000000030375, -0.588222870443862 
4.430000000003014, -0.5862915110631262 
4.440000000002991, -0.5846208372422651 
4.450000000002968, -0.583208388128579 
4.460000000002944, -0.582039134034595 
4.470000000002921, -0.58109442308905 
4.480000000002898, -0.5803566321324102 
4.490000000002874, -0.5798110013193967 
4.500000000002851, -0.579446048517252 
4.510000000002828, -0.5792534937170594 
4.520000000002804, -0.579228190480505 
4.530000000002781, -0.5793682488013925 
4.540000000002758, -0.5796753050411213 
4.5500000000027345, -0.5801546808852409 
4.560000000002711, -0.5808149058644719 
4.570000000002688, -0.5816657333071442 
4.580000000002665, -0.5827134914266858 
4.590000000002641, -0.5839528413552346 
4.600000000002618, -0.5853555906350827 
4.610000000002595, -0.5868607053296822 
4.620000000002571, -0.5883735608947043 
4.630000000002548, -0.5897816598343588 
4.640000000002525, -0.5909840219557507 
4.6500000000025015, -0.5919184869761441 
4.660000000002478, -0.5925706060530823 
4.670000000002455, -0.5929624066714732 
4.6800000000024315, -0.5931325590397699 
4.690000000002408, -0.5931195351039533 
4.700000000002385, -0.5929518560013549 
4.710000000002362, -0.5926438153704077 
4.720000000002338, -0.5921935180873261 
4.730000000002315, -0.591580659616764 
4.740000000002292, -0.5907623269430562 
4.750000000002268, -0.589665750536102 
4.760000000002245, -0.5881780512229512 
4.770000000002222, -0.5861365530259985 
4.7800000000021985, -0.5833323294614199 
4.790000000002175, -0.579554018392778 
4.800000000002152, -0.5746994958587003 
4.810000000002129, -0.5689269952148238 
4.820000000002105, -0.5627158073622384 
4.830000000002082, -0.5567176552532501 
4.840000000002059, -0.551485056345201 
4.850000000002035, -0.5472959852726647 
4.860000000002012, -0.544162412297959 
4.870000000001989, -0.5419384784941065 
4.880000000001965, -0.5404254136607738 
4.890000000001942, -0.53943376688635 
4.900000000001919, -0.5388083251359952 
4.9100000000018955, -0.5384319423709604 
4.920000000001872, -0.538220521333798 
