t, s[1].omega / s[0].omega 
0, -0.5699977354245668 
0.009999999999999995, -0.5697668431452766 
0.019999999999999934, -0.5695257065749351 
0.029999999999999874, -0.5692706597184678 
0.04000000000000012, -0.5689975387946086 
0.050000000000000405, -0.5687034096395956 
0.06000000000000069, -0.5683875617195382 
0.07000000000000098, -0.5680516669692736 
0.08000000000000126, -0.5676995126651893 
0.09000000000000155, -0.5673368289944606 
0.10000000000000184, -0.5669715706190843 
0.11000000000000212, -0.5666148027184609 
0.12000000000000241, -0.5662821848469678 
0.130000000000002, -0.5659958971997344 
0.1400000000000009, -0.5657865977839465 
0.1499999999999998, -0.565694509936509 
0.1599999999999987, -0.5657679738297035 
0.1699999999999976, -0.566057027190711 
0.1799999999999965, -0.5665998251623652 
0.1899999999999954, -0.5674028537810102 
0.1999999999999943, -0.5684229576325447 
0.2099999999999932, -0.5695657873756618 
0.2199999999999921, -0.5707103511067697 
0.229999999999991, -0.5717492036694093 
0.2399999999999899, -0.5726180688583247 
0.2499999999999888, -0.5732989757602146 
0.2599999999999877, -0.57380452534237 
0.2699999999999866, -0.5741598534922734 
0.2799999999999855, -0.5743911783827904 
0.2899999999999844, -0.5745209075876754 
0.2999999999999833, -0.5745663396685758 
0.3099999999999822, -0.5745396980760609 
0.3199999999999811, -0.5744484547834362 
0.32999999999998, -0.5742956264176804 
0.3399999999999789, -0.5740800578011834 
0.3499999999999778, -0.5737968935398976 
0.35999999999997667, -0.573438590795844 
0.36999999999997557, -0.572996899803105 
0.37999999999997447, -0.5724660408675948 
0.38999999999997337, -0.5718466261313574 
0.39999999999997227, -0.5711488533652742 
0.40999999999997117, -0.570392976472988 
0.41999999999997006, -0.5696060460282266 
0.42999999999996896, -0.5688161509594319 
0.43999999999996786, -0.5680469886026891 
0.44999999999996676, -0.5673150691843334 
0.45999999999996566, -0.566629934951004 
0.46999999999996456, -0.5659962462420106 
0.47999999999996346, -0.5654163089251352 
0.48999999999996235, -0.564892170341208 
0.49999999999996125, -0.5644270558400935 
0.5099999999999602, -0.5640262788769558 
0.519999999999959, -0.5636978369278847 
0.529999999999958, -0.5634528416187472 
0.5399999999999568, -0.5633058297232044 
0.5499999999999557, -0.5632748948157438 
0.5599999999999546, -0.5633814515408184 
0.5699999999999535, -0.5636492662806472 
0.5799999999999524, -0.5641021577266171 
0.5899999999999513, -0.5647595846571196 
0.5999999999999502, -0.5656294975414878 
0.6099999999999491, -0.5666988876511964 
0.619999999999948, -0.5679248718725904 
0.6299999999999469, -0.5692321042739825 
0.6399999999999458, -0.5705225980662373 
0.6499999999999447, -0.5716980571734843 
0.6599999999999436, -0.5726849218397778 
0.6699999999999425, -0.5734485099037643 
0.6799999999999414, -0.5739905451652769 
0.6899999999999403, -0.5743357873751216 
0.6999999999999392, -0.5745173772211711 
0.7099999999999381, -0.5745666427832872 
0.719999999999937, -0.5745080484363646 
0.7299999999999359, -0.574357540672817 
0.7399999999999348, -0.5741224109457967 
0.7499999999999337, -0.5738014926413539 
0.7599999999999326, -0.5733852255578089 
0.7699999999999315, -0.5728557212759412 
0.7799999999999304, -0.5721875750165195 
0.7899999999999293, -0.5713508401399007 
0.7999999999999282, -0.5703179255332141 
0.8099999999999271, -0.5690751335608195 
0.819999999999926, -0.5676360882257213 
0.8299999999999249, -0.5660497771163844 
0.8399999999999238, -0.5643955026946345 
0.8499999999999227, -0.5627644469131239 
0.8599999999999216, -0.5612373084951382 
0.8699999999999205, -0.5598694130233433 
0.8799999999999194, -0.5586876691974768 
0.8899999999999183, -0.5576960862794598 
0.8999999999999172, -0.5568841918428966 
0.9099999999999161, -0.556234467551664 
0.919999999999915, -0.555727446582863 
0.9299999999999139, -0.5553446455725066 
0.9399999999999128, -0.5550699987532265 
0.9499999999999117, -0.5548904170737111 
0.9599999999999106, -0.5547958924503208 
0.9699999999999095, -0.5547793753908665 
0.9799999999999084, -0.5548365088363484 
0.9899999999999073, -0.5549651846993777 
0.9999999999999062, -0.555164779925407 
1.0099999999999052, -0.555434835264131 
1.019999999999904, -0.555772939327406 
1.029999999999903, -0.556171825897825 
1.039999999999902, -0.5566163151660783 
1.0499999999999008, -0.557081576053419 
1.0599999999998997, -0.5575345572755139 
1.0699999999998986, -0.557939380342175 
1.0799999999998975, -0.5582650257687715 
1.0899999999998964, -0.5584916547465342 
1.0999999999998953, -0.5586125548569026 
1.1099999999998942, -0.5586315670419333 
1.119999999999893, -0.5585582322507562 
1.129999999999892, -0.5584031053803941 
1.1399999999998909, -0.5581744533342607 
1.1499999999998898, -0.5578763448621658 
1.1599999999998887, -0.5575075916018819 
1.1699999999998876, -0.5570609745285071 
1.1799999999998865, -0.5565223904725494 
1.1899999999998854, -0.5558698538017498 
1.1999999999998843, -0.5550727748364295 
1.2099999999998832, -0.5540928245712933 
1.219999999999882, -0.5528890234313233 
1.229999999999881, -0.5514304799659298 
1.2399999999998799, -0.5497175551498008 
1.2499999999998788, -0.5478034883691223 
1.2599999999998777, -0.5457990308415044 
1.2699999999998766, -0.5438475197502528 
1.2799999999998755, -0.5420808092099417 
1.2899999999998744, -0.5405834557275819 
1.2999999999998733, -0.5393830116868863 
1.3099999999998722, -0.5384624529749136 
1.319999999999871, -0.5377803111283848 
1.32999999999987, -0.5372876642142643 
1.3399999999998689, -0.5369384593447271 
1.3499999999998678, -0.5366940989362858 
1.3599999999998666, -0.5365244457941869 
1.3699999999998655, -0.5364070638140545 
1.3799999999998644, -0.5363258378653337 
1.3899999999998633, -0.5362695800639292 
1.3999999999998622, -0.536230894897437 
1.4099999999998611, -0.5362053728175816 
1.41999999999986, -0.5361910275864441 
1.429999999999859, -0.5361877437426805 
1.4399999999998578, -0.5361963966064016 
1.4499999999998567, -0.5362173799835475 
1.4599999999998556, -0.5362486508295989 
1.4699999999998545, -0.5362839836992038 
1.4799999999998534, -0.5363124963588668 
1.4899999999998523, -0.5363201553129874 
1.4999999999998512, -0.5362928749997434 
1.5099999999998501, -0.5362197515199694 
1.519999999999849, -0.5360948814233321 
1.529999999999848, -0.5359172012959089 
1.5399999999998468, -0.5356889300508834 
1.5499999999998457, -0.5354136420000086 
1.5599999999998446, -0.535094726276694 
1.5699999999998435, -0.5347344968055794 
1.5799999999998424, -0.5343338794696736 
1.5899999999998413, -0.5338924708689857 
1.5999999999998402, -0.5334087213874903 
1.6099999999998391, -0.5328799306535983 
1.619999999999838, -0.532301641938572 
1.629999999999837, -0.5316660882094173 
1.6399999999998358, -0.5309601349036254 
1.6499999999998347, -0.5301652850937968 
1.6599999999998336, -0.5292646943462901 
1.6699999999998325, -0.528259895884936 
1.6799999999998314, -0.5271887587800668 
1.6899999999998303, -0.5261258985575913 
1.6999999999998292, -0.5251573128067525 
1.709999999999828, -0.5243465873543804 
1.719999999999827, -0.5237172065524178 
1.729999999999826, -0.5232571010795674 
1.7399999999998248, -0.5229343483070126 
1.7499999999998237, -0.5227119074373603 
1.7599999999998226, -0.5225564046937381 
1.7699999999998215, -0.5224414564704697 
1.7799999999998204, -0.5223477330116854 
1.7899999999998193, -0.5222616458725425 
1.7999999999998182, -0.5221737765892699 
1.809999999999817, -0.5220775825953528 
1.819999999999816, -0.5219685934471074 
1.8299999999998149, -0.521844138272355 
1.8399999999998138, -0.5217034986468726 
1.8499999999998127, -0.5215481889865328 
1.8599999999998116, -0.5213818799554415 
1.8699999999998105, -0.5212094941765415 
1.8799999999998094, -0.5210354071151911 
1.8899999999998083, -0.5208613680575038 
1.8999999999998072, -0.5206852146571281 
1.909999999999806, -0.520501195971977 
1.919999999999805, -0.5203018078167316 
1.9299999999998039, -0.5200801552355003 
1.9399999999998028, -0.5198316835187297 
1.9499999999998017, -0.5195547147554163 
1.9599999999998006, -0.5192500086165743 
1.9699999999997995, -0.5189199634737925 
1.9799999999997984, -0.518568006831715 
1.9899999999997973, -0.5181984575802236 
1.9999999999997962, -0.5178169131509532 
2.0099999999998173, -0.5174310716651143 
2.0199999999998384, -0.5170517593157413 
2.0299999999998595, -0.5166936744553977 
2.0399999999998806, -0.5163749099907324 
2.0499999999999017, -0.5161138310899039 
2.059999999999923, -0.5159220953410038 
2.069999999999944, -0.5157949433030116 
2.079999999999965, -0.5157049831370472 
2.089999999999986, -0.5156092574323649 
2.100000000000007, -0.5154719320399107 
2.1100000000000283, -0.515286909236763 
2.1200000000000494, -0.5150790517657999 
2.1300000000000705, -0.5148837597244309 
2.1400000000000916, -0.5147254507629345 
2.1500000000001127, -0.5146100783411626 
2.160000000000134, -0.5145297955041641 
2.170000000000155, -0.5144709727106946 
2.180000000000176, -0.5144200000572953 
2.190000000000197, -0.5143658472893792 
2.2000000000002182, -0.514300413048249 
2.2100000000002393, -0.5142178771589867 
2.2200000000002604, -0.5141138558336911 
2.2300000000002815, -0.5139847826352137 
2.2400000000003026, -0.513827724091001 
2.2500000000003237, -0.5136407127908817 
2.260000000000345, -0.513423524586921 
2.270000000000366, -0.5131785706040219 
2.280000000000387, -0.512911301139546 
2.290000000000408, -0.5126294997732063 
2.3000000000004293, -0.5123413354507059 
2.3100000000004504, -0.5120528741919929 
2.3200000000004715, -0.5117662870593669 
2.3300000000004926, -0.5114796880670922 
2.3400000000005137, -0.5111885713253318 
2.3500000000005348, -0.5108879445638286 
2.360000000000556, -0.5105740927088621 
2.370000000000577, -0.510245420535654 
2.380000000000598, -0.5099024924014846 
2.390000000000619, -0.5095477466384393 
2.4000000000006403, -0.5091853466791143 
2.4100000000006614, -0.5088214396916271 
2.4200000000006825, -0.5084649061732488 
2.4300000000007036, -0.508128536271503 
2.4400000000007247, -0.5078303832724678 
2.450000000000746, -0.5075946986647494 
2.460000000000767, -0.5074512598247632 
2.470000000000788, -0.507431207852412 
2.480000000000809, -0.5075575139592059 
2.49000000000083, -0.5078306229920732 
2.5000000000008513, -0.5082159727492374 
2.5100000000008724, -0.5086461328155812 
2.5200000000008935, -0.5090450518911922 
2.5300000000009146, -0.509361362952321 
2.5400000000009357, -0.5095842642948754 
2.550000000000957, -0.5097321302443352 
2.560000000000978, -0.5098301975144285 
2.570000000000999, -0.5098962554462347 
2.58000000000102, -0.5099381723110984 
2.5900000000010412, -0.5099573136307568 
2.6000000000010624, -0.5099523299493196 
2.6100000000010835, -0.5099213210735484 
2.6200000000011046, -0.5098625293119603 
2.6300000000011257, -0.509774256063625 
2.6400000000011468, -0.5096545703338323 
2.650000000001168, -0.509501168298597 
2.660000000001189, -0.5093116101233381 
2.67000000000121, -0.5090840590641665 
2.680000000001231, -0.5088184706760892 
2.6900000000012523, -0.5085178639329495 
2.7000000000012734, -0.5081889679626095 
2.7100000000012945, -0.5078415197816482 
2.7200000000013156, -0.5074860812602422 
2.7300000000013367, -0.507131208398355 
2.740000000001358, -0.5067813670670607 
2.750000000001379, -0.5064365911769431 
2.7600000000014, -0.5060938243330312 
2.770000000001421, -0.5057490173828671 
2.780000000001442, -0.5053989362204746 
2.7900000000014633, -0.5050421506582615 
2.8000000000014844, -0.5046793009587676 
2.8100000000015055, -0.5043130677705883 
2.8200000000015266, -0.5039482645044424 
2.8300000000015477, -0.5035923073688077 
2.840000000001569, -0.5032561486460629 
2.85000000000159, -0.5029556068970257 
2.860000000001611, -0.5027128161106467 
2.870000000001632, -0.502557122495777 
2.8800000000016532, -0.5025240977841011 
2.8900000000016743, -0.5026505745470198 
2.9000000000016954, -0.502963596491638 
2.9100000000017165, -0.503463787556718 
2.9200000000017377, -0.5041103450773947 
2.9300000000017588, -0.5048217733099946 
2.94000000000178, -0.5055016461254362 
2.950000000001801, -0.5060769081806816 
2.960000000001822, -0.5065200503017786 
2.970000000001843, -0.5068416442712333 
2.9800000000018643, -0.507067775309199 
2.9900000000018854, -0.5072226163493244 
3.0000000000019065, -0.5073224417126168 
3.0100000000019276, -0.5073766321246094 
3.0200000000019487, -0.5073903478511328 
3.03000000000197, -0.5073664592166478 
3.040000000001991, -0.5073064297146669 
3.050000000002012, -0.5072105538166903 
3.060000000002033, -0.5070779846453594 
3.070000000002054, -0.5069068767643105 
3.0800000000020753, -0.5066948846404578 
3.0900000000020964, -0.50644016593129 
3.1000000000021175, -0.5061428371847032 
3.1100000000021386, -0.5058064642391306 
3.1200000000021597, -0.5054387941355714 
3.130000000002181, -0.5050509477685247 
3.140000000002202, -0.5046549920647813 
3.150000000002223, -0.5042608668625738 
3.160000000002244, -0.5038741764133896 
3.1700000000022652, -0.5034958409123385 
3.1800000000022863, -0.5031234715085974 
3.1900000000023074, -0.5027534884707812 
3.2000000000023285, -0.5023829493511797 
3.2100000000023496, -0.5020105945889334 
3.2200000000023707, -0.5016372188494754 
3.230000000002392, -0.5012657752135221 
3.240000000002413, -0.5009016054982232 
3.250000000002434, -0.5005530359398735 
3.260000000002455, -0.5002324161123745 
3.2700000000024763, -0.4999575227387828 
3.2800000000024974, -0.4997530185654397 
3.2900000000025185, -0.49965122889552394 
3.3000000000025396, -0.499690798011994 
3.3100000000025607, -0.499911008533185 
3.3200000000025818, -0.5003396176697736 
3.330000000002603, -0.5009749529493772 
3.340000000002624, -0.5017701350894086 
3.350000000002645, -0.5026343483874623 
3.360000000002666, -0.5034605855740744 
3.3700000000026873, -0.5041664545906671 
3.3800000000027084, -0.5047182324027149 
3.3900000000027295, -0.5051241409927202 
3.4000000000027506, -0.5054113903724367 
3.4100000000027717, -0.5056075519319541 
3.420000000002793, -0.5057331615808933 
3.430000000002814, -0.5058016498604433 
3.440000000002835, -0.5058214618841848 
3.450000000002856, -0.5057978482594183 
3.460000000002877, -0.5057338324075656 
3.4700000000028983, -0.5056306135236324 
3.4800000000029194, -0.5054877698548287 
3.4900000000029405, -0.5053035701054096 
3.5000000000029616, -0.5050756422032424 
3.5100000000029827, -0.5048021571360397 
3.520000000003004, -0.5044834583283396 
3.530000000003025, -0.5041236630130664 
3.540000000003046, -0.5037313732182822 
3.550000000003067, -0.5033187008068436 
3.5600000000030882, -0.5028986129649458 
3.5700000000031094, -0.5024817117490976 
3.5800000000031305, -0.502074027123912 
3.5900000000031516, -0.5016767666812734 
3.6000000000031727, -0.5012877820511902 
3.6100000000031938, -0.5009037175648708 
3.620000000003215, -0.5005218293776155 
3.630000000003236, -0.5001410322149455 
3.640000000003257, -0.4997623095698631 
3.650000000003278, -0.4993888897876847 
3.6600000000032993, -0.49902656268490997 
3.6700000000033204, -0.4986843597317917 
3.6800000000033415, -0.4983756637109771 
3.6900000000033626, -0.49811965278796444 
3.7000000000033837, -0.49794273439879727 
3.710000000003405, -0.4978791662244658 
3.720000000003426, -0.49796933001709326 
3.730000000003447, -0.4982533556262263 
3.740000000003468, -0.49875800722000185 
3.750000000003489, -0.49947798934808274 
3.7600000000035103, -0.5003603408431953 
3.7700000000035314, -0.5013073674641016 
3.7800000000035525, -0.5022067244717797 
3.7900000000035736, -0.5029734129876895 
3.8000000000035947, -0.5035732672083609 
3.810000000003616, -0.5040151760584858 
3.820000000003637, -0.5043276267698904 
3.830000000003658, -0.5045399214750252 
3.840000000003679, -0.5046745397089263 
3.8500000000037002, -0.5047467486985331 
3.8600000000037213, -0.5047664896488058 
3.8700000000037424, -0.50474008202398 
3.8800000000037635, -0.5046712134385205 
3.8900000000037847, -0.5045614181333147 
3.9000000000038058, -0.5044103747508342 
3.910000000003827, -0.5042163224776223 
3.920000000003848, -0.5039768483287511 
3.930000000003869, -0.5036902000454806 
3.94000000000389, -0.5033570257913846 
3.9500000000039113, -0.5029820088149541 
3.9600000000039324, -0.5025744835179864 
3.9700000000039535, -0.5021472578247775 
3.9800000000039746, -0.5017137617010337 
3.9900000000039957, -0.5012847621892996 
4.000000000004016, -0.5008662508944349 
4.010000000003993, -0.5004593561614604 
4.02000000000397, -0.500061924970771 
4.030000000003946, -0.4996706944999135 
4.040000000003923, -0.49928307531477534 
4.0500000000039, -0.4988981627691337 
4.0600000000038765, -0.49851714761336063 
4.070000000003853, -0.49814352939698053 
4.08000000000383, -0.4977834915294821 
4.090000000003807, -0.4974466445238129 
4.100000000003783, -0.4971471891107243 
4.11000000000376, -0.4969053845124217 
4.120000000003737, -0.49674893946523246 
4.130000000003713, -0.49671345532596495 
4.14000000000369, -0.49684029241113875 
4.150000000003667, -0.49716949199203125 
4.1600000000036434, -0.4977257932468492 
4.17000000000362, -0.49849945274203156 
4.180000000003597, -0.4994314377683885 
4.1900000000035735, -0.5004187594715578 
4.20000000000355, -0.5013470601570805 
4.210000000003527, -0.5021328619485226 
4.220000000003504, -0.5027449455914249 
4.23000000000348, -0.5031945175797663 
4.240000000003457, -0.5035112978383469 
4.250000000003434, -0.5037252460868155 
4.26000000000341, -0.5038593713618844 
4.270000000003387, -0.5039294520594251 
4.280000000003364, -0.5039458657433814 
4.2900000000033405, -0.5039152322387699 
4.300000000003317, -0.5038413871373344 
4.310000000003294, -0.5037258821034797 
4.320000000003271, -0.5035683295101666 
4.330000000003247, -0.5033668859095836 
4.340000000003224, -0.5031191258962964 
4.350000000003201, -0.5028234482008732 
4.360000000003177, -0.5024808770302458 
4.370000000003154, -0.5020966692299009 
4.380000000003131, -0.5016807811460271 
4.390000000003107, -0.5012464709923542 
4.400000000003084, -0.5008072869062791 
4.410000000003061, -0.500373790523269 
4.4200000000030375, -0.4999516094913411 
4.430000000003014, -0.4995415519216926 
4.440000000002991, -0.49914131018254826 
4.450000000002968, -0.498747640675585 
4.460000000002944, -0.49835808740239473 
4.470000000002921, -0.4979719321130732 
4.480000000002898, -0.49759058068121725 
4.490000000002874, -0.49721779257505555 
4.500000000002851, -0.49686009747990195 
4.510000000002828, -0.49652758870744274 
4.520000000002804, -0.496235129379043 
4.530000000002781, -0.4960038347309915 
4.540000000002758, -0.49586240707747964 
4.5500000000027345, -0.4958473809487094 
4.560000000002711, -0.49600055460401327 
4.570000000002688, -0.49636119366687453 
4.580000000002665, -0.4969512391321502 
4.590000000002641, -0.497755900055522 
4.600000000002618, -0.49871017624223046 
4.610000000002595, -0.499707149047029 
4.620000000002571, -0.5006330637023104 
4.630000000002548, -0.5014089561347974 
4.640000000002525, -0.5020087795448952 
4.6500000000025015, -0.5024469609603879 
4.660000000002478, -0.5027542253195728 
4.670000000002455, -0.5029603482559343 
4.6800000000024315, -0.5030878646509988 
4.690000000002408, -0.5031521577449654 
4.700000000002385, -0.5031633309772808 
4.710000000002362, -0.5031277973900931 
4.720000000002338, -0.5030492074018056 
4.730000000002315, -0.5029289346225269 
4.740000000002292, -0.5027664360707393 
4.750000000002268, -0.5025597780939356 
4.760000000002245, -0.5023065733970443 
4.770000000002222, -0.5020054501006528 
4.7800000000021985, -0.5016578710581585 
4.790000000002175, -0.5012696601850342 
4.800000000002152, -0.5008512774448886 
4.810000000002129, -0.5004161966864256 
4.820000000002105, -0.49997777646332897 
4.830000000002082, -0.4995460607637699 
4.840000000002059, -0.49912605416125944 
4.850000000002035, -0.49871806427560683 
4.860000000002012, -0.49831952433577953 
4.870000000001989, -0.49792716293730266 
4.880000000001965, -0.49753864571004974 
4.890000000001942, -0.497153442882088 
4.900000000001919, -0.4967731725535295 
4.9100000000018955, -0.4964018303734548 
