t, s[1].omega / s[0].omega 
0, -0.6699977026979488 
0.009999999999999995, -0.6697572530685445 
0.019999999999999934, -0.6694928390446221 
0.029999999999999874, -0.6691979011824021 
0.04000000000000012, -0.6688658857254125 
0.050000000000000405, -0.6684939616717017 
0.06000000000000069, -0.6680850316447301 
0.07000000000000098, -0.6676481295330423 
0.08000000000000126, -0.6671984081024075 
0.09000000000000155, -0.6667579121609843 
0.10000000000000184, -0.6663577079856512 
0.11000000000000212, -0.6660412932670152 
0.12000000000000241, -0.6658687236314335 
0.130000000000002, -0.6659204700168918 
0.1400000000000009, -0.6662995504414861 
0.1499999999999998, -0.667129877494286 
0.1599999999999987, -0.6685479317271884 
0.1699999999999976, -0.6706838410018916 
0.1799999999999965, -0.6736275936249403 
0.1899999999999954, -0.677379475786864 
0.1999999999999943, -0.6817960867639534 
0.2099999999999932, -0.6865648964134105 
0.2199999999999921, -0.691251525072809 
0.229999999999991, -0.6954279892851736 
0.2399999999999899, -0.6988138694328031 
0.2499999999999888, -0.7013351968183124 
0.2599999999999877, -0.7030789263563936 
0.2699999999999866, -0.7042033225130507 
0.2799999999999855, -0.7048672831015755 
0.2899999999999844, -0.7051971608275283 
0.2999999999999833, -0.7052798148215806 
0.3099999999999822, -0.7051665229875292 
0.3199999999999811, -0.7048783461690934 
0.32999999999998, -0.7044089094809036 
0.3399999999999789, -0.7037232656276003 
0.3499999999999778, -0.7027526817290503 
0.35999999999997667, -0.7013865142178162 
0.36999999999997557, -0.6994657306109866 
0.37999999999997447, -0.6967899799778492 
0.38999999999997337, -0.6931595855218935 
0.39999999999997227, -0.6884709717340701 
0.40999999999997117, -0.6828425337339313 
0.41999999999997006, -0.6766774220469626 
0.42999999999996896, -0.6705680837496446 
0.43999999999996786, -0.6650794700466072 
0.44999999999996676, -0.6605670249519477 
0.45999999999996566, -0.6571322053285936 
0.46999999999996456, -0.6546873005162002 
0.47999999999996346, -0.6530500327333415 
0.48999999999996235, -0.6520172582479777 
0.49999999999996125, -0.6514062410381294 
0.5099999999999602, -0.6510707417939688 
0.519999999999959, -0.650902288265075 
0.529999999999958, -0.6508244874304536 
0.5399999999999568, -0.6507851728527286 
0.5499999999999557, -0.6507489438164415 
0.5599999999999546, -0.6506913022853023 
0.5699999999999535, -0.6505948796205248 
0.5799999999999524, -0.650447846372682 
0.5899999999999513, -0.6502441623560852 
0.5999999999999502, -0.6499846350787426 
0.6099999999999491, -0.6496770890840751 
0.619999999999948, -0.6493341498383638 
0.6299999999999469, -0.6489687416967688 
0.6399999999999458, -0.64858942556329 
0.6499999999999447, -0.6481982480048666 
0.6599999999999436, -0.6477921711288785 
0.6699999999999425, -0.6473668424813805 
0.6799999999999414, -0.6469204120955958 
0.6899999999999403, -0.6464558831370217 
0.6999999999999392, -0.6459820296882877 
0.7099999999999381, -0.645513881957013 
0.719999999999937, -0.6450737725810404 
0.7299999999999359, -0.6446934111374775 
0.7399999999999348, -0.644416908404837 
0.7499999999999337, -0.6443042670553505 
0.7599999999999326, -0.6444345207475727 
0.7699999999999315, -0.6449073116913849 
0.7799999999999304, -0.6458410950686381 
0.7899999999999293, -0.6473651656558125 
0.7999999999999282, -0.6496013467190914 
0.8099999999999271, -0.6526305398678941 
0.819999999999926, -0.6564429130931867 
0.8299999999999249, -0.6608839672616759 
0.8399999999999238, -0.6656318180451284 
0.8499999999999227, -0.6702509047509052 
0.8599999999999216, -0.6743255390329828 
0.8699999999999205, -0.6775976877394752 
0.8799999999999194, -0.6800148666661746 
0.8899999999999183, -0.6816760397510132 
0.8999999999999172, -0.682741471178988 
0.9099999999999161, -0.6833662777359338 
0.919999999999915, -0.6836713374916427 
0.9299999999999139, -0.6837384750432631 
0.9399999999999128, -0.6836149539138191 
0.9499999999999117, -0.6833186704254242 
0.9599999999999106, -0.6828405340872965 
0.9699999999999095, -0.6821429780991638 
0.9799999999999084, -0.6811547351671257 
0.9899999999999073, -0.6797636801938634 
0.9999999999999062, -0.677813567635761 
1.0099999999999052, -0.6751179786826683 
1.019999999999904, -0.6715113045594394 
1.029999999999903, -0.6669450385837477 
1.039999999999902, -0.6615899725059999 
1.0499999999999008, -0.6558539608882363 
1.0599999999998997, -0.6502620023781955 
1.0699999999998986, -0.6452704165223373 
1.0799999999998975, -0.6411440702140045 
1.0899999999998964, -0.6379469248633509 
1.0999999999998953, -0.6356030060161774 
1.1099999999998942, -0.6339681143740441 
1.119999999999893, -0.6328820988367069 
1.129999999999892, -0.6321978631683481 
1.1399999999998909, -0.6317934620357876 
1.1499999999998898, -0.6315742918347947 
1.1599999999998887, -0.6314703237638104 
1.1699999999998876, -0.6314313913235085 
1.1799999999998865, -0.6314222697465035 
1.1899999999998854, -0.6314185238426469 
1.1999999999998843, -0.6314036309188629 
1.2099999999998832, -0.6313675017093392 
1.219999999999882, -0.6313060458693979 
1.229999999999881, -0.6312208468464744 
1.2399999999998799, -0.6311176893561727 
1.2499999999998788, -0.6310032319804073 
1.2599999999998777, -0.6308806286030071 
1.2699999999998766, -0.6307463283563066 
1.2799999999998755, -0.6305901718832733 
1.2899999999998744, -0.6303989805537837 
1.2999999999998733, -0.6301615744301852 
1.3099999999998722, -0.6298725048460074 
1.319999999999871, -0.6295332113355299 
1.32999999999987, -0.6291513301185542 
1.3399999999998689, -0.6287398516569591 
1.3499999999998678, -0.6283175548341623 
1.3599999999998666, -0.6279114507811582 
1.3699999999998655, -0.627561468905956 
1.3799999999998644, -0.6273273306478899 
1.3899999999998633, -0.62729716006895 
1.3999999999998622, -0.6275964496109497 
1.4099999999998611, -0.6283940464560518 
1.41999999999986, -0.6298983754902788 
1.429999999999859, -0.632332402964312 
1.4399999999998578, -0.6358731461697249 
1.4499999999998567, -0.6405510581571255 
1.4599999999998556, -0.6461411672338541 
1.4699999999998545, -0.6521326639457122 
1.4799999999998534, -0.6578629787166664 
1.4899999999998523, -0.6627726523469268 
1.4999999999998512, -0.6665947019165399 
1.5099999999998501, -0.6693526811361487 
1.519999999999849, -0.6712314526588246 
1.529999999999848, -0.6724503863555971 
1.5399999999998468, -0.6731965067301865 
1.5499999999998457, -0.6736064196012252 
1.5599999999998446, -0.6737704564513475 
1.5699999999998435, -0.6737420380350326 
1.5799999999998424, -0.6735453071189523 
1.5899999999998413, -0.6731791905275278 
1.5999999999998402, -0.6726180062809171 
1.6099999999998391, -0.6718097585707772 
1.619999999999838, -0.6706748782086047 
1.629999999999837, -0.669111152874616 
1.6399999999998358, -0.6670137561367223 
1.6499999999998347, -0.6643169519334897 
1.6599999999998336, -0.6610480737643796 
1.6699999999998325, -0.6573598894309918 
1.6799999999998314, -0.653505734580833 
1.6899999999998303, -0.649763269820094 
1.6999999999998292, -0.6463562909303835 
1.709999999999828, -0.6434171284794571 
1.719999999999827, -0.6409919074008348 
1.729999999999826, -0.6390663718486389 
1.7399999999998248, -0.6375924285498845 
1.7499999999998237, -0.6365072843419484 
1.7599999999998226, -0.6357449939524894 
1.7699999999998215, -0.6352428014584498 
1.7799999999998204, -0.6349444513252644 
1.7899999999998193, -0.6348017734906461 
1.7999999999998182, -0.6347751931294631 
1.809999999999817, -0.6348335237880848 
1.819999999999816, -0.6349533342497674 
1.8299999999998149, -0.63511814603345 
1.8399999999998138, -0.6353175726087203 
1.8499999999998127, -0.6355462016035867 
1.8599999999998116, -0.635801678542953 
1.8699999999998105, -0.6360814479012997 
1.8799999999998094, -0.6363783572836386 
1.8899999999998083, -0.6366767301854652 
1.8999999999998072, -0.6369515203775602 
1.909999999999806, -0.637172316896214 
1.919999999999805, -0.6373110145974784 
1.9299999999998039, -0.6373490907647905 
1.9399999999998028, -0.6372806108914484 
1.9499999999998017, -0.6371103414954504 
1.9599999999998006, -0.6368494270109823 
1.9699999999997995, -0.6365116294944747 
1.9799999999997984, -0.6361118761005384 
1.9899999999997973, -0.6356676362378557 
1.9999999999997962, -0.6352032535656303 
2.0099999999998173, -0.6347575197325798 
2.0199999999998384, -0.6343948567045069 
2.0299999999998595, -0.6342196826919179 
2.0399999999998806, -0.6343907548283383 
2.0499999999999017, -0.635126157136161 
2.059999999999923, -0.636680280484883 
2.069999999999944, -0.6392687783800377 
2.079999999999965, -0.6429373234327522 
2.089999999999986, -0.6474365064586223 
2.100000000000007, -0.6522336620514424 
2.1100000000000283, -0.656724213272342 
2.1200000000000494, -0.6604929151574708 
2.1300000000000705, -0.6634103281264352 
2.1400000000000916, -0.6655493452657559 
2.1500000000001127, -0.6670598232988963 
2.160000000000134, -0.6680912452401505 
2.170000000000155, -0.6687649175246233 
2.180000000000176, -0.6691704666554564 
2.190000000000197, -0.6693697954824871 
2.2000000000002182, -0.6694017794398838 
2.2100000000002393, -0.6692857003288989 
2.2200000000002604, -0.6690230320047643 
2.2300000000002815, -0.6685978605753131 
2.2400000000003026, -0.6679769446637136 
2.2500000000003237, -0.6671116297906808 
2.260000000000345, -0.665945314041778 
2.270000000000366, -0.6644302553811015 
2.280000000000387, -0.6625529893527583 
2.290000000000408, -0.6603576714409336 
2.3000000000004293, -0.6579497703094479 
2.3100000000004504, -0.6554718035034639 
2.3200000000004715, -0.6530642407646823 
2.3300000000004926, -0.6508348448465784 
2.3400000000005137, -0.6488485742492707 
2.3500000000005348, -0.647133822562947 
2.360000000000556, -0.6456946053193762 
2.370000000000577, -0.6445213436465385 
2.380000000000598, -0.6435978039996935 
2.390000000000619, -0.6429046937613959 
2.4000000000006403, -0.6424212888004346 
2.4100000000006614, -0.6421262829130422 
2.4200000000006825, -0.6419985531235214 
2.4300000000007036, -0.6420180790248202 
2.4400000000007247, -0.6421669547330479 
2.450000000000746, -0.6424302887448867 
2.460000000000767, -0.6427967289003078 
2.470000000000788, -0.6432582754672831 
2.480000000000809, -0.6438089109933086 
2.49000000000083, -0.6444415210180507 
2.5000000000008513, -0.6451429857842684 
2.5100000000008724, -0.6458885749521878 
2.5200000000008935, -0.6466386029205726 
2.5300000000009146, -0.6473411190399664 
2.5400000000009357, -0.6479420301789094 
2.550000000000957, -0.6483987075296305 
2.560000000000978, -0.6486894997467368 
2.570000000000999, -0.6488142205876841 
2.58000000000102, -0.6487872021632112 
2.5900000000010412, -0.6486283094587251 
2.6000000000010624, -0.648356207973743 
2.6100000000010835, -0.6479852403690508 
2.6200000000011046, -0.6475254739660039 
2.6300000000011257, -0.6469852829181328 
2.6400000000011468, -0.6463764060350018 
2.650000000001168, -0.6457219433956669 
2.660000000001189, -0.6450674651587784 
2.67000000000121, -0.6444931997745618 
2.680000000001231, -0.6441198026181028 
2.6900000000012523, -0.6440923027296838 
2.7000000000012734, -0.6445259383667304 
2.7100000000012945, -0.6454246772176125 
2.7200000000013156, -0.6466396595793823 
2.7300000000013367, -0.6479419848818135 
2.740000000001358, -0.6491622456254971 
2.750000000001379, -0.6502491105501864 
2.7600000000014, -0.6512132257151457 
2.770000000001421, -0.6520611337797355 
2.780000000001442, -0.6527817347553881 
2.7900000000014633, -0.6533615299150861 
2.8000000000014844, -0.6537961732836373 
2.8100000000015055, -0.6540911119874963 
2.8200000000015266, -0.6542566553331577 
2.8300000000015477, -0.6543024715684599 
2.840000000001569, -0.6542333975768071 
2.85000000000159, -0.6540466574722548 
2.860000000001611, -0.6537302567983885 
2.870000000001632, -0.6532628312223959 
2.8800000000016532, -0.6526160948263928 
2.8900000000016743, -0.6517615858939666 
2.9000000000016954, -0.6506823848237486 
2.9100000000017165, -0.6493867820418364 
2.9200000000017377, -0.647916267885005 
2.9300000000017588, -0.646340429414862 
2.94000000000178, -0.6447395554622876 
2.950000000001801, -0.6431849763899284 
2.960000000001822, -0.6417274804054135 
2.970000000001843, -0.6403964804359786 
2.9800000000018643, -0.639205873066975 
2.9900000000018854, -0.6381612878360059 
3.0000000000019065, -0.6372656063488797 
3.0100000000019276, -0.6365219995272684 
3.0200000000019487, -0.635934977383841 
3.03000000000197, -0.6355102510386789 
3.040000000001991, -0.6352540988762866 
3.050000000002012, -0.6351727323918472 
3.060000000002033, -0.635271960556778 
3.070000000002054, -0.6355572377335148 
3.0800000000020753, -0.6360339246745454 
3.0900000000020964, -0.6367072885577604 
3.1000000000021175, -0.6375814341785321 
3.1100000000021386, -0.6386560963911484 
3.1200000000021597, -0.6399203628977026 
3.130000000002181, -0.6413435859232441 
3.140000000002202, -0.6428665617616829 
3.150000000002223, -0.6443996224991111 
3.160000000002244, -0.6458346766343973 
3.1700000000022652, -0.6470708574177276 
3.1800000000022863, -0.6480413991629905 
3.1900000000023074, -0.6487256829753534 
3.2000000000023285, -0.6491415385610793 
3.2100000000023496, -0.6493267551819353 
3.2200000000023707, -0.6493216499915643 
3.230000000002392, -0.6491583273535217 
3.240000000002413, -0.6488560759095499 
3.250000000002434, -0.6484201217051332 
3.260000000002455, -0.6478413646358504 
3.2700000000024763, -0.6470957501176698 
3.2800000000024974, -0.6461426558358301 
3.2900000000025185, -0.6449219973667384 
3.3000000000025396, -0.6433500185136161 
3.3100000000025607, -0.6413152263863412 
3.3200000000025818, -0.6386820515754098 
3.330000000002603, -0.635323539038513 
3.340000000002624, -0.6312113036556114 
3.350000000002645, -0.6265431773796616 
3.360000000002666, -0.6217838945943168 
3.3700000000026873, -0.6175021410506315 
3.3800000000027084, -0.6141069449282166 
3.3900000000027295, -0.6117128539765386 
3.4000000000027506, -0.6101971205221522 
3.4100000000027717, -0.6093341903744286 
3.420000000002793, -0.6088995275783782 
3.430000000002814, -0.6087160299996469 
3.440000000002835, -0.6086610090962731 
3.450000000002856, -0.6086560717452535 
3.460000000002877, -0.6086533327724901 
3.4700000000028983, -0.6086235275834622 
3.4800000000029194, -0.608547446405263 
3.4900000000029405, -0.6084105781987791 
3.5000000000029616, -0.6082006055646487 
3.5100000000029827, -0.6079075259949707 
3.520000000003004, -0.6075260450671044 
3.530000000003025, -0.6070590941019746 
3.540000000003046, -0.6065201602879016 
3.550000000003067, -0.6059319021236086 
3.5600000000030882, -0.6053204903691041 
3.5700000000031094, -0.6047082664130692 
3.5800000000031305, -0.6041087143737618 
3.5900000000031516, -0.6035260187520919 
3.6000000000031727, -0.602958443969795 
3.6100000000031938, -0.6024030147020891 
3.620000000003215, -0.6018593162266388 
3.630000000003236, -0.6013317081601484 
3.640000000003257, -0.600830490203988 
3.650000000003278, -0.6003729439313961 
3.6600000000032993, -0.5999849151213659 
3.6700000000033204, -0.5997031681731768 
3.6800000000033415, -0.5995783954390725 
3.6900000000033626, -0.5996784959326094 
3.7000000000033837, -0.6000914070528018 
3.710000000003405, -0.6009261590849149 
3.720000000003426, -0.6023096371545693 
3.730000000003447, -0.6043745881826921 
3.740000000003468, -0.6072323197397245 
3.750000000003489, -0.6109243758623781 
3.7600000000035103, -0.6153581682452335 
3.7700000000035314, -0.6202576038680869 
3.7800000000035525, -0.6251851396843005 
3.7900000000035736, -0.62966719211203 
3.8000000000035947, -0.633362639800362 
3.810000000003616, -0.636154388936781 
3.820000000003637, -0.6381148769454069 
3.830000000003658, -0.6394074483593595 
3.840000000003679, -0.6402031668567487 
3.8500000000037002, -0.6406405514306472 
3.8600000000037213, -0.6408166239430645 
3.8700000000037424, -0.6407912221061214 
3.8800000000037635, -0.6405935416429566 
3.8900000000037847, -0.640226413864462 
3.9000000000038058, -0.6396671679852176 
3.910000000003827, -0.6388654825664829 
3.920000000003848, -0.6377402069478608 
3.930000000003869, -0.6361801725010752 
3.94000000000389, -0.6340586267190649 
3.9500000000039113, -0.6312727534811441 
3.9600000000039324, -0.6278077815758254 
3.9700000000039535, -0.623794207215597 
3.9800000000039746, -0.6195052424020573 
3.9900000000039957, -0.6152762200938465 
4.000000000004016, -0.6113969997115846 
4.010000000003993, -0.6080463836012355 
4.02000000000397, -0.6052886494858367 
4.030000000003946, -0.6031062205339243 
4.040000000003923, -0.6014373315440472 
4.0500000000039, -0.6002036671866003 
4.0600000000038765, -0.5993263337324853 
4.070000000003853, -0.5987335671836277 
4.08000000000383, -0.5983637477917532 
4.090000000003807, -0.5981660639133696 
4.100000000003783, -0.5981000775802832 
4.11000000000376, -0.5981348119753835 
4.120000000003737, -0.5982476913981478 
4.130000000003713, -0.5984235205823261 
4.14000000000369, -0.5986535269447849 
4.150000000003667, -0.5989342143803118 
4.1600000000036434, -0.599265443307487 
4.17000000000362, -0.5996470432868959 
4.180000000003597, -0.600073823942016 
4.1900000000035735, -0.6005302588085649 
4.20000000000355, -0.6009877074194123 
4.210000000003527, -0.6014071926619946 
4.220000000003504, -0.6017480857530038 
4.23000000000348, -0.6019787388787097 
4.240000000003457, -0.6020831739877341 
4.250000000003434, -0.6020608379788681 
4.26000000000341, -0.6019212629774859 
4.270000000003387, -0.6016776641663137 
4.280000000003364, -0.6013423685237823 
4.2900000000033405, -0.6009249212062928 
4.300000000003317, -0.6004325926286068 
4.310000000003294, -0.5998729226392835 
4.320000000003271, -0.5992582435958336 
4.330000000003247, -0.5986121243625298 
4.340000000003224, -0.5979765766724741 
4.350000000003201, -0.5974156443714557 
4.360000000003177, -0.5970055079938419 
4.370000000003154, -0.5967985682896562 
4.380000000003131, -0.5967651142536445 
4.390000000003107, -0.596763337252125 
4.400000000003084, -0.5966147130325375 
4.410000000003061, -0.5962585521851482 
4.4200000000030375, -0.5958117222877949 
4.430000000003014, -0.5954540824055029 
4.440000000002991, -0.5952883392390471 
4.450000000002968, -0.5953086512074311 
4.460000000002944, -0.5954494884532315 
4.470000000002921, -0.5956379907692029 
4.480000000002898, -0.5958190284652114 
4.490000000002874, -0.5959586866078114 
4.500000000002851, -0.5960386590206845 
4.510000000002828, -0.5960491827176555 
4.520000000002804, -0.5959833775396919 
4.530000000002781, -0.5958335584553949 
4.540000000002758, -0.5955895079734634 
4.5500000000027345, -0.5952388765207262 
4.560000000002711, -0.5947700916018206 
4.570000000002688, -0.594177710906455 
4.580000000002665, -0.5934686043291483 
4.590000000002641, -0.5926654361526348 
4.600000000002618, -0.5918039692497264 
4.610000000002595, -0.5909242619027959 
4.620000000002571, -0.5900603488127654 
4.630000000002548, -0.5892339281248298 
4.640000000002525, -0.5884542268537966 
4.6500000000025015, -0.5877222819505832 
4.660000000002478, -0.5870364171148383 
4.670000000002455, -0.5863966358022298 
4.6800000000024315, -0.5858073251827733 
4.690000000002408, -0.5852787840805674 
4.700000000002385, -0.5848283519326998 
4.710000000002362, -0.5844816681432052 
4.720000000002338, -0.5842742441165883 
4.730000000002315, -0.5842532737667515 
4.740000000002292, -0.5844794219822316 
4.750000000002268, -0.5850280760189686 
4.760000000002245, -0.5859890103665064 
4.770000000002222, -0.5874623539819116 
4.7800000000021985, -0.5895470775157239 
4.790000000002175, -0.5923166834725115 
4.800000000002152, -0.5957782837603406 
4.810000000002129, -0.5998214845541258 
4.820000000002105, -0.6041853568754234 
4.830000000002082, -0.6084887294033205 
4.840000000002059, -0.6123415729756628 
4.850000000002035, -0.6154795239667101 
4.860000000002012, -0.617826756067678 
4.870000000001989, -0.6194583886092668 
4.880000000001965, -0.6205176928795193 
4.890000000001942, -0.6211496747678122 
4.900000000001919, -0.6214698086610263 
4.9100000000018955, -0.6215574162978129 
4.920000000001872, -0.621459166332899 
