t, s[1].omega / s[0].omega 
0, -0.5399977452228444 
0.009999999999999995, -0.5397793827790128 
0.019999999999999934, -0.5395702657469215 
0.029999999999999874, -0.5393579814765552 
0.04000000000000012, -0.53912749903969 
0.050000000000000405, -0.5388662891009673 
0.06000000000000069, -0.5385673404594659 
0.07000000000000098, -0.5382295929939367 
0.08000000000000126, -0.537856893346665 
0.09000000000000155, -0.5374569987646779 
0.10000000000000184, -0.5370417183276702 
0.11000000000000212, -0.5366287465023446 
0.12000000000000241, -0.5362454820513556 
0.130000000000002, -0.5359350209369034 
0.1400000000000009, -0.5357641485890547 
0.1499999999999998, -0.535831833533516 
0.1599999999999987, -0.536273383515468 
0.1699999999999976, -0.5372492493191336 
0.1799999999999965, -0.5389010180830297 
0.1899999999999954, -0.5412634610802949 
0.1999999999999943, -0.5441641471338641 
0.2099999999999932, -0.5472114523977115 
0.2199999999999921, -0.5499558888962042 
0.229999999999991, -0.5521234933705154 
0.2399999999999899, -0.5536981230273961 
0.2499999999999888, -0.5548131105212308 
0.2599999999999877, -0.555614104239557 
0.2699999999999866, -0.5562006214851896 
0.2799999999999855, -0.5566288780501377 
0.2899999999999844, -0.5569300638695992 
0.2999999999999833, -0.5571232427709717 
0.3099999999999822, -0.5572210412675077 
0.3199999999999811, -0.5572312643666772 
0.32999999999998, -0.5571569519748122 
0.3399999999999789, -0.5569961915853714 
0.3499999999999778, -0.5567424404025973 
0.35999999999997667, -0.5563860491688941 
0.36999999999997557, -0.555917665693378 
0.37999999999997447, -0.5553336307834684 
0.38999999999997337, -0.5546419468965095 
0.39999999999997227, -0.5538655655700728 
0.40999999999997117, -0.553039741428206 
0.41999999999997006, -0.5522034949775887 
0.42999999999996896, -0.5513895252734483 
0.43999999999996786, -0.5506179110828378 
0.44999999999996676, -0.5498958335478478 
0.45999999999996566, -0.5492217431859113 
0.46999999999996456, -0.5485908511618197 
0.47999999999996346, -0.5479996107494329 
0.48999999999996235, -0.5474484751207936 
0.49999999999996125, -0.5469434142545467 
0.5099999999999602, -0.5464970594809555 
0.519999999999959, -0.5461301778099389 
0.529999999999958, -0.5458738563633733 
0.5399999999999568, -0.5457725066395706 
0.5499999999999557, -0.5458875606649125 
0.5599999999999546, -0.5463013588528232 
0.5699999999999535, -0.5471199373862576 
0.5799999999999524, -0.5484718160733743 
0.5899999999999513, -0.5504971745257898 
0.5999999999999502, -0.5533187584985793 
0.6099999999999491, -0.5569866422096207 
0.619999999999948, -0.5614030885636633 
0.6299999999999469, -0.5662678598439778 
0.6399999999999458, -0.571113325699202 
0.6499999999999447, -0.5754570385559522 
0.6599999999999436, -0.57898269167379 
0.6699999999999425, -0.5816135018997387 
0.6799999999999414, -0.5834512969023282 
0.6899999999999403, -0.5846684835606182 
0.6999999999999392, -0.5854312364420279 
0.7099999999999381, -0.585868648391081 
0.719999999999937, -0.5860696179353942 
0.7299999999999359, -0.5860894751852611 
0.7399999999999348, -0.5859572553127331 
0.7499999999999337, -0.5856806857468217 
0.7599999999999326, -0.5852487256418194 
0.7699999999999315, -0.5846327571357601 
0.7799999999999304, -0.583788664336896 
0.7899999999999293, -0.5826634347258302 
0.7999999999999282, -0.5812103982951282 
0.8099999999999271, -0.5794136645234766 
0.819999999999926, -0.5773127294948782 
0.8299999999999249, -0.5750093112081364 
0.8399999999999238, -0.5726448367230688 
0.8499999999999227, -0.5703594210922961 
0.8599999999999216, -0.5682576855390672 
0.8699999999999205, -0.5663971007820139 
0.8799999999999194, -0.5647955682226162 
0.8899999999999183, -0.5634464007197282 
0.8999999999999172, -0.5623317699054717 
0.9099999999999161, -0.5614314658574935 
0.919999999999915, -0.5607273953676434 
0.9299999999999139, -0.5602053419912851 
0.9399999999999128, -0.5598553560132887 
0.9499999999999117, -0.5596716638933197 
0.9599999999999106, -0.5596525666457332 
0.9699999999999095, -0.5598005009283159 
0.9799999999999084, -0.5601222133832591 
0.9899999999999073, -0.5606287677270709 
0.9999999999999062, -0.5613347912607329 
1.0099999999999052, -0.5622559557103745 
1.019999999999904, -0.5634033425877842 
1.029999999999903, -0.5647736181275629 
1.039999999999902, -0.5663358432313284 
1.0499999999999008, -0.5680199749724781 
1.0599999999998997, -0.5697167542109425 
1.0699999999998986, -0.5712973051131249 
1.0799999999998975, -0.5726481635125372 
1.0899999999998964, -0.5737022464356855 
1.0999999999998953, -0.5744471937792962 
1.1099999999998942, -0.5749108398504728 
1.119999999999893, -0.5751382259970104 
1.129999999999892, -0.5751731380962979 
1.1399999999998909, -0.5750480018743335 
1.1499999999998898, -0.57477980071802 
1.1599999999998887, -0.5743683760341374 
1.1699999999998876, -0.5737943757902207 
1.1799999999998865, -0.5730152327413375 
1.1899999999998854, -0.5719585641231599 
1.1999999999998843, -0.570514192162807 
1.2099999999998832, -0.5685304206347206 
1.219999999999882, -0.565828687769416 
1.229999999999881, -0.5622581892836916 
1.2399999999998799, -0.5577976883470983 
1.2499999999998788, -0.5526548530663369 
1.2599999999998777, -0.5472611290098736 
1.2699999999998766, -0.5421221177993034 
1.2799999999998755, -0.5376287953027399 
1.2899999999998744, -0.5339652420684182 
1.2999999999998733, -0.5311342712922629 
1.3099999999998722, -0.5290340270064436 
1.319999999999871, -0.5275259135659212 
1.32999999999987, -0.5264747030468112 
1.3399999999998689, -0.5257656311229213 
1.3499999999998678, -0.5253083241617501 
1.3599999999998666, -0.525034853819567 
1.3699999999998655, -0.5248959133140969 
1.3799999999998644, -0.524856937343484 
1.3899999999998633, -0.5248948667385093 
1.3999999999998622, -0.5249957442863862 
1.4099999999998611, -0.5251530626139324 
1.41999999999986, -0.5253665454180828 
1.429999999999859, -0.5256407403391983 
1.4399999999998578, -0.5259825350198375 
1.4499999999998567, -0.5263968057876479 
1.4599999999998556, -0.5268802777655386 
1.4699999999998545, -0.5274153781292628 
1.4799999999998534, -0.527967587279534 
1.4899999999998523, -0.528489701391863 
1.4999999999998512, -0.5289329677120584 
1.5099999999998501, -0.5292598771236461 
1.519999999999849, -0.5294515533284875 
1.529999999999848, -0.5295066980604652 
1.5399999999998468, -0.5294347619376149 
1.5499999999998457, -0.529248061330139 
1.5599999999998446, -0.5289557700904365 
1.5699999999998435, -0.5285601713763455 
1.5799999999998424, -0.5280541604033973 
1.5899999999998413, -0.5274186488350804 
1.5999999999998402, -0.5266185166380801 
1.6099999999998391, -0.525595701220279 
1.619999999999838, -0.5242582802588289 
1.629999999999837, -0.5224669044626441 
1.6399999999998358, -0.5200290325993004 
1.6499999999998347, -0.5167299322814294 
1.6599999999998336, -0.5124388294384861 
1.6699999999998325, -0.5072729888468402 
1.6799999999998314, -0.5016782142835037 
1.6899999999998303, -0.496281064715754 
1.6999999999998292, -0.49160486408296206 
1.709999999999828, -0.48789529996560005 
1.719999999999827, -0.4851422540446905 
1.729999999999826, -0.4831957851516422 
1.7399999999998248, -0.4818683127287954 
1.7499999999998237, -0.4809895571103354 
1.7599999999998226, -0.48042510365836416 
1.7699999999998215, -0.4800765590263514 
1.7799999999998204, -0.47987515571423245 
1.7899999999998193, -0.47977445045298844 
1.7999999999998182, -0.47974419833086424 
1.809999999999817, -0.47976589319898083 
1.819999999999816, -0.4798298681875831 
1.8299999999998149, -0.47993361702452 
1.8399999999998138, -0.48008079380923674 
1.8499999999998127, -0.4802800659435782 
1.8599999999998116, -0.48054276370199334 
1.8699999999998105, -0.4808784512886026 
1.8799999999998094, -0.48128851033172093 
1.8899999999998083, -0.48175956103067846 
1.8999999999998072, -0.4822602566965637 
1.909999999999806, -0.48274497948767936 
1.919999999999805, -0.48316468429986037 
1.9299999999998039, -0.48347994205334255 
1.9399999999998028, -0.48366904606809824 
1.9499999999998017, -0.4837277341148855 
1.9599999999998006, -0.483662818086819 
1.9699999999997995, -0.4834843321563918 
1.9799999999997984, -0.4831992026746003 
1.9899999999997973, -0.48280689090619794 
1.9999999999997962, -0.4822959512231904 
2.0099999999998173, -0.48163999289212683 
2.0199999999998384, -0.4807915208632546 
2.0299999999998595, -0.47967243210817323 
2.0399999999998806, -0.47816157096317574 
2.0499999999999017, -0.4760855115984959 
2.059999999999923, -0.4732319462087293 
2.069999999999944, -0.46941906143899076 
2.079999999999965, -0.46463337311544917 
2.089999999999986, -0.45915638102027245 
2.100000000000007, -0.45352769510189417 
2.1100000000000283, -0.44831910652039814 
2.1200000000000494, -0.4439073635515339 
2.1300000000000705, -0.4404111138644048 
2.1400000000000916, -0.43776514929458354 
2.1500000000001127, -0.4358233183056031 
2.160000000000134, -0.43442879465451123 
2.170000000000155, -0.4334463206728497 
2.180000000000176, -0.4327708569526957 
2.190000000000197, -0.43232570438630463 
2.2000000000002182, -0.43205744233544124 
2.2100000000002393, -0.43193088573554766 
2.2200000000002604, -0.4319251381578752 
2.2300000000002815, -0.4320309099023862 
2.2400000000003026, -0.432248904804654 
2.2500000000003237, -0.43258885613004655 
2.260000000000345, -0.43306849617307747 
2.270000000000366, -0.4337113059768235 
2.280000000000387, -0.43454144480959594 
2.290000000000408, -0.4355742905712575 
2.3000000000004293, -0.4368025077976768 
2.3100000000004504, -0.4381815505768095 
2.3200000000004715, -0.43962401155597497 
2.3300000000004926, -0.4410132305820479 
2.3400000000005137, -0.44223571997636624 
2.3500000000005348, -0.4432148166602389 
2.360000000000556, -0.4439246584255058 
2.370000000000577, -0.44438039472811897 
2.380000000000598, -0.44461733514147134 
2.390000000000619, -0.4446726279022202 
2.4000000000006403, -0.444574482745569 
2.4100000000006614, -0.44433737194554385 
2.4200000000006825, -0.44395996152443074 
2.4300000000007036, -0.44342343965870423 
2.4400000000007247, -0.4426894964856124 
2.450000000000746, -0.4416991960814481 
2.460000000000767, -0.4403768161379916 
2.470000000000788, -0.43864575368592584 
2.480000000000809, -0.4364623232188559 
2.49000000000083, -0.4338600307657597 
2.5000000000008513, -0.4309745388109059 
2.5100000000008724, -0.42801689591020436 
2.5200000000008935, -0.4252023203404446 
2.5300000000009146, -0.4226839335997001 
2.5400000000009357, -0.4205301609332269 
2.550000000000957, -0.41874157792126987 
2.560000000000978, -0.41728132779312765 
2.570000000000999, -0.41610038608558525 
2.58000000000102, -0.41515251000721365 
2.5900000000010412, -0.4144009763439785 
2.6000000000010624, -0.41382067110583953 
2.6100000000010835, -0.41339825286647924 
2.6200000000011046, -0.4131319959051626 
2.6300000000011257, -0.4130321388674864 
2.6400000000011468, -0.41312212351773275 
2.650000000001168, -0.4134408352412155 
2.660000000001189, -0.41404562341606466 
2.67000000000121, -0.41501517080621236 
2.680000000001231, -0.41644973993204426 
2.6900000000012523, -0.41846348344500717 
2.7000000000012734, -0.4211598072597801 
2.7100000000012945, -0.424580263635577 
2.7200000000013156, -0.4286309242718217 
2.7300000000013367, -0.43302713262144527 
2.740000000001358, -0.4373308158630974 
2.750000000001379, -0.44110712787738837 
2.7600000000014, -0.44409830871799433 
2.770000000001421, -0.4462758126754268 
2.780000000001442, -0.4477630931421207 
2.7900000000014633, -0.44872912942527743 
2.8000000000014844, -0.4493233989255311 
2.8100000000015055, -0.4496556331747157 
2.8200000000015266, -0.44979832564205424 
2.8300000000015477, -0.4497953336415099 
2.840000000001569, -0.44966967333383756 
2.85000000000159, -0.4494291135034783 
2.860000000001611, -0.44907032202253266 
2.870000000001632, -0.448583055394517 
2.8800000000016532, -0.4479559967175996 
2.8900000000016743, -0.44718503929234343 
2.9000000000016954, -0.4462824620693288 
2.9100000000017165, -0.4452823179301527 
2.9200000000017377, -0.4442368282347829 
2.9300000000017588, -0.44320350213752163 
2.94000000000178, -0.4422296765157251 
2.950000000001801, -0.4413428200363681 
2.960000000001822, -0.44054988779724547 
2.970000000001843, -0.43984319335423294 
2.9800000000018643, -0.43920825835373156 
2.9900000000018854, -0.4386303353527151 
3.0000000000019065, -0.4380984146250152 
3.0100000000019276, -0.4376071030767218 
3.0200000000019487, -0.43715745059851363 
3.03000000000197, -0.43675780590713115 
3.040000000001991, -0.4364255104464868 
3.050000000002012, -0.43618998397046826 
3.060000000002033, -0.436097575061343 
3.070000000002054, -0.43621824352059313 
3.0800000000020753, -0.4366531990426017 
3.0900000000020964, -0.4375400565638593 
3.1000000000021175, -0.43904648517224915 
3.1100000000021386, -0.44133472111670596 
3.1200000000021597, -0.44447593149860937 
3.130000000002181, -0.44832190497272545 
3.140000000002202, -0.45242646875481957 
3.150000000002223, -0.4561701236850494 
3.160000000002244, -0.4590806009344729 
3.1700000000022652, -0.46105796046191516 
3.1800000000022863, -0.462295744528315 
3.1900000000023074, -0.46305899391449656 
3.2000000000023285, -0.4635472085888422 
3.2100000000023496, -0.463874465551965 
3.2200000000023707, -0.46409724664138297 
3.230000000002392, -0.46424219526163935 
3.240000000002413, -0.46432223143065354 
3.250000000002434, -0.4643438485236565 
3.260000000002455, -0.46430992935367865 
3.2700000000024763, -0.4642208470258332 
3.2800000000024974, -0.46407531455747125 
3.2900000000025185, -0.4638717731196131 
3.3000000000025396, -0.46361067405687245 
3.3100000000025607, -0.46329739360484024 
3.3200000000025818, -0.46294460559579076 
3.330000000002603, -0.46257226622845354 
3.340000000002624, -0.46220394597790104 
3.350000000002645, -0.46186032380194514 
3.360000000002666, -0.4615527719103693 
3.3700000000026873, -0.46128021861230994 
3.3800000000027084, -0.46103067790241586 
3.3900000000027295, -0.46078637066437683 
3.4000000000027506, -0.46052973866128744 
3.4100000000027717, -0.46024771004037807 
3.420000000002793, -0.45993310495921247 
3.430000000002814, -0.4595838190285496 
3.440000000002835, -0.45920121288900884 
3.450000000002856, -0.4587888894860394 
3.460000000002877, -0.4583524191537737 
3.4700000000028983, -0.45790008079213634 
3.4800000000029194, -0.45744433066943724 
3.4900000000029405, -0.4570031175379981 
3.5000000000029616, -0.45659871590785495 
3.5100000000029827, -0.45624883687507023 
3.520000000003004, -0.4559412819482313 
3.530000000003025, -0.4555863799387455 
3.540000000003046, -0.4549686619248427 
3.550000000003067, -0.4537760219424138 
3.5600000000030882, -0.45178655431592085 
3.5700000000031094, -0.44910715347562713 
3.5800000000031305, -0.4461770938342508 
3.5900000000031516, -0.4434896197927028 
3.6000000000031727, -0.44133658229268874 
3.6100000000031938, -0.4397722477886233 
3.620000000003215, -0.43871088544208126 
3.630000000003236, -0.4380249708603534 
3.640000000003257, -0.43759776077270524 
3.650000000003278, -0.43733998310129074 
3.6600000000032993, -0.4371893675789383 
3.6700000000033204, -0.437104805801805 
3.6800000000033415, -0.43706029456381534 
3.6900000000033626, -0.43704031576029223 
3.7000000000033837, -0.4370369010994673 
3.710000000003405, -0.43704815707233724 
3.720000000003426, -0.43707780456157985 
3.730000000003447, -0.43713501297410823 
3.740000000003468, -0.43723348551739366 
3.750000000003489, -0.43738868044435913 
3.7600000000035103, -0.43761263866669176 
3.7700000000035314, -0.43790724518844826 
3.7800000000035525, -0.43825843799669856 
3.7900000000035736, -0.43863488887287605 
3.8000000000035947, -0.4389936003493332 
3.810000000003616, -0.43929105524721795 
3.820000000003637, -0.43949436917272394 
3.830000000003658, -0.43958663153185507 
3.840000000003679, -0.4395649516974527 
3.8500000000037002, -0.43943416347555947 
3.8600000000037213, -0.4391999909849006 
3.8700000000037424, -0.4388635930818471 
3.8800000000037635, -0.43841734776292735 
3.8900000000037847, -0.43784067100675417 
3.9000000000038058, -0.4370943804550869 
3.910000000003827, -0.4361123227258698 
3.920000000003848, -0.43479026212136834 
3.930000000003869, -0.4329764819818413 
3.94000000000389, -0.430479113081567 
3.9500000000039113, -0.4271183859665116 
3.9600000000039324, -0.42284162458180186 
3.9700000000039535, -0.4178479501569089 
3.9800000000039746, -0.4125904423791929 
3.9900000000039957, -0.40759833925838934 
4.000000000004016, -0.40325886200394867 
4.010000000003993, -0.3997285278115019 
4.02000000000397, -0.39698173892520394 
4.030000000003946, -0.3949029398289903 
4.040000000003923, -0.39335627909731385 
4.0500000000039, -0.3922204567365397 
4.0600000000038765, -0.3913999915383144 
4.070000000003853, -0.3908252632092838 
4.08000000000383, -0.39044879322717885 
4.090000000003807, -0.39024121337747897 
4.100000000003783, -0.39018819381532877 
4.11000000000376, -0.39028863528130026 
4.120000000003737, -0.3905540284015393 
4.130000000003713, -0.39100862828745286 
4.14000000000369, -0.3916897057773641 
4.150000000003667, -0.3926463982041764 
4.1600000000036434, -0.3939344849973118 
4.17000000000362, -0.39560312605278114 
4.180000000003597, -0.3976699730758807 
4.1900000000035735, -0.40008701033706773 
4.20000000000355, -0.402713927707124 
4.210000000003527, -0.40532918945274554 
4.220000000003504, -0.4076943534456299 
4.23000000000348, -0.40963855149613304 
4.240000000003457, -0.4111026906775904 
4.250000000003434, -0.4121215191523543 
4.26000000000341, -0.4127751271913767 
4.270000000003387, -0.41314793749300927 
4.280000000003364, -0.41330814793896903 
4.2900000000033405, -0.4133023328106017 
4.300000000003317, -0.4131567936935169 
4.310000000003294, -0.412880519805067 
4.320000000003271, -0.4124679908110389 
4.330000000003247, -0.41190221541488886 
4.340000000003224, -0.4111597321352143 
4.350000000003201, -0.410219740171686 
4.360000000003177, -0.4090778905566933 
4.370000000003154, -0.40776046799251164 
4.380000000003131, -0.40632943052000564 
4.390000000003107, -0.404870604650936 
4.400000000003084, -0.40346912229691856 
4.410000000003061, -0.4021867277184671 
4.4200000000030375, -0.4010526377130807 
4.430000000003014, -0.4000680667090323 
4.440000000002991, -0.3992172305299779 
4.450000000002968, -0.3984781290223986 
4.460000000002944, -0.3978300489435824 
4.470000000002921, -0.3972576189419451 
4.480000000002898, -0.39675255638387996 
4.490000000002874, -0.39631447212933146 
4.500000000002851, -0.3959518443031601 
4.510000000002828, -0.3956839395413924 
4.520000000002804, -0.39554422276777046 
4.530000000002781, -0.39558560084348254 
4.540000000002758, -0.3958873929370085 
4.5500000000027345, -0.39656253281710085 
4.560000000002711, -0.3977599078766569 
4.570000000002688, -0.399649387096562 
4.580000000002665, -0.40236752626251004 
4.590000000002641, -0.40590521996644685 
4.600000000002618, -0.409971653631397 
4.610000000002595, -0.41397754919885205 
4.620000000002571, -0.41728259359067293 
4.630000000002548, -0.41956032505046525 
4.640000000002525, -0.4209068288348413 
4.6500000000025015, -0.4216310071825089 
4.660000000002478, -0.42201766252177364 
4.670000000002455, -0.4222411963011591 
4.6800000000024315, -0.42238470794823 
4.690000000002408, -0.42248094926140894 
4.700000000002385, -0.42254068030833547 
4.710000000002362, -0.4225665961612427 
4.720000000002338, -0.42255882601393135 
4.730000000002315, -0.422516747025617 
4.740000000002292, -0.4224396560833027 
4.750000000002268, -0.4223274999292571 
4.760000000002245, -0.42218216688061744 
4.770000000002222, -0.42200931447669365 
4.7800000000021985, -0.42182006695098273 
4.790000000002175, -0.42163130534798 
4.800000000002152, -0.4214632818637397 
4.810000000002129, -0.42133440520013005 
4.820000000002105, -0.42125482109688284 
4.830000000002082, -0.4212216067631508 
4.840000000002059, -0.4212181181872478 
4.850000000002035, -0.4212182802011844 
4.860000000002012, -0.42119407049955726 
4.870000000001989, -0.4211226017385177 
4.880000000001965, -0.42098965869009825 
