t, s[1].omega / s[0].omega 
0, -0.7099976878276457 
0.009999999999999995, -0.7097500129796145 
0.019999999999999934, -0.7094676256216689 
0.029999999999999874, -0.70914568637788 
0.04000000000000012, -0.7087801852694 
0.050000000000000405, -0.7083713325577916 
0.06000000000000069, -0.7079253750711504 
0.07000000000000098, -0.7074550498613712 
0.08000000000000126, -0.7069798319365163 
0.09000000000000155, -0.7065269517439786 
0.10000000000000184, -0.7061334000651056 
0.11000000000000212, -0.7058484010522142 
0.12000000000000241, -0.7057353490980843 
0.130000000000002, -0.7058720082850539 
0.1400000000000009, -0.7063478680142429 
0.1499999999999998, -0.7072578329373311 
0.1599999999999987, -0.7086916005820914 
0.1699999999999976, -0.7107178739220683 
0.1799999999999965, -0.7133623798304439 
0.1899999999999954, -0.7165803372866374 
0.1999999999999943, -0.7202303393287759 
0.2099999999999932, -0.7240674577592722 
0.2199999999999921, -0.7277784208967557 
0.229999999999991, -0.731062466374748 
0.2399999999999899, -0.7337202313752416 
0.2499999999999888, -0.7356947061218577 
0.2599999999999877, -0.7370455637147526 
0.2699999999999866, -0.7378893719058499 
0.2799999999999855, -0.7383474164753167 
0.2899999999999844, -0.7385180179647495 
0.2999999999999833, -0.7384685422568814 
0.3099999999999822, -0.7382367325582334 
0.3199999999999811, -0.7378340059654163 
0.32999999999998, -0.7372472308495346 
0.3399999999999789, -0.7364378428265761 
0.3499999999999778, -0.7353383644560767 
0.35999999999997667, -0.7338474883369378 
0.36999999999997557, -0.7318270313030515 
0.37999999999997447, -0.729108742325536 
0.38999999999997337, -0.7255269687330572 
0.39999999999997227, -0.720998544295246 
0.40999999999997117, -0.7156492446030711 
0.41999999999997006, -0.7099104248656023 
0.42999999999996896, -0.7044467466666723 
0.43999999999996786, -0.6998883430731279 
0.44999999999996676, -0.6965657276162787 
0.45999999999996566, -0.6944521485741699 
0.46999999999996456, -0.6932935303337773 
0.47999999999996346, -0.6927748727122867 
0.48999999999996235, -0.6926250137248163 
0.49999999999996125, -0.6926512198611576 
0.5099999999999602, -0.6927327853756008 
0.519999999999959, -0.6928005227264017 
0.529999999999958, -0.6928163770643088 
0.5399999999999568, -0.6927579351804977 
0.5499999999999557, -0.6926081105168376 
0.5599999999999546, -0.6923490526485618 
0.5699999999999535, -0.6919596621826947 
0.5799999999999524, -0.6914168752820509 
0.5899999999999513, -0.690701152164517 
0.5999999999999502, -0.6898053469152144 
0.6099999999999491, -0.6887432443121189 
0.619999999999948, -0.6875519549766212 
0.6299999999999469, -0.686284826300102 
0.6399999999999458, -0.6849981247346782 
0.6499999999999447, -0.683739136035717 
0.6599999999999436, -0.6825411212371955 
0.6699999999999425, -0.6814250138383768 
0.6799999999999414, -0.680404350237016 
0.6899999999999403, -0.6794900764932513 
0.6999999999999392, -0.678693615485868 
0.7099999999999381, -0.6780280254611273 
0.719999999999937, -0.6775077140724016 
0.7299999999999359, -0.6771472925264979 
0.7399999999999348, -0.6769601238314584 
0.7499999999999337, -0.6769570614860697 
0.7599999999999326, -0.6771457460154531 
0.7699999999999315, -0.6775305718540238 
0.7799999999999304, -0.6781130731747701 
0.7899999999999293, -0.6788920797406504 
0.7999999999999282, -0.6798626655736155 
0.8099999999999271, -0.6810128347371271 
0.819999999999926, -0.6823174467706618 
0.8299999999999249, -0.6837306314349311 
0.8399999999999238, -0.6851808936440201 
0.8499999999999227, -0.6865753080149182 
0.8599999999999216, -0.6878165432619269 
0.8699999999999205, -0.688827357584822 
0.8799999999999194, -0.6895689440945708 
0.8899999999999183, -0.6900426258905187 
0.8999999999999172, -0.6902769006269383 
0.9099999999999161, -0.6903102174185164 
0.919999999999915, -0.6901779671923857 
0.9299999999999139, -0.6899059900966897 
0.9399999999999128, -0.6895090457436179 
0.9499999999999117, -0.6889921730958616 
0.9599999999999106, -0.6883539363049802 
0.9699999999999095, -0.6875917992863281 
0.9799999999999084, -0.6867106323678365 
0.9899999999999073, -0.685734936755748 
0.9999999999999062, -0.6847224516280386 
1.0099999999999052, -0.6837702287589112 
1.019999999999904, -0.6829974506460667 
1.029999999999903, -0.6824969760580369 
1.039999999999902, -0.6822850733229944 
1.0499999999999008, -0.6823104880705945 
1.0599999999998997, -0.6825251052779175 
1.0699999999998986, -0.6829202664144375 
1.0799999999998975, -0.6834836043981365 
1.0899999999998964, -0.6841562209562142 
1.0999999999998953, -0.6848474933735387 
1.1099999999998942, -0.6854749269010818 
1.119999999999893, -0.6859869764176832 
1.129999999999892, -0.6863627991285595 
1.1399999999998909, -0.6866011809730981 
1.1499999999998898, -0.6867088091558451 
1.1599999999998887, -0.6866916410060396 
1.1699999999998876, -0.6865493732792699 
1.1799999999998865, -0.6862720237262812 
1.1899999999998854, -0.6858381004080187 
1.1999999999998843, -0.685214959778196 
1.2099999999998832, -0.6843632284153867 
1.219999999999882, -0.6832475264103711 
1.229999999999881, -0.6818532723073204 
1.2399999999998799, -0.6802033573969062 
1.2499999999998788, -0.6783635078781028 
1.2599999999998777, -0.676429395525332 
1.2699999999998766, -0.674501666214387 
1.2799999999998755, -0.6726636586840951 
1.2899999999998744, -0.6709717797358365 
1.2999999999998733, -0.6694577853122754 
1.3099999999998722, -0.6681364802138189 
1.319999999999871, -0.6670132006380204 
1.32999999999987, -0.666088648760023 
1.3399999999998689, -0.6653610446964262 
1.3499999999998678, -0.6648265470125335 
1.3599999999998666, -0.6644789902864433 
1.3699999999998655, -0.6643097206241358 
1.3799999999998644, -0.6643079408154465 
1.3899999999998633, -0.6644616174280802 
1.3999999999998622, -0.6647587164024409 
1.4099999999998611, -0.6651883480963642 
1.41999999999986, -0.6657412865118626 
1.429999999999859, -0.6664092322366671 
1.4399999999998578, -0.6671821783481126 
1.4499999999998567, -0.6680436213683347 
1.4599999999998556, -0.6689645797425394 
1.4699999999998545, -0.6698994042823834 
1.4799999999998534, -0.6707877543387082 
1.4899999999998523, -0.6715652287412921 
1.4999999999998512, -0.6721792324426512 
1.5099999999998501, -0.672601395969877 
1.519999999999849, -0.6728296250380235 
1.529999999999848, -0.6728805211338467 
1.5399999999998468, -0.6727784618375372 
1.5499999999998457, -0.6725469935283578 
1.5599999999998446, -0.6722045792230001 
1.5699999999998435, -0.6717642533309615 
1.5799999999998424, -0.6712363218868823 
1.5899999999998413, -0.6706339712885305 
1.5999999999998402, -0.6699824891421684 
1.6099999999998391, -0.6693329368652614 
1.619999999999838, -0.6687793646749447 
1.629999999999837, -0.6684731682221651 
1.6399999999998358, -0.6686180011039459 
1.6499999999998347, -0.6694200231111611 
1.6599999999998336, -0.6709834182835974 
1.6699999999998325, -0.6732031986144725 
1.6799999999998314, -0.6757684058360212 
1.6899999999998303, -0.6783161067936746 
1.6999999999998292, -0.6805984907151739 
1.709999999999828, -0.6825186412023083 
1.719999999999827, -0.6840693864188424 
1.729999999999826, -0.685277130966847 
1.7399999999998248, -0.6861797595766228 
1.7499999999998237, -0.6868197902435452 
1.7599999999998226, -0.6872392204987084 
1.7699999999998215, -0.6874744207541337 
1.7799999999998204, -0.6875523017076846 
1.7899999999998193, -0.6874879404541392 
1.7999999999998182, -0.6872830271411242 
1.809999999999817, -0.6869245823827423 
1.819999999999816, -0.6863841449720707 
1.8299999999998149, -0.6856189005968499 
1.8399999999998138, -0.6845777123897637 
1.8499999999998127, -0.6832153568865749 
1.8599999999998116, -0.681514746966666 
1.8699999999998105, -0.679508533331234 
1.8799999999998094, -0.6772848592801594 
1.8899999999998083, -0.674968648605092 
1.8999999999998072, -0.6726880242219596 
1.909999999999806, -0.670545921527736 
1.919999999999805, -0.6686089647847328 
1.9299999999998039, -0.6669113163731034 
1.9399999999998028, -0.6654646909735806 
1.9499999999998017, -0.6642676638294331 
1.9599999999998006, -0.6633116835973302 
1.9699999999997995, -0.6625840464732201 
1.9799999999997984, -0.6620690843825333 
1.9899999999997973, -0.6617487518949139 
1.9999999999997962, -0.6616033434415747 
2.0099999999998173, -0.6616125882122821 
2.0199999999998384, -0.6617570116339663 
2.0299999999998595, -0.662019269366273 
2.0399999999998806, -0.6623851113748407 
2.0499999999999017, -0.6628436119802658 
2.059999999999923, -0.6633862223142601 
2.069999999999944, -0.6640041507664435 
2.079999999999965, -0.6646839027657593 
2.089999999999986, -0.6654019261192351 
2.100000000000007, -0.6661210515920521 
2.1100000000000283, -0.6667923748395047 
2.1200000000000494, -0.6673642652957158 
2.1300000000000705, -0.6677952134840869 
2.1400000000000916, -0.6680634072260185 
2.1500000000001127, -0.6681679072945248 
2.160000000000134, -0.66812244251302 
2.170000000000155, -0.6679469002828622 
2.180000000000176, -0.6676609042904471 
2.190000000000197, -0.6672811202816458 
2.2000000000002182, -0.6668221377055314 
2.2100000000002393, -0.6663005719796752 
2.2200000000002604, -0.6657426525689925 
2.2300000000002815, -0.6651961067819693 
2.2400000000003026, -0.6647466988564589 
2.2500000000003237, -0.664536935954787 
2.260000000000345, -0.6647773045392905 
2.270000000000366, -0.6657288056000374 
2.280000000000387, -0.6676283739013298 
2.290000000000408, -0.6705521723653691 
2.3000000000004293, -0.6742881861690381 
2.3100000000004504, -0.6783564729456354 
2.3200000000004715, -0.6822210637599582 
2.3300000000004926, -0.6855221900212312 
2.3400000000005137, -0.6881405842941711 
2.3500000000005348, -0.6901167382801604 
2.360000000000556, -0.6915531327749288 
2.370000000000577, -0.6925590773292354 
2.380000000000598, -0.6932297340629201 
2.390000000000619, -0.693640319155872 
2.4000000000006403, -0.6938456163061819 
2.4100000000006614, -0.6938810899018673 
2.4200000000006825, -0.6937640355707321 
2.4300000000007036, -0.6934939821163049 
2.4400000000007247, -0.6930521760703258 
2.450000000000746, -0.692400889566895 
2.460000000000767, -0.6914847833879703 
2.470000000000788, -0.6902384296715771 
2.480000000000809, -0.6886045536836473 
2.49000000000083, -0.6865628040753852 
2.5000000000008513, -0.6841574503706097 
2.5100000000008724, -0.681503644034507 
2.5200000000008935, -0.6787614868053796 
2.5300000000009146, -0.6760918416727072 
2.5400000000009357, -0.6736205121810394 
2.550000000000957, -0.671425339667844 
2.560000000000978, -0.669541983204577 
2.570000000000999, -0.6679767958275241 
2.58000000000102, -0.6667184992925718 
2.5900000000010412, -0.6657458969405201 
2.6000000000010624, -0.6650321842259691 
2.6100000000010835, -0.6645473657090143 
2.6200000000011046, -0.664260001811235 
2.6300000000011257, -0.6641388791165207 
2.6400000000011468, -0.6641546737105974 
2.650000000001168, -0.6642814159099475 
2.660000000001189, -0.6644975426760619 
2.67000000000121, -0.6647864019373321 
2.680000000001231, -0.6651360809180611 
2.6900000000012523, -0.6655382884058212 
2.7000000000012734, -0.6659858735336702 
2.7100000000012945, -0.6664688135679796 
2.7200000000013156, -0.6669695230237853 
2.7300000000013367, -0.667459830688618 
2.740000000001358, -0.6679025650000969 
2.750000000001379, -0.6682587756189222 
2.7600000000014, -0.6684976299606791 
2.770000000001421, -0.668603465731238 
2.780000000001442, -0.6685764377975361 
2.7900000000014633, -0.6684278644218076 
2.8000000000014844, -0.668174183051297 
2.8100000000015055, -0.6678328202055652 
2.8200000000015266, -0.6674213318599939 
2.8300000000015477, -0.6669599720178174 
2.840000000001569, -0.6664777611107429 
2.85000000000159, -0.6660225073117235 
2.860000000001611, -0.665675247110166 
2.870000000001632, -0.6655682328190458 
2.8800000000016532, -0.665901533508916 
2.8900000000016743, -0.6669451776596653 
2.9000000000016954, -0.6690029078099006 
2.9100000000017165, -0.6723110195678147 
2.9200000000017377, -0.6768777126429105 
2.9300000000017588, -0.6823514589387376 
2.94000000000178, -0.6880694267995758 
2.950000000001801, -0.6933258762396927 
2.960000000001822, -0.6976630452798884 
2.970000000001843, -0.7009588291552433 
2.9800000000018643, -0.7033207621395531 
2.9900000000018854, -0.704941513959954 
3.0000000000019065, -0.706009194458969 
3.0100000000019276, -0.7066738542499407 
3.0200000000019487, -0.7070433093596272 
3.03000000000197, -0.7071888267054042 
3.040000000001991, -0.7071518370323335 
3.050000000002012, -0.706948600833097 
3.060000000002033, -0.7065720890512598 
3.070000000002054, -0.7059913611316984 
3.0800000000020753, -0.7051497804846973 
3.0900000000020964, -0.7039653986954789 
3.1000000000021175, -0.7023398631427623 
3.1100000000021386, -0.7001838102535206 
3.1200000000021597, -0.6974604811238241 
3.130000000002181, -0.6942309090435653 
3.140000000002202, -0.6906670466323723 
3.150000000002223, -0.6870121962302195 
3.160000000002244, -0.6835097373799207 
3.1700000000022652, -0.6803446237415413 
3.1800000000022863, -0.6776224576292461 
3.1900000000023074, -0.6753791544337127 
3.2000000000023285, -0.6736022270499789 
3.2100000000023496, -0.6722505627480597 
3.2200000000023707, -0.6712685046209277 
3.230000000002392, -0.6705949354501488 
3.240000000002413, -0.6701691613579316 
3.250000000002434, -0.6699348479595825 
3.260000000002455, -0.6698425385456444 
3.2700000000024763, -0.6698509323251648 
3.2800000000024974, -0.6699271148634891 
3.2900000000025185, -0.6700460867215139 
3.3000000000025396, -0.6701899964135664 
3.3100000000025607, -0.6703473065004657 
3.3200000000025818, -0.6705117118222533 
3.330000000002603, -0.670680231785015 
3.340000000002624, -0.6708500026304968 
3.350000000002645, -0.6710142530533015 
3.360000000002666, -0.6711593122380075 
3.3700000000026873, -0.6712649425660067 
3.3800000000027084, -0.6713087375524235 
3.3900000000027295, -0.6712725276138204 
3.4000000000027506, -0.6711471991706219 
3.4100000000027717, -0.6709337165713749 
3.420000000002793, -0.6706410545936337 
3.430000000002814, -0.6702834956825316 
3.440000000002835, -0.6698794872624652 
3.450000000002856, -0.6694531579995063 
3.460000000002877, -0.6690388128382014 
3.4700000000028983, -0.6686884275765728 
3.4800000000029194, -0.6684818823154585 
3.4900000000029405, -0.6685388208234672 
3.5000000000029616, -0.6690290471715671 
3.5100000000029827, -0.6701748260888435 
3.520000000003004, -0.6722334609472866 
3.530000000003025, -0.6754444490193672 
3.540000000003046, -0.6799304824999164 
3.550000000003067, -0.685570592939438 
3.5600000000030882, -0.6919206757024547 
3.5700000000031094, -0.6982888463822914 
3.5800000000031305, -0.703983132969838 
3.5900000000031516, -0.7085716181498787 
3.6000000000031727, -0.7119646514026927 
3.6100000000031938, -0.7143120435146532 
3.620000000003215, -0.7158509470438026 
3.630000000003236, -0.7168049456437104 
3.640000000003257, -0.7173458004940703 
3.650000000003278, -0.7175907958700781 
3.6600000000032993, -0.7176119729847257 
3.6700000000033204, -0.7174455953211256 
3.6800000000033415, -0.7170978611946951 
3.6900000000033626, -0.7165460568128883 
3.7000000000033837, -0.7157355110910963 
3.710000000003405, -0.7145739315058823 
3.720000000003426, -0.7129276919486276 
3.730000000003447, -0.7106304791331906 
3.740000000003468, -0.7075206214338684 
3.750000000003489, -0.7035173287400179 
3.7600000000035103, -0.6987123852903041 
3.7700000000035314, -0.6934091845598023 
3.7800000000035525, -0.6880521708844939 
3.7900000000035736, -0.6830794859451743 
3.8000000000035947, -0.6787982371159168 
3.810000000003616, -0.6753442565061581 
3.820000000003637, -0.6727116934071374 
3.830000000003658, -0.6708074758086406 
3.840000000003679, -0.6694997809739386 
3.8500000000037002, -0.6686508125452252 
3.8600000000037213, -0.6681352817489736 
3.8700000000037424, -0.667848721813377 
3.8800000000037635, -0.6677092889155367 
3.8900000000037847, -0.667655765491571 
3.9000000000038058, -0.6676437701793875 
3.910000000003827, -0.6676416512036946 
3.920000000003848, -0.667627091191336 
3.930000000003869, -0.667585010015401 
3.94000000000389, -0.6675068147409723 
3.9500000000039113, -0.6673903447153731 
3.9600000000039324, -0.6672392322242701 
3.9700000000039535, -0.6670604955775652 
3.9800000000039746, -0.6668604551155733 
3.9900000000039957, -0.666640802868104 
4.000000000004016, -0.6663972216747335 
4.010000000003993, -0.6661215121935176 
4.02000000000397, -0.6658058702464231 
4.030000000003946, -0.6654468080408703 
4.040000000003923, -0.6650471081705951 
4.0500000000039, -0.6646160448873306 
4.0600000000038765, -0.6641692487963519 
4.070000000003853, -0.6637295196194143 
4.08000000000383, -0.6633292032429876 
4.090000000003807, -0.6630140772185233 
4.100000000003783, -0.6628481873544503 
4.11000000000376, -0.6629186124497062 
4.120000000003737, -0.6633385553722282 
4.130000000003713, -0.664246360548696 
4.14000000000369, -0.6657969266785123 
4.150000000003667, -0.6681405727230633 
4.1600000000036434, -0.6713838292936203 
4.17000000000362, -0.6755306895518411 
4.180000000003597, -0.680418137134245 
4.1900000000035735, -0.6856866858327584 
4.20000000000355, -0.6908395404210735 
4.210000000003527, -0.6953968421623584 
4.220000000003504, -0.6990579205644429 
4.23000000000348, -0.7017595784059126 
4.240000000003457, -0.703614139472941 
4.250000000003434, -0.7048046145565214 
4.26000000000341, -0.705507714001847 
4.270000000003387, -0.7058606827300478 
4.280000000003364, -0.7059563474557502 
4.2900000000033405, -0.7058488008076644 
4.300000000003317, -0.7055597920425092 
4.310000000003294, -0.7050818613699774 
4.320000000003271, -0.7043770206533996 
4.330000000003247, -0.7033709318181456 
4.340000000003224, -0.7019439753531788 
4.350000000003201, -0.6999244791381742 
4.360000000003177, -0.6970976653105372 
4.370000000003154, -0.6932539201354342 
4.380000000003131, -0.6882945681305835 
4.390000000003107, -0.6823644241349034 
4.400000000003084, -0.6759063074641481 
4.410000000003061, -0.669544810646435 
4.4200000000030375, -0.6638557723493148 
4.430000000003014, -0.659188454802537 
4.440000000002991, -0.6556331755624141 
4.450000000002968, -0.653093736830512 
4.460000000002944, -0.6513831353951215 
4.470000000002921, -0.6502955635855325 
4.480000000002898, -0.6496460902817849 
4.490000000002874, -0.6492860881178771 
4.500000000002851, -0.649104523186314 
4.510000000002828, -0.6490225397512017 
4.520000000002804, -0.6489858636939629 
4.530000000002781, -0.6489574911733624 
4.540000000002758, -0.6489118817787742 
4.5500000000027345, -0.6488311882057018 
4.560000000002711, -0.6487036299923788 
4.570000000002688, -0.6485236317094584 
4.580000000002665, -0.6482926248347253 
4.590000000002641, -0.6480187954479554 
4.600000000002618, -0.6477144020056692 
4.610000000002595, -0.6473910037345031 
4.620000000002571, -0.6470549153964932 
4.630000000002548, -0.6467055393005576 
4.640000000002525, -0.6463374183394419 
4.6500000000025015, -0.6459444811058022 
4.660000000002478, -0.6455240066331707 
4.670000000002455, -0.6450788236408913 
4.6800000000024315, -0.6446179656088477 
4.690000000002408, -0.6441569867073618 
4.700000000002385, -0.6437190598920138 
4.710000000002362, -0.6433373787672945 
4.720000000002338, -0.6430588050255299 
4.730000000002315, -0.6429482727158177 
4.740000000002292, -0.6430930626218597 
4.750000000002268, -0.6436055323754383 
4.760000000002245, -0.6446220515791999 
4.770000000002222, -0.6462945389910889 
4.7800000000021985, -0.6487691844858057 
4.790000000002175, -0.6521460487631395 
4.800000000002152, -0.6564178376962926 
4.810000000002129, -0.6614036532037989 
4.820000000002105, -0.6667231487773213 
4.830000000002082, -0.6718670836632372 
4.840000000002059, -0.6763627651274243 
4.850000000002035, -0.6799341305553234 
4.860000000002012, -0.6825451104485357 
4.870000000001989, -0.684324976509575 
4.880000000001965, -0.6854616402074021 
4.890000000001942, -0.6861294032214791 
4.900000000001919, -0.686460646089259 
4.9100000000018955, -0.6865434689039426 
4.920000000001872, -0.6864281573059965 
