t, s[1].omega / s[0].omega 
0, -0.899997606656834 
0.009999999999999995, -0.8997225578891763 
0.019999999999999934, -0.8993787314205857 
0.029999999999999874, -0.8989719382296402 
0.04000000000000012, -0.8985119802809528 
0.050000000000000405, -0.8980127414256263 
0.06000000000000069, -0.8974921945050968 
0.07000000000000098, -0.8969723225023747 
0.08000000000000126, -0.896478733325514 
0.09000000000000155, -0.8960394670069085 
0.10000000000000184, -0.8956825077217084 
0.11000000000000212, -0.8954320304879083 
0.12000000000000241, -0.8953042389035991 
0.130000000000002, -0.8953042117515018 
0.1400000000000009, -0.8954249519541133 
0.1499999999999998, -0.8956488743508793 
0.1599999999999987, -0.8959509202685665 
0.1699999999999976, -0.8963020135500239 
0.1799999999999965, -0.8966718433288678 
0.1899999999999954, -0.8970306524162153 
0.1999999999999943, -0.8973503823983947 
0.2099999999999932, -0.8976058628126606 
0.2199999999999921, -0.8977765534939801 
0.229999999999991, -0.8978486736137998 
0.2399999999999899, -0.8978168174536894 
0.2499999999999888, -0.8976840919450666 
0.2599999999999877, -0.8974606493638623 
0.2699999999999866, -0.8971615325312575 
0.2799999999999855, -0.8968051138953109 
0.2899999999999844, -0.8964129462532057 
0.2999999999999833, -0.8960110156659467 
0.3099999999999822, -0.8956315965844187 
0.3199999999999811, -0.8953143006098478 
0.32999999999998, -0.8951046804702436 
0.3399999999999789, -0.8950492997351367 
0.3499999999999778, -0.8951876925457507 
0.35999999999997667, -0.8955434609862711 
0.36999999999997557, -0.8961175594017853 
0.37999999999997447, -0.8968858555728222 
0.38999999999997337, -0.8978011514322249 
0.39999999999997227, -0.8987985872552402 
0.40999999999997117, -0.8998034384246634 
0.41999999999997006, -0.9007408751251024 
0.42999999999996896, -0.901546849540272 
0.43999999999996786, -0.9021776557457383 
0.44999999999996676, -0.9026146532138629 
0.45999999999996566, -0.9028621852170605 
0.46999999999996456, -0.9029402045515129 
0.47999999999996346, -0.9028755161432924 
0.48999999999996235, -0.902695138832278 
0.49999999999996125, -0.9024232803799407 
0.5099999999999602, -0.9020817984243313 
0.519999999999959, -0.9016934831300405 
0.529999999999958, -0.9012875228565796 
0.5399999999999568, -0.9009062709625137 
0.5499999999999557, -0.9006113719625504 
0.5599999999999546, -0.9004855916136834 
0.5699999999999535, -0.9006256444727819 
0.5799999999999524, -0.9011230816019887 
0.5899999999999513, -0.9020359052783127 
0.5999999999999502, -0.9033605894230587 
0.6099999999999491, -0.9050176361826667 
0.619999999999948, -0.9068604312775751 
0.6299999999999469, -0.9087078625180368 
0.6399999999999458, -0.9103897021249765 
0.6499999999999447, -0.9117859755116134 
0.6599999999999436, -0.9128440531353569 
0.6699999999999425, -0.9135703659483662 
0.6799999999999414, -0.9140073241583944 
0.6899999999999403, -0.9142096326071144 
0.6999999999999392, -0.9142283323290311 
0.7099999999999381, -0.9141035704773508 
0.719999999999937, -0.9138634875541968 
0.7299999999999359, -0.9135265327311501 
0.7399999999999348, -0.9131058977976687 
0.7499999999999337, -0.9126161612158523 
0.7599999999999326, -0.9120829847251727 
0.7699999999999315, -0.9115561560411194 
0.7799999999999304, -0.911123439571513 
0.7899999999999293, -0.9109171746124194 
0.7999999999999282, -0.9111001261329588 
0.8099999999999271, -0.9118197481134699 
0.819999999999926, -0.913138852807713 
0.8299999999999249, -0.9149790515269005 
0.8399999999999238, -0.917122751899436 
0.8499999999999227, -0.919285953682126 
0.8599999999999216, -0.9212194262869462 
0.8699999999999205, -0.9227762136922758 
0.8799999999999194, -0.9239182948954822 
0.8899999999999183, -0.9246816779869238 
0.8999999999999172, -0.9251338990268099 
0.9099999999999161, -0.9253440667246121 
0.919999999999915, -0.9253683456708991 
0.9299999999999139, -0.9252458208970538 
0.9399999999999128, -0.9249992910482632 
0.9499999999999117, -0.924637751587956 
0.9599999999999106, -0.9241595203184646 
0.9699999999999095, -0.9235565988846192 
0.9799999999999084, -0.9228221013724657 
0.9899999999999073, -0.9219631806483635 
0.9999999999999062, -0.9210205118783993 
1.0099999999999052, -0.9200896877512891 
1.019999999999904, -0.9193293042845296 
1.029999999999903, -0.918933030761256 
1.039999999999902, -0.9190567027870624 
1.0499999999999008, -0.9197329501394046 
1.0599999999998997, -0.9208378317887155 
1.0699999999998986, -0.9221436336656289 
1.0799999999998975, -0.9234186396220581 
1.0899999999998964, -0.924502922317639 
1.0999999999998953, -0.9253267994471331 
1.1099999999998942, -0.9258880577787645 
1.119999999999893, -0.9262185991938816 
1.129999999999892, -0.926358852053627 
1.1399999999998909, -0.926343601749849 
1.1499999999998898, -0.9261960067208388 
1.1599999999998887, -0.9259257152878624 
1.1699999999998876, -0.9255283568613193 
1.1799999999998865, -0.9249852587032292 
1.1899999999998854, -0.9242636597803557 
1.1999999999998843, -0.9233192222795095 
1.2099999999998832, -0.9221044056951765 
1.219999999999882, -0.9205873539759011 
1.229999999999881, -0.9187833646810833 
1.2399999999998799, -0.9167905142844415 
1.2499999999998788, -0.9148039629559174 
1.2599999999998777, -0.9130774072760179 
1.2699999999998766, -0.9118301190493299 
1.2799999999998755, -0.9111525835660593 
1.2899999999998744, -0.910979652637255 
1.2999999999998733, -0.9111449350463513 
1.3099999999998722, -0.911465486940846 
1.319999999999871, -0.9118005916118758 
1.32999999999987, -0.9120678660483186 
1.3399999999998689, -0.9122315922486726 
1.3499999999998678, -0.9122831236904794 
1.3599999999998666, -0.9122243968779029 
1.3699999999998655, -0.9120571056596042 
1.3799999999998644, -0.9117761827396997 
1.3899999999998633, -0.9113655757603333 
1.3999999999998622, -0.910795053149152 
1.4099999999998611, -0.9100180903172455 
1.41999999999986, -0.9089726902555169 
1.429999999999859, -0.907589144348792 
1.4399999999998578, -0.905809856969842 
1.4499999999998567, -0.9036229354514731 
1.4599999999998556, -0.901099936139685 
1.4699999999998545, -0.8984135584848353 
1.4799999999998534, -0.8958102369564303 
1.4899999999998523, -0.8935383719031549 
1.4999999999998512, -0.8917681795108526 
1.5099999999998501, -0.8905480571783537 
1.519999999999849, -0.889815319091005 
1.529999999999848, -0.8894437078000526 
1.5399999999998468, -0.8892955040584754 
1.5499999999998457, -0.8892556883865866 
1.5599999999998446, -0.8892435824899042 
1.5699999999998435, -0.8892090708616027 
1.5799999999998424, -0.8891225780958143 
1.5899999999998413, -0.8889648156393912 
1.5999999999998402, -0.8887186764699175 
1.6099999999998391, -0.8883636005093981 
1.619999999999838, -0.8878722848518896 
1.629999999999837, -0.8872101527145715 
1.6399999999998358, -0.8863388021568946 
1.6499999999998347, -0.8852247587837108 
1.6599999999998336, -0.8838530977376762 
1.6699999999998325, -0.8822417589677757 
1.6799999999998314, -0.8804492464251717 
1.6899999999998303, -0.8785698861711397 
1.6999999999998292, -0.8767172088128776 
1.709999999999828, -0.8750020452852141 
1.719999999999827, -0.8735128870801645 
1.729999999999826, -0.8723031068844893 
1.7399999999998248, -0.8713865798650232 
1.7499999999998237, -0.8707414714945572 
1.7599999999998226, -0.8703204669475226 
1.7699999999998215, -0.87006405330813 
1.7799999999998204, -0.8699126833570139 
1.7899999999998193, -0.8698147002951797 
1.7999999999998182, -0.8697291947018178 
1.809999999999817, -0.8696249804894386 
1.819999999999816, -0.8694776983656031 
1.8299999999998149, -0.8692668666957785 
1.8399999999998138, -0.8689741342670697 
1.8499999999998127, -0.8685834104728721 
1.8599999999998116, -0.8680828949911652 
1.8699999999998105, -0.8674681722509542 
1.8799999999998094, -0.8667447739866235 
1.8899999999998083, -0.8659286731917171 
1.8999999999998072, -0.8650443553986289 
1.909999999999806, -0.8641215558510649 
1.919999999999805, -0.863192197124327 
1.9299999999998039, -0.8622883091413531 
1.9399999999998028, -0.8614406682886555 
1.9499999999998017, -0.8606773996128991 
1.9599999999998006, -0.8600219906540613 
1.9699999999997995, -0.8594907750775104 
1.9799999999997984, -0.8590905798015056 
1.9899999999997973, -0.8588175273750892 
1.9999999999997962, -0.8586577079625023 
2.0099999999998173, -0.8585896754969417 
2.0199999999998384, -0.8585879397627918 
2.0299999999998595, -0.8586263266523065 
2.0399999999998806, -0.8586803983182545 
2.0499999999999017, -0.858728749234046 
2.059999999999923, -0.8587534748765325 
2.069999999999944, -0.8587402179029187 
2.079999999999965, -0.8586780285364242 
2.089999999999986, -0.858559112311938 
2.100000000000007, -0.8583785699041432 
2.1100000000000283, -0.858134346498398 
2.1200000000000494, -0.8578275235013717 
2.1300000000000705, -0.8574627891209918 
2.1400000000000916, -0.8570487611392442 
2.1500000000001127, -0.8565980270639196 
2.160000000000134, -0.8561270730716339 
2.170000000000155, -0.8556563093901148 
2.180000000000176, -0.8552100937610131 
2.190000000000197, -0.8548162651534718 
2.2000000000002182, -0.8545045613656865 
2.2100000000002393, -0.8543036099006243 
2.2200000000002604, -0.8542368844790775 
2.2300000000002815, -0.8543187154229038 
2.2400000000003026, -0.8545516142391424 
2.2500000000003237, -0.8549256208021339 
2.260000000000345, -0.8554194628764327 
2.270000000000366, -0.8560026723901168 
2.280000000000387, -0.8566378410607228 
2.290000000000408, -0.8572828413615514 
2.3000000000004293, -0.8578935980227496 
2.3100000000004504, -0.8584281853008365 
2.3200000000004715, -0.8588521681436194 
2.3300000000004926, -0.8591435961978279 
2.3400000000005137, -0.8592953194674606 
2.3500000000005348, -0.8593134310907325 
2.360000000000556, -0.8592128673223373 
2.370000000000577, -0.8590125563246473 
2.380000000000598, -0.8587321768927388 
2.390000000000619, -0.8583914124142987 
2.4000000000006403, -0.8580116483486746 
2.4100000000006614, -0.8576196239900021 
2.4200000000006825, -0.857252226653188 
2.4300000000007036, -0.8569609824041674 
2.4400000000007247, -0.856813837840566 
2.450000000000746, -0.856891178255793 
2.460000000000767, -0.8572737849110265 
2.470000000000788, -0.8580232613787526 
2.480000000000809, -0.859159550205759 
2.49000000000083, -0.8606434288387053 
2.5000000000008513, -0.8623724608729427 
2.5100000000008724, -0.8641959467870238 
2.5200000000008935, -0.8659476010713891 
2.5300000000009146, -0.8674852584909605 
2.5400000000009357, -0.8687207502644343 
2.550000000000957, -0.8696275324760068 
2.560000000000978, -0.8702271349222729 
2.570000000000999, -0.8705663226231162 
2.58000000000102, -0.8706970172668097 
2.5900000000010412, -0.8706642777732944 
2.6000000000010624, -0.8705016690658143 
2.6100000000010835, -0.8702312368857428 
2.6200000000011046, -0.8698658634102399 
2.6300000000011257, -0.8694131406499066 
2.6400000000011468, -0.8688811024256765 
2.650000000001168, -0.8682868276000532 
2.660000000001189, -0.8676685761733651 
2.67000000000121, -0.8670997936272128 
2.680000000001231, -0.8666982406073022 
2.6900000000012523, -0.8666174205910684 
2.7000000000012734, -0.8670075783736293 
2.7100000000012945, -0.8679497205155972 
2.7200000000013156, -0.8693958703773808 
2.7300000000013367, -0.8711633653730629 
2.740000000001358, -0.8729995611894206 
2.750000000001379, -0.8746762231167675 
2.7600000000014, -0.8760528845380285 
2.770000000001421, -0.8770844194123709 
2.780000000001442, -0.877791742405074 
2.7900000000014633, -0.8782257851779111 
2.8000000000014844, -0.8784416442044941 
2.8100000000015055, -0.878485264586009 
2.8200000000015266, -0.8783886379574077 
2.8300000000015477, -0.8781690687434496 
2.840000000001569, -0.8778296280026311 
2.85000000000159, -0.8773594742751424 
2.860000000001611, -0.8767339053439492 
2.870000000001632, -0.8759150895664064 
2.8800000000016532, -0.8748557355621452 
2.8900000000016743, -0.8735093812321848 
2.9000000000016954, -0.8718512171494341 
2.9100000000017165, -0.869909318320795 
2.9200000000017377, -0.8677948782441497 
2.9300000000017588, -0.8657060444029174 
2.94000000000178, -0.8638817009411819 
2.950000000001801, -0.8625150842949566 
2.960000000001822, -0.8616793270584486 
2.970000000001843, -0.8613155270971662 
2.9800000000018643, -0.8612826643475022 
2.9900000000018854, -0.8614254260132244 
3.0000000000019065, -0.8616199797450147 
3.0100000000019276, -0.8617877179883207 
3.0200000000019487, -0.8618880124402315 
3.03000000000197, -0.8619040138642173 
3.040000000001991, -0.8618297107214378 
3.050000000002012, -0.8616606764843233 
3.060000000002033, -0.8613880019384423 
3.070000000002054, -0.8609942352391442 
3.0800000000020753, -0.8604506458986343 
3.0900000000020964, -0.8597161993734499 
3.1000000000021175, -0.8587400156801517 
3.1100000000021386, -0.8574701984196285 
3.1200000000021597, -0.8558711920878868 
3.130000000002181, -0.8539472826942912 
3.140000000002202, -0.851762291937127 
3.150000000002223, -0.8494415227811803 
3.160000000002244, -0.8471490541878696 
3.1700000000022652, -0.8450484695352012 
3.1800000000022863, -0.8432647784516742 
3.1900000000023074, -0.8418621867313618 
3.2000000000023285, -0.8408421110173332 
3.2100000000023496, -0.8401571138275223 
3.2200000000023707, -0.8397324564320396 
3.230000000002392, -0.8394870072253251 
3.240000000002413, -0.8393479583428924 
3.250000000002434, -0.8392576301765944 
3.260000000002455, -0.8391737789821624 
3.2700000000024763, -0.8390661852924219 
3.2800000000024974, -0.8389120951014266 
3.2900000000025185, -0.8386922321164538 
3.3000000000025396, -0.8383883585616824 
3.3100000000025607, -0.8379829420612515 
3.3200000000025818, -0.8374611266453116 
3.330000000002603, -0.8368145126383142 
3.340000000002624, -0.8360452114428545 
3.350000000002645, -0.8351680072173485 
3.360000000002666, -0.8342092004910819 
3.3700000000026873, -0.8332026460976591 
3.3800000000027084, -0.8321850115258795 
3.3900000000027295, -0.8311921059728716 
3.4000000000027506, -0.830256776822465 
3.4100000000027717, -0.8294077234531734 
3.420000000002793, -0.8286683466989203 
3.430000000002814, -0.8280552269577794 
3.440000000002835, -0.8275764906715251 
3.450000000002856, -0.8272307683351462 
3.460000000002877, -0.8270074326954997 
3.4700000000028983, -0.8268883356132222 
3.4800000000029194, -0.826850615357101 
3.4900000000029405, -0.8268697309726996 
3.5000000000029616, -0.826921934191801 
3.5100000000029827, -0.8269858058943317 
3.520000000003004, -0.8270429378092936 
3.530000000003025, -0.8270780608901248 
3.540000000003046, -0.8270788733039544 
3.550000000003067, -0.827035687351068 
3.5600000000030882, -0.8269410183494227 
3.5700000000031094, -0.8267893834731599 
3.5800000000031305, -0.826577590113183 
3.5900000000031516, -0.8263054725764004 
3.6000000000031727, -0.82597663997126 
3.6100000000031938, -0.825598792693698 
3.620000000003215, -0.8251835912102562 
3.630000000003236, -0.8247464609767835 
3.640000000003257, -0.8243067037423689 
3.650000000003278, -0.8238879024117803 
3.6600000000032993, -0.8235181507982665 
3.6700000000033204, -0.8232293866319373 
3.6800000000033415, -0.8230552282343467 
3.6900000000033626, -0.8230272429238827 
3.7000000000033837, -0.8231702993844958 
3.710000000003405, -0.8234981449039209 
3.720000000003426, -0.8240102417351475 
3.730000000003447, -0.8246902721833272 
3.740000000003468, -0.8255061112418017 
3.750000000003489, -0.8264110357285661 
3.7600000000035103, -0.8273465727949556 
3.7700000000035314, -0.8282480239297568 
3.7800000000035525, -0.8290531966279573 
3.7900000000035736, -0.8297127347485851 
3.8000000000035947, -0.8301981116750736 
3.810000000003616, -0.8305035234804794 
3.820000000003637, -0.8306412254541609 
3.830000000003658, -0.8306334339771487 
3.840000000003679, -0.8305047832210887 
3.8500000000037002, -0.8302776870149566 
3.8600000000037213, -0.8299709880060725 
3.8700000000037424, -0.8296013532339777 
3.8800000000037635, -0.8291869104626363 
3.8900000000037847, -0.8287529225805954 
3.9000000000038058, -0.828339215087586 
3.910000000003827, -0.8280081135885544 
3.920000000003848, -0.8278496239446265 
3.930000000003869, -0.8279781283312044 
3.94000000000389, -0.8285140670025599 
3.9500000000039113, -0.8295481446954192 
3.9600000000039324, -0.8310963181276996 
3.9700000000039535, -0.8330671685515464 
3.9800000000039746, -0.8352674291367356 
3.9900000000039957, -0.8374544417364544 
4.000000000004016, -0.8394118732445331 
4.010000000003993, -0.8410062151090358 
4.02000000000397, -0.8421981613540703 
4.030000000003946, -0.8430171873190222 
4.040000000003923, -0.8435252217579559 
4.0500000000039, -0.8437885656434775 
4.0600000000038765, -0.8438629951592684 
4.070000000003853, -0.8437886674264954 
4.08000000000383, -0.8435899828049875 
4.090000000003807, -0.8432770625030394 
4.100000000003783, -0.8428472780513129 
4.11000000000376, -0.8422865583234904 
4.120000000003737, -0.8415711463483155 
4.130000000003713, -0.8406713529781694 
4.14000000000369, -0.8395596208369642 
4.150000000003667, -0.8382251429275129 
4.1600000000036434, -0.836694751861861 
4.17000000000362, -0.8350532612198002 
4.180000000003597, -0.833447875208608 
4.1900000000035735, -0.8320600050140742 
4.20000000000355, -0.8310452513366944 
4.210000000003527, -0.8304722140457976 
4.220000000003504, -0.8303013103531626 
4.23000000000348, -0.8304158202627072 
4.240000000003457, -0.8306777584971625 
4.250000000003434, -0.8309722277775657 
4.26000000000341, -0.8312247276571412 
4.270000000003387, -0.831397338930714 
4.280000000003364, -0.8314762613756527 
4.2900000000033405, -0.8314593954696873 
4.300000000003317, -0.8313471780588353 
4.310000000003294, -0.8311366063802778 
4.320000000003271, -0.8308173433074011 
4.330000000003247, -0.8303689968731109 
4.340000000003224, -0.8297594490927807 
4.350000000003201, -0.8289452451228392 
4.360000000003177, -0.8278763077345814 
4.370000000003154, -0.8265077133056458 
4.380000000003131, -0.8248191226551945 
4.390000000003107, -0.8228365380235519 
4.400000000003084, -0.8206445263925876 
4.410000000003061, -0.8183777056208635 
4.4200000000030375, -0.8161915971243108 
4.430000000003014, -0.8142260077084487 
4.440000000002991, -0.812576899739755 
4.450000000002968, -0.811284982212988 
4.460000000002944, -0.8103400073877365 
4.470000000002921, -0.8096949499067106 
4.480000000002898, -0.8092835486487024 
4.490000000002874, -0.8090359808023818 
4.500000000002851, -0.8088895626322008 
4.510000000002828, -0.808793712930443 
4.520000000002804, -0.8087102561909976 
4.530000000002781, -0.8086109838194867 
4.540000000002758, -0.8084743213664087 
4.5500000000027345, -0.8082824489053785 
4.560000000002711, -0.8080197104165168 
4.570000000002688, -0.8076727251763159 
4.580000000002665, -0.8072321108990431 
4.590000000002641, -0.8066950148905331 
4.600000000002618, -0.8060670129774641 
4.610000000002595, -0.8053620497181843 
4.620000000002571, -0.8046002344695479 
4.630000000002548, -0.8038046654685186 
4.640000000002525, -0.802998833216136 
4.6500000000025015, -0.8022053732694244 
4.660000000002478, -0.801445898034939 
4.670000000002455, -0.8007411378084413 
4.6800000000024315, -0.8001107152779892 
4.690000000002408, -0.7995722376567318 
4.700000000002385, -0.799139782943735 
4.710000000002362, -0.7988221900131255 
4.720000000002338, -0.7986217467524427 
4.730000000002315, -0.7985338009501706 
4.740000000002292, -0.79854748711551 
4.750000000002268, -0.7986473272583237 
4.760000000002245, -0.7988151603872333 
4.770000000002222, -0.7990318227826234 
4.7800000000021985, -0.7992781959332946 
4.790000000002175, -0.799535520252755 
4.800000000002152, -0.7997851517312465 
4.810000000002129, -0.8000082157528869 
4.820000000002105, -0.8001858269563744 
4.830000000002082, -0.8003004369359756 
4.840000000002059, -0.8003382110514918 
4.850000000002035, -0.8002914336480842 
4.860000000002012, -0.8001596468653046 
4.870000000001989, -0.7999489916939966 
4.880000000001965, -0.799670405101764 
4.890000000001942, -0.7993379276289277 
4.900000000001919, -0.798968122468938 
4.9100000000018955, -0.7985809644582968 
4.920000000001872, -0.7982019770859925 
