t, s[1].omega / s[0].omega 
0, -1.0399975343689138 
0.009999999999999995, -1.0396957575928012 
0.019999999999999934, -1.0392880870946408 
0.029999999999999874, -1.0387847230005434 
0.04000000000000012, -1.0382026875351715 
0.050000000000000405, -1.0375660072400499 
0.06000000000000069, -1.0369057834875415 
0.07000000000000098, -1.0362594523243 
0.08000000000000126, -1.0356680655318145 
0.09000000000000155, -1.0351707462114006 
0.10000000000000184, -1.034796982026393 
0.11000000000000212, -1.0345593475889572 
0.12000000000000241, -1.0344499813318158 
0.130000000000002, -1.0344426939688254 
0.1400000000000009, -1.034499696762505 
0.1499999999999998, -1.0345796835334267 
0.1599999999999987, -1.0346440482803527 
0.1699999999999976, -1.0346600095627019 
0.1799999999999965, -1.0346014423106442 
0.1899999999999954, -1.0344488937955272 
0.1999999999999943, -1.0341896980919343 
0.2099999999999932, -1.0338182566432177 
0.2199999999999921, -1.0333361917751585 
0.229999999999991, -1.0327522766771724 
0.2399999999999899, -1.0320823409647206 
0.2499999999999888, -1.031349351210126 
0.2599999999999877, -1.0305835438812092 
0.2699999999999866, -1.0298219896951426 
0.2799999999999855, -1.0291065215434845 
0.2899999999999844, -1.0284790237085004 
0.2999999999999833, -1.027974134128125 
0.3099999999999822, -1.0276112524130105 
0.3199999999999811, -1.0273891696907036 
0.32999999999998, -1.027286173960255 
0.3399999999999789, -1.027265838013149 
0.3499999999999778, -1.0272855898733189 
0.35999999999997667, -1.0273041278562949 
0.36999999999997557, -1.0272854499071948 
0.37999999999997447, -1.0271998724201512 
0.38999999999997337, -1.027023822351713 
0.39999999999997227, -1.0267399275872506 
0.40999999999997117, -1.0263378137110566 
0.41999999999997006, -1.0258150737439728 
0.42999999999996896, -1.025177736106636 
0.43999999999996786, -1.0244401031691361 
0.44999999999996676, -1.023624364531041 
0.45999999999996566, -1.0227603370029037 
0.46999999999996456, -1.0218850998815543 
0.47999999999996346, -1.0210416140651213 
0.48999999999996235, -1.02027512521378 
0.49999999999996125, -1.0196267205702485 
0.5099999999999602, -1.0191249960930464 
0.519999999999959, -1.018778717492026 
0.529999999999958, -1.018574084084047 
0.5399999999999568, -1.0184784404376477 
0.5499999999999557, -1.0184487270657252 
0.5599999999999546, -1.0184404317130886 
0.5699999999999535, -1.0184134329224674 
0.5799999999999524, -1.01833394339661 
0.5899999999999513, -1.0181741396494735 
0.5999999999999502, -1.0179116222212736 
0.6099999999999491, -1.017529964722827 
0.619999999999948, -1.017020269632664 
0.6299999999999469, -1.016382741650628 
0.6399999999999458, -1.015627348329977 
0.6499999999999447, -1.0147734586800548 
0.6599999999999436, -1.0138490471206323 
0.6699999999999425, -1.0128899340403756 
0.6799999999999414, -1.01193875898164 
0.6899999999999403, -1.0110426207209566 
0.6999999999999392, -1.0102482194044726 
0.7099999999999381, -1.0095943042529336 
0.719999999999937, -1.0091031361690224 
0.7299999999999359, -1.0087744456448067 
0.7399999999999348, -1.0085852658754413 
0.7499999999999337, -1.0084962336782597 
0.7599999999999326, -1.008461225347565 
0.7699999999999315, -1.0084357127110501 
0.7799999999999304, -1.0083810721150406 
0.7899999999999293, -1.008265162730953 
0.7999999999999282, -1.0080613208780347 
0.8099999999999271, -1.0077478809253986 
0.819999999999926, -1.007309174273363 
0.8299999999999249, -1.0067375814405692 
0.8399999999999238, -1.0060353850738601 
0.8499999999999227, -1.0052153937606514 
0.8599999999999216, -1.0043003050493409 
0.8699999999999205, -1.0033215415365648 
0.8799999999999194, -1.0023181028976356 
0.8899999999999183, -1.0013350924804558 
0.8999999999999172, -1.0004208111685997 
0.9099999999999161, -0.9996213546308578 
0.919999999999915, -0.9989728128574626 
0.9299999999999139, -0.9984931287099684 
0.9399999999999128, -0.9981771776142194 
0.9499999999999117, -0.9979980141950822 
0.9599999999999106, -0.9979141218009799 
0.9699999999999095, -0.997879071109604 
0.9799999999999084, -0.9978491911044911 
0.9899999999999073, -0.9977870830602207 
0.9999999999999062, -0.9976617272612662 
1.0099999999999052, -0.9974473968373909 
1.019999999999904, -0.9971233283594028 
1.029999999999903, -0.9966748903315314 
1.039999999999902, -0.9960956666906581 
1.0499999999999008, -0.9953891568701685 
1.0599999999998997, -0.994569140547364 
1.0699999999998986, -0.9936588057990084 
1.0799999999998975, -0.9926894512081832 
1.0899999999998964, -0.9916993006149925 
1.0999999999998953, -0.990732069644895 
1.1099999999998942, -0.9898342072538873 
1.119999999999893, -0.9890498168081858 
1.129999999999892, -0.9884133702007732 
1.1399999999998909, -0.9879421265432544 
1.1499999999998898, -0.9876315160625799 
1.1599999999998887, -0.9874561850018113 
1.1699999999998876, -0.9873766138381466 
1.1799999999998865, -0.9873481170114061 
1.1899999999998854, -0.9873282088172768 
1.1999999999998843, -0.987280231296188 
1.2099999999998832, -0.9871737917216945 
1.219999999999882, -0.9869839737493369 
1.229999999999881, -0.9866910995431025 
1.2399999999998799, -0.9862817086450842 
1.2499999999998788, -0.9857502092058203 
1.2599999999998777, -0.9851000728943999 
1.2699999999998766, -0.9843438493124086 
1.2799999999998755, -0.9835022293052574 
1.2899999999998744, -0.9826029310432162 
1.2999999999998733, -0.9816798508194304 
1.3099999999998722, -0.9807721100689901 
1.319999999999871, -0.9799220103251154 
1.32999999999987, -0.9791709296328642 
1.3399999999998689, -0.9785530574971594 
1.3499999999998678, -0.9780883801040134 
1.3599999999998666, -0.9777776454939365 
1.3699999999998655, -0.9776019312482838 
1.3799999999998644, -0.9775273985791435 
1.3899999999998633, -0.9775130523417186 
1.3999999999998622, -0.9775180225767814 
1.4099999999998611, -0.9775059787145679 
1.41999999999986, -0.9774465413488163 
1.429999999999859, -0.9773151206563411 
1.4399999999998578, -0.9770927522481572 
1.4499999999998567, -0.9767666447235273 
1.4599999999998556, -0.9763311239750989 
1.4699999999998545, -0.9757881906966659 
1.4799999999998534, -0.9751472641965583 
1.4899999999998523, -0.9744244028378656 
1.4999999999998512, -0.9736416066321631 
1.5099999999998501, -0.9728264746175288 
1.519999999999849, -0.9720118755181295 
1.529999999999848, -0.9712348149606804 
1.5399999999998468, -0.9705335897557225 
1.5499999999998457, -0.9699428253646639 
1.5599999999998446, -0.969487149210598 
1.5699999999998435, -0.9691755574469963 
1.5799999999998424, -0.9689989795811137 
1.5899999999998413, -0.9689324129969179 
1.5999999999998402, -0.9689407572328619 
1.6099999999998391, -0.9689857157911463 
1.619999999999838, -0.9690311675433992 
1.629999999999837, -0.9690459668290767 
1.6399999999998358, -0.969004769540834 
1.6499999999998347, -0.9688881047790037 
1.6599999999998336, -0.968682502984825 
1.6699999999998325, -0.968380738114573 
1.6799999999998314, -0.9679818534016714 
1.6899999999998303, -0.9674908329956032 
1.6999999999998292, -0.9669181646362682 
1.709999999999828, -0.9662796198376954 
1.719999999999827, -0.9655963238044606 
1.729999999999826, -0.9648948669656026 
1.7399999999998248, -0.9642069346282609 
1.7499999999998237, -0.9635677091051278 
1.7599999999998226, -0.9630123681024718 
1.7699999999998215, -0.9625707094209777 
1.7799999999998204, -0.9622611703232717 
1.7899999999998193, -0.9620864748934383 
1.7999999999998182, -0.9620328985861676 
1.809999999999817, -0.9620735622429448 
1.819999999999816, -0.9621742530570853 
1.8299999999998149, -0.9622993628738209 
1.8399999999998138, -0.9624161399199098 
1.8499999999998127, -0.9624968400368157 
1.8599999999998116, -0.9625194034226585 
1.8699999999998105, -0.9624674704135616 
1.8799999999998094, -0.9623302035668451 
1.8899999999998083, -0.9621020754830821 
1.8999999999998072, -0.9617827295626192 
1.909999999999806, -0.9613770137819682 
1.919999999999805, -0.9608951560266673 
1.9299999999998039, -0.9603529497976737 
1.9399999999998028, -0.9597718780309661 
1.9499999999998017, -0.9591790957115295 
1.9599999999998006, -0.9586068766193854 
1.9699999999997995, -0.9580907198313477 
1.9799999999997984, -0.9576653986409237 
1.9899999999997973, -0.957359194662241 
1.9999999999997962, -0.9571879709742669 
2.0099999999998173, -0.9571514823707762 
2.0199999999998384, -0.9572335768733071 
2.0299999999998595, -0.9574060988925035 
2.0399999999998806, -0.9576346658870254 
2.0499999999999017, -0.9578840995594602 
2.059999999999923, -0.9581221248070477 
2.069999999999944, -0.9583211554395401 
2.079999999999965, -0.9584587667327064 
2.089999999999986, -0.9585176347292859 
2.100000000000007, -0.9584855557995822 
2.1100000000000283, -0.9583558391230781 
2.1200000000000494, -0.9581279358177694 
2.1300000000000705, -0.9578078480299551 
2.1400000000000916, -0.9574079954945478 
2.1500000000001127, -0.956946738713669 
2.160000000000134, -0.9564480766899918 
2.170000000000155, -0.9559416950262903 
2.180000000000176, -0.9554627179168744 
2.190000000000197, -0.9550498803863426 
2.2000000000002182, -0.9547411021952458 
2.2100000000002393, -0.9545668528922479 
2.2200000000002604, -0.9545434899364535 
2.2300000000002815, -0.9546694401741835 
2.2400000000003026, -0.9549258649240379 
2.2500000000003237, -0.9552811730144732 
2.260000000000345, -0.9556971332994186 
2.270000000000366, -0.9561342923819082 
2.280000000000387, -0.9565555148536526 
2.290000000000408, -0.9569277572622589 
2.3000000000004293, -0.9572229695768867 
2.3100000000004504, -0.9574190808537726 
2.3200000000004715, -0.9575014443238636 
2.3300000000004926, -0.9574642424996853 
2.3400000000005137, -0.9573108946091784 
2.3500000000005348, -0.9570530160793427 
2.360000000000556, -0.9567085679527538 
2.370000000000577, -0.9563004621132561 
2.380000000000598, -0.9558564961488708 
2.390000000000619, -0.9554103930481054 
2.4000000000006403, -0.955002551427186 
2.4100000000006614, -0.9546784862663056 
2.4200000000006825, -0.9544835091661008 
2.4300000000007036, -0.9544542275078364 
2.4400000000007247, -0.9546099077504309 
2.450000000000746, -0.9549475644534791 
2.460000000000767, -0.9554427674575725 
2.470000000000788, -0.9560550748703429 
2.480000000000809, -0.9567351541074427 
2.49000000000083, -0.9574310157001827 
2.5000000000008513, -0.9580924565838578 
2.5100000000008724, -0.9586743430104399 
2.5200000000008935, -0.959139800574965 
2.5300000000009146, -0.9594635575750676 
2.5400000000009357, -0.9596343657589717 
2.550000000000957, -0.9596549825741066 
2.560000000000978, -0.9595393619067714 
2.570000000000999, -0.9593084868628374 
2.58000000000102, -0.9589870522287919 
2.5900000000010412, -0.9586025216842982 
2.6000000000010624, -0.9581867300134899 
2.6100000000010835, -0.9577788871600716 
2.6200000000011046, -0.957427735835006 
2.6300000000011257, -0.9571900177243664 
2.6400000000011468, -0.9571232431558334 
2.650000000001168, -0.9572736735901575 
2.660000000001189, -0.9576640136200902 
2.67000000000121, -0.9582864012473798 
2.680000000001231, -0.9591033985562726 
2.6900000000012523, -0.9600552874141123 
2.7000000000012734, -0.9610697779521098 
2.7100000000012945, -0.9620712406151432 
2.7200000000013156, -0.9629888382305994 
2.7300000000013367, -0.9637640624527313 
2.740000000001358, -0.9643573094070739 
2.750000000001379, -0.9647515357734593 
2.7600000000014, -0.9649510183603507 
2.770000000001421, -0.9649755199561435 
2.780000000001442, -0.9648527218021605 
2.7900000000014633, -0.9646123130661334 
2.8000000000014844, -0.9642837001265672 
2.8100000000015055, -0.9638975419348217 
2.8200000000015266, -0.9634901478689584 
2.8300000000015477, -0.9631088544131746 
2.840000000001569, -0.9628153257507488 
2.85000000000159, -0.9626828702714507 
2.860000000001611, -0.9627851377527088 
2.870000000001632, -0.9631780631857053 
2.8800000000016532, -0.9638822083468643 
2.8900000000016743, -0.9648737096446981 
2.9000000000016954, -0.9660872119035524 
2.9100000000017165, -0.9674279506492269 
2.9200000000017377, -0.9687877771165322 
2.9300000000017588, -0.9700615346476145 
2.94000000000178, -0.9711620725839479 
2.950000000001801, -0.9720318384397274 
2.960000000001822, -0.9726478407808736 
2.970000000001843, -0.9730180030211095 
2.9800000000018643, -0.9731708474872167 
2.9900000000018854, -0.9731435820757659 
3.0000000000019065, -0.9729733030523336 
3.0100000000019276, -0.9726933618435952 
3.0200000000019487, -0.9723346598523819 
3.03000000000197, -0.9719307424421133 
3.040000000001991, -0.9715252231213591 
3.050000000002012, -0.971179068065385 
3.060000000002033, -0.9709733860787398 
3.070000000002054, -0.971002331652346 
3.0800000000020753, -0.9713536396359785 
3.0900000000020964, -0.9720818674246244 
3.1000000000021175, -0.9731862691243605 
3.1100000000021386, -0.9746041365566013 
3.1200000000021597, -0.9762218110217402 
3.130000000002181, -0.9778975942057075 
3.140000000002202, -0.9794888607998737 
3.150000000002223, -0.9808772469819566 
3.160000000002244, -0.9819865962033972 
3.1700000000022652, -0.9827889324262999 
3.1800000000022863, -0.9832972950912119 
3.1900000000023074, -0.9835500640949331 
3.2000000000023285, -0.9835945264640304 
3.2100000000023496, -0.983475527517163 
3.2200000000023707, -0.983230930331859 
3.230000000002392, -0.9828928855356172 
3.240000000002413, -0.982493375674875 
3.250000000002434, -0.9820727748889215 
3.260000000002455, -0.9816895932116664 
3.2700000000024763, -0.9814273589978031 
3.2800000000024974, -0.9813919302957885 
3.2900000000025185, -0.9816932661500886 
3.3000000000025396, -0.9824133617242333 
3.3100000000025607, -0.9835732641181638 
3.3200000000025818, -0.9851162333190226 
3.330000000002603, -0.9869156732397084 
3.340000000002624, -0.9888033651171071 
3.350000000002645, -0.9906065830867602 
3.360000000002666, -0.9921828049008617 
3.3700000000026873, -0.9934429470630244 
3.3800000000027084, -0.9943572781775213 
3.3900000000027295, -0.9949444291937052 
3.4000000000027506, -0.9952510511842976 
3.4100000000027717, -0.9953320658192997 
3.420000000002793, -0.9952378552279365 
3.430000000002814, -0.9950095137883419 
3.440000000002835, -0.9946804357708698 
3.450000000002856, -0.9942823474368586 
3.460000000002877, -0.9938545811016521 
3.4700000000028983, -0.9934550477015799 
3.4800000000029194, -0.9931689795779803 
3.4900000000029405, -0.9931080701190028 
3.5000000000029616, -0.9933923661684851 
3.5100000000029827, -0.9941151294120922 
3.520000000003004, -0.9953044572058838 
3.530000000003025, -0.9969022230733738 
3.540000000003046, -0.9987720834233003 
3.550000000003067, -1.0007319675211792 
3.5600000000030882, -1.0025968060533987 
3.5700000000031094, -1.0042171797123083 
3.5800000000031305, -1.005503335013778 
3.5900000000031516, -1.0064291817214273 
3.6000000000031727, -1.0070184320194635 
3.6100000000031938, -1.0073221118458255 
3.620000000003215, -1.0073979993110556 
3.630000000003236, -1.0072979842610548 
3.640000000003257, -1.0070638852456637 
3.650000000003278, -1.0067296542679087 
3.6600000000032993, -1.006327992537543 
3.6700000000033204, -1.005900136115622 
3.6800000000033415, -1.0055070270311934 
3.6900000000033626, -1.005237370995006 
3.7000000000033837, -1.005204644129642 
3.710000000003405, -1.0055258575087618 
3.720000000003426, -1.0062845056033702 
3.730000000003447, -1.0074940744938543 
3.740000000003468, -1.0090826411443836 
3.750000000003489, -1.010906951406763 
3.7600000000035103, -1.0127877023355936 
3.7700000000035314, -1.0145506853084034 
3.7800000000035525, -1.0160609490033958 
3.7900000000035736, -1.0172418876680038 
3.8000000000035947, -1.0180759699654776 
3.810000000003616, -1.0185901658447065 
3.820000000003637, -1.0188347676346863 
3.830000000003658, -1.018864878670048 
3.840000000003679, -1.0187295533972993 
3.8500000000037002, -1.0184688267871937 
3.8600000000037213, -1.018116731232113 
3.8700000000037424, -1.0177084840815804 
3.8800000000037635, -1.017290341440998 
3.8900000000037847, -1.0169294230767307 
3.9000000000038058, -1.0167178610038392 
3.910000000003827, -1.0167635929051178 
3.920000000003848, -1.017164241851186 
3.930000000003869, -1.0179722495142356 
3.94000000000389, -1.0191694973839285 
3.9500000000039113, -1.0206658888607008 
3.9600000000039324, -1.0223212019843477 
3.9700000000039535, -1.0239780748318956 
3.9800000000039746, -1.0254937978697298 
3.9900000000039957, -1.0267637063661175 
4.000000000004016, -1.0277325462644846 
4.010000000003993, -1.0283925388994517 
4.02000000000397, -1.0287706742529532 
4.030000000003946, -1.0289116691732958 
4.040000000003923, -1.0288635079854058 
4.0500000000039, -1.0286693782116236 
4.0600000000038765, -1.0283662800724225 
4.070000000003853, -1.0279888785039082 
4.08000000000383, -1.0275768810425425 
4.090000000003807, -1.0271836912029029 
4.100000000003783, -1.0268822281897625 
4.11000000000376, -1.026761732408732 
4.120000000003737, -1.02691091888569 
4.130000000003713, -1.0273908860499612 
4.14000000000369, -1.028210917550932 
4.150000000003667, -1.029320987081634 
4.1600000000036434, -1.0306239064155593 
4.17000000000362, -1.031998658618204 
4.180000000003597, -1.0333243495996773 
4.1900000000035735, -1.0344990531637563 
4.20000000000355, -1.0354520880478675 
4.210000000003527, -1.0361491163737546 
4.220000000003504, -1.0365894622730434 
4.23000000000348, -1.0367968883583687 
4.240000000003457, -1.0368077420232804 
4.250000000003434, -1.0366610984424791 
4.26000000000341, -1.0363937281627116 
4.270000000003387, -1.0360403070243103 
4.280000000003364, -1.035637755166527 
4.2900000000033405, -1.0352316446946155 
4.300000000003317, -1.0348812863074965 
4.310000000003294, -1.0346586520169532 
4.320000000003271, -1.0346371527678397 
4.330000000003247, -1.0348718701552717 
4.340000000003224, -1.0353804170687586 
4.350000000003201, -1.0361352907905519 
4.360000000003177, -1.0370711619730784 
4.370000000003154, -1.0381012979714666 
4.380000000003131, -1.0391346528890903 
4.390000000003107, -1.0400888389589897 
4.400000000003084, -1.0408985906687473 
4.410000000003061, -1.0415208287855875 
4.4200000000030375, -1.0419365001352585 
4.430000000003014, -1.0421485234397605 
4.440000000002991, -1.0421760856343385 
4.450000000002968, -1.0420474114626732 
4.460000000002944, -1.0417939545543526 
4.470000000002921, -1.0414480321482613 
4.480000000002898, -1.0410442034141714 
4.490000000002874, -1.0406230762499833 
4.500000000002851, -1.0402347694117133 
4.510000000002828, -1.0399381665281882 
4.520000000002804, -1.0397928463909216 
4.530000000002781, -1.0398446669486439 
4.540000000002758, -1.0401115113466828 
4.5500000000027345, -1.040577175915955 
4.560000000002711, -1.0411962916441126 
4.570000000002688, -1.0419063311603336 
4.580000000002665, -1.0426402748364838 
4.590000000002641, -1.0433358595171571 
4.600000000002618, -1.0439409043374757 
4.610000000002595, -1.044416159108309 
4.620000000002571, -1.0447369759447092 
4.630000000002548, -1.0448939039831626 
4.640000000002525, -1.0448915364086047 
4.6500000000025015, -1.0447454623881827 
4.660000000002478, -1.0444784531186564 
4.670000000002455, -1.0441176934369267 
4.6800000000024315, -1.0436942837872611 
4.690000000002408, -1.04324477967182 
4.700000000002385, -1.0428129039679692 
4.710000000002362, -1.0424484706041202 
4.720000000002338, -1.0422011062925158 
4.730000000002315, -1.042109392219943 
4.740000000002292, -1.0421900639263233 
4.750000000002268, -1.042433091476761 
4.760000000002245, -1.0428050368130548 
4.770000000002222, -1.0432581486704533 
4.7800000000021985, -1.043740430619333 
4.790000000002175, -1.0442031670231822 
4.800000000002152, -1.0446049889384927 
4.810000000002129, -1.0449134422984236 
4.820000000002105, -1.0451055052842428 
4.830000000002082, -1.0451679399876643 
4.840000000002059, -1.0450974729791027 
4.850000000002035, -1.0449003130527117 
4.860000000002012, -1.0445908310276573 
4.870000000001989, -1.0441900001455973 
4.880000000001965, -1.0437245541625502 
4.890000000001942, -1.0432272242622536 
4.900000000001919, -1.0427371286334153 
4.9100000000018955, -1.042298276305857 
4.920000000001872, -1.0419543363246788 
