t, s[1].omega / s[0].omega 
0, -0.6599977062170833 
0.009999999999999995, -0.6597583772775633 
0.019999999999999934, -0.6594967897292261 
0.029999999999999874, -0.6592067984817889 
0.04000000000000012, -0.6588821868813444 
0.050000000000000405, -0.658520095233607 
0.06000000000000069, -0.6581228815579714 
0.07000000000000098, -0.6576984747526977 
0.08000000000000126, -0.6572603107019289 
0.09000000000000155, -0.6568279669310771 
0.10000000000000184, -0.6564290724882945 
0.11000000000000212, -0.6561025055200002 
0.12000000000000241, -0.6559024624935912 
0.130000000000002, -0.6559025852055294 
0.1400000000000009, -0.6561988186307605 
0.1499999999999998, -0.6569089327637537 
0.1599999999999987, -0.6581655949775806 
0.1699999999999976, -0.6600986548978524 
0.1799999999999965, -0.662801951323997 
0.1899999999999954, -0.6662836748206404 
0.1999999999999943, -0.6704122059646547 
0.2099999999999932, -0.6748910217054674 
0.2199999999999921, -0.679305858509002 
0.229999999999991, -0.6832495391418109 
0.2399999999999899, -0.6864561023567111 
0.2499999999999888, -0.688854368985647 
0.2599999999999877, -0.6905236588125503 
0.2699999999999866, -0.6916099959936013 
0.2799999999999855, -0.6922607495722628 
0.2899999999999844, -0.6925939434412536 
0.2999999999999833, -0.6926916287355922 
0.3099999999999822, -0.6926033074584219 
0.3199999999999811, -0.6923508759697896 
0.32999999999998, -0.6919314471809885 
0.3399999999999789, -0.6913169224317921 
0.3499999999999778, -0.6904503752904907 
0.35999999999997667, -0.6892406444055205 
0.36999999999997557, -0.6875595047748055 
0.37999999999997447, -0.685251336064428 
0.38999999999997337, -0.682170600660674 
0.39999999999997227, -0.6782560402420889 
0.40999999999997117, -0.673617459006653 
0.41999999999997006, -0.6685679493536427 
0.42999999999996896, -0.6635472393951347 
0.43999999999996786, -0.658972292652106 
0.44999999999996676, -0.6551166212997652 
0.45999999999996566, -0.6520786907689075 
0.46999999999996456, -0.6498205132972406 
0.47999999999996346, -0.6482278732612027 
0.48999999999996235, -0.6471602955373402 
0.49999999999996125, -0.6464819897370029 
0.5099999999999602, -0.6460767896692629 
0.519999999999959, -0.6458526996186217 
0.529999999999958, -0.6457406838199488 
0.5399999999999568, -0.6456908198097413 
0.5499999999999557, -0.6456677576042779 
0.5599999999999546, -0.6456466416456796 
0.5699999999999535, -0.6456101418048152 
0.5799999999999524, -0.6455468506590429 
0.5899999999999513, -0.6454508650970301 
0.5999999999999502, -0.6453218056813823 
0.6099999999999491, -0.6451640859356719 
0.619999999999948, -0.6449845027776453 
0.6299999999999469, -0.6447884642102395 
0.6399999999999458, -0.6445766393477603 
0.6499999999999447, -0.6443440964933453 
0.6599999999999436, -0.6440825542137308 
0.6699999999999425, -0.6437843450126615 
0.6799999999999414, -0.6434458400705436 
0.6899999999999403, -0.6430690096011794 
0.6999999999999392, -0.6426614311039741 
0.7099999999999381, -0.6422360073467087 
0.719999999999937, -0.6418115694663558 
0.7299999999999359, -0.6414149727144915 
0.7399999999999348, -0.6410847743874922 
0.7499999999999337, -0.6408762098747879 
0.7599999999999326, -0.6408667718833837 
0.7699999999999315, -0.6411610155163582 
0.7799999999999304, -0.6418920443798001 
0.7899999999999293, -0.6432153312172597 
0.7999999999999282, -0.6452883486496563 
0.8099999999999271, -0.6482287235867246 
0.819999999999926, -0.6520494077976282 
0.8299999999999249, -0.6565890719595439 
0.8399999999999238, -0.6614864861884334 
0.8499999999999227, -0.6662539909399706 
0.8599999999999216, -0.6704414085520044 
0.8699999999999205, -0.6737870564032238 
0.8799999999999194, -0.6762535223419115 
0.8899999999999183, -0.6779554458354313 
0.8999999999999172, -0.6790616209314415 
0.9099999999999161, -0.6797299684397761 
0.919999999999915, -0.6800820282747388 
0.9299999999999139, -0.680200510097446 
0.9399999999999128, -0.6801348732915434 
0.9499999999999117, -0.6799071468341621 
0.9599999999999106, -0.6795151398827436 
0.9699999999999095, -0.6789324598184905 
0.9799999999999084, -0.67810588881821 
0.9899999999999073, -0.6769521553406344 
0.9999999999999062, -0.6753591340376328 
1.0099999999999052, -0.6732008939665959 
1.019999999999904, -0.6703773878585388 
1.029999999999903, -0.6668775785525665 
1.039999999999902, -0.6628352502327315 
1.0499999999999008, -0.6585268931555025 
1.0599999999998997, -0.6542935708569562 
1.0699999999998986, -0.6504341004269012 
1.0799999999998975, -0.6471361864305358 
1.0899999999998964, -0.6444681709348812 
1.0999999999998953, -0.6424091184842287 
1.1099999999998942, -0.6408871153375422 
1.119999999999893, -0.6398095683633563 
1.129999999999892, -0.6390822992088045 
1.1399999999998909, -0.6386197819838276 
1.1499999999998898, -0.6383496223302692 
1.1599999999998887, -0.6382135826213631 
1.1699999999998876, -0.6381666498417023 
1.1799999999998865, -0.6381751509176703 
1.1899999999998854, -0.6382146459697099 
1.1999999999998843, -0.6382681188185435 
1.2099999999998832, -0.6383247177977469 
1.219999999999882, -0.6383789101101789 
1.229999999999881, -0.6384294615378037 
1.2399999999998799, -0.6384774495748949 
1.2499999999998788, -0.6385230016144893 
1.2599999999998777, -0.6385616535100993 
1.2699999999998766, -0.6385823119105865 
1.2799999999998755, -0.6385685471630986 
1.2899999999998744, -0.6385030319901236 
1.2999999999998733, -0.6383727615975219 
1.3099999999998722, -0.6381722648034248 
1.319999999999871, -0.6379037562828777 
1.32999999999987, -0.6375753457037112 
1.3399999999998689, -0.6371992647186128 
1.3499999999998678, -0.6367915884115518 
1.3599999999998666, -0.636374129175229 
1.3699999999998655, -0.6359787229407419 
1.3799999999998644, -0.6356539636845188 
1.3899999999998633, -0.6354741671141035 
1.3999999999998622, -0.6355494437962088 
1.4099999999998611, -0.6360336429816745 
1.41999999999986, -0.6371230601960362 
1.429999999999859, -0.6390336195233246 
1.4399999999998578, -0.6419417797260436 
1.4499999999998567, -0.6458859096440056 
1.4599999999998556, -0.6506638778958478 
1.4699999999998545, -0.6558134367488402 
1.4799999999998534, -0.660747501066879 
1.4899999999998523, -0.6649846470656928 
1.4999999999998512, -0.6683024232902183 
1.5099999999998501, -0.6707218701839748 
1.519999999999849, -0.672394457501205 
1.529999999999848, -0.67349906849581 
1.5399999999998468, -0.6741893600669097 
1.5499999999998457, -0.6745793601725416 
1.5599999999998446, -0.6747461281689312 
1.5699999999998435, -0.6747365813889789 
1.5799999999998424, -0.6745732401828063 
1.5899999999998413, -0.674257448094081 
1.5999999999998402, -0.6737701509446823 
1.6099999999998391, -0.6730712133237954 
1.619999999999838, -0.6720995573081247 
1.629999999999837, -0.670778507098791 
1.6399999999998358, -0.6690324298679313 
1.6499999999998347, -0.6668180235881616 
1.6599999999998336, -0.6641618961400559 
1.6699999999998325, -0.6611807939036639 
1.6799999999998314, -0.6580623139113679 
1.6899999999998303, -0.6550119494420129 
1.6999999999998292, -0.65219924616223 
1.709999999999828, -0.6497307341027657 
1.719999999999827, -0.6476516880863844 
1.729999999999826, -0.6459626013409862 
1.7399999999998248, -0.6446370761411061 
1.7499999999998237, -0.6436351988739426 
1.7599999999998226, -0.6429119078565199 
1.7699999999998215, -0.6424218575426155 
1.7799999999998204, -0.6421222796983788 
1.7899999999998193, -0.6419747440259401 
1.7999999999998182, -0.6419462122248387 
1.809999999999817, -0.6420095362726769 
1.819999999999816, -0.6421435071954344 
1.8299999999998149, -0.6423325682983061 
1.8399999999998138, -0.6425662308710602 
1.8499999999998127, -0.6428380164565006 
1.8599999999998116, -0.6431435114256365 
1.8699999999998105, -0.6434771831076422 
1.8799999999998094, -0.6438283266924034 
1.8899999999998083, -0.6441777737132816 
1.8999999999998072, -0.6444978099482415 
1.909999999999806, -0.6447567543988645 
1.919999999999805, -0.6449267091704198 
1.9299999999998039, -0.6449903757724218 
1.9399999999998028, -0.6449433529123183 
1.9499999999998017, -0.644791666955214 
1.9599999999998006, -0.6445471427824423 
1.9699999999997995, -0.6442235140769326 
1.9799999999997984, -0.6438348317073236 
1.9899999999997973, -0.6433965362869689 
1.9999999999997962, -0.6429292038068322 
2.0099999999998173, -0.6424651449897787 
2.0199999999998384, -0.6420581269453653 
2.0299999999998595, -0.6417957765238165 
2.0399999999998806, -0.6418117614908485 
2.0499999999999017, -0.6422895886379001 
2.059999999999923, -0.6434423165609094 
2.069999999999944, -0.6454492690714886 
2.079999999999965, -0.6483492132979746 
2.089999999999986, -0.6519432645124972 
2.100000000000007, -0.6558091039884271 
2.1100000000000283, -0.6594674333073237 
2.1200000000000494, -0.6625819328993331 
2.1300000000000705, -0.6650340582810635 
2.1400000000000916, -0.6668636359537075 
2.1500000000001127, -0.668176287707479 
2.160000000000134, -0.6690839977874374 
2.170000000000155, -0.6696815365173178 
2.180000000000176, -0.6700413591570861 
2.190000000000197, -0.6702148790125527 
2.2000000000002182, -0.6702349995766789 
2.2100000000002393, -0.6701181570217437 
2.2200000000002604, -0.669865368446934 
2.2300000000002815, -0.6694623916145491 
2.2400000000003026, -0.6688797895884819 
2.2500000000003237, -0.6680747633971639 
2.260000000000345, -0.6669978465352233 
2.270000000000366, -0.6656075428252584 
2.280000000000387, -0.6638921445900028 
2.290000000000408, -0.6618897620129168 
2.3000000000004293, -0.6596919431433932 
2.3100000000004504, -0.6574236852773581 
2.3200000000004715, -0.6552102139146203 
2.3300000000004926, -0.6531499106190571 
2.3400000000005137, -0.651304314577674 
2.3500000000005348, -0.6497024637059505 
2.360000000000556, -0.6483510125571239 
2.370000000000577, -0.6472436287514788 
2.380000000000598, -0.6463672602051382 
2.390000000000619, -0.6457055098366723 
2.4000000000006403, -0.6452402418906185 
2.4100000000006614, -0.6449524550495734 
2.4200000000006825, -0.6448230483922216 
2.4300000000007036, -0.6448337048187993 
2.4400000000007247, -0.6449678419108518 
2.450000000000746, -0.6452114422674434 
2.460000000000767, -0.6455535164029599 
2.470000000000788, -0.6459858850301015 
2.480000000000809, -0.6465018595714714 
2.49000000000083, -0.6470933807832723 
2.5000000000008513, -0.6477465844021839 
2.5100000000008724, -0.6484369167423925 
2.5200000000008935, -0.6491265122156886 
2.5300000000009146, -0.6497671032298922 
2.5400000000009357, -0.6503094178634509 
2.550000000000957, -0.650715296432814 
2.560000000000978, -0.6509658438810968 
2.570000000000999, -0.6510615201327125 
2.58000000000102, -0.6510157691942935 
2.5900000000010412, -0.6508469647837911 
2.6000000000010624, -0.6505724144249351 
2.6100000000010835, -0.6502056074484269 
2.6200000000011046, -0.649756336461158 
2.6300000000011257, -0.6492331418703385 
2.6400000000011468, -0.6486480127804701 
2.650000000001168, -0.6480236908257687 
2.660000000001189, -0.6474035935446188 
2.67000000000121, -0.6468623745526477 
2.680000000001231, -0.6465104689518459 
2.6900000000012523, -0.6464796290730384 
2.7000000000012734, -0.6468764116236926 
2.7100000000012945, -0.6477130207030489 
2.7200000000013156, -0.6488693895130127 
2.7300000000013367, -0.6501463828906802 
2.740000000001358, -0.6513780148575284 
2.750000000001379, -0.65249007882382 
2.7600000000014, -0.6534690774495717 
2.770000000001421, -0.6543127360810089 
2.780000000001442, -0.655013902471906 
2.7900000000014633, -0.6555669353251442 
2.8000000000014844, -0.6559738618973169 
2.8100000000015055, -0.6562437755114724 
2.8200000000015266, -0.6563885525509796 
2.8300000000015477, -0.6564183186064948 
2.840000000001569, -0.6563380004281888 
2.85000000000159, -0.6561450071015342 
2.860000000001611, -0.6558278756717616 
2.870000000001632, -0.6553661891807391 
2.8800000000016532, -0.6547328552856103 
2.8900000000016743, -0.6539003423954957 
2.9000000000016954, -0.6528515753820077 
2.9100000000017165, -0.6515928660553341 
2.9200000000017377, -0.6501619595231447 
2.9300000000017588, -0.6486241257340428 
2.94000000000178, -0.6470564341077834 
2.950000000001801, -0.6455290730094697 
2.960000000001822, -0.6440935646800312 
2.970000000001843, -0.6427810060307915 
2.9800000000018643, -0.6416069763255254 
2.9900000000018854, -0.640578179077403 
3.0000000000019065, -0.6396977147715346 
3.0100000000019276, -0.6389681056472205 
3.0200000000019487, -0.6383924469849646 
3.03000000000197, -0.6379744171842574 
3.040000000001991, -0.6377178087976311 
3.050000000002012, -0.6376260562557559 
3.060000000002033, -0.6377020346883284 
3.070000000002054, -0.6379481910043061 
3.0800000000020753, -0.6383668328252307 
3.0900000000020964, -0.6389601419712427 
3.1000000000021175, -0.6397292130835683 
3.1100000000021386, -0.6406712342956965 
3.1200000000021597, -0.6417741087854938 
3.130000000002181, -0.6430088910618971 
3.140000000002202, -0.6443227728845099 
3.150000000002223, -0.6456381136824214 
3.160000000002244, -0.6468629577097602 
3.1700000000022652, -0.6479122814390198 
3.1800000000022863, -0.6487298005742026 
3.1900000000023074, -0.6492976431237396 
3.2000000000023285, -0.6496300941767927 
3.2100000000023496, -0.6497584864005558 
3.2200000000023707, -0.6497167098241255 
3.230000000002392, -0.6495320519439515 
3.240000000002413, -0.6492211401341057 
3.250000000002434, -0.6487888555387842 
3.260000000002455, -0.6482283438699427 
3.2700000000024763, -0.6475210899419747 
3.2800000000024974, -0.6466366660152131 
3.2900000000025185, -0.6455320348995792 
3.3000000000025396, -0.6441503183961315 
3.3100000000025607, -0.6424195236486676 
3.3200000000025818, -0.6402553270669527 
3.330000000002603, -0.6375815228021464 
3.340000000002624, -0.6343886910475602 
3.350000000002645, -0.63082240550668 
3.360000000002666, -0.6272180261937237 
3.3700000000026873, -0.6239927028217626 
3.3800000000027084, -0.6214538035915244 
3.3900000000027295, -0.6196897855523134 
3.4000000000027506, -0.6186047715490438 
3.4100000000027717, -0.618019706608712 
3.420000000002793, -0.6177550720421083 
3.430000000002814, -0.6176693732240162 
3.440000000002835, -0.6176653586309875 
3.450000000002856, -0.6176817165378299 
3.460000000002877, -0.6176815090184168 
3.4700000000028983, -0.6176421553098338 
3.4800000000029194, -0.617548228404438 
3.4900000000029405, -0.6173870055062805 
3.5000000000029616, -0.6171465306219979 
3.5100000000029827, -0.6168161105826342 
3.520000000003004, -0.6163890652753952 
3.530000000003025, -0.6158667589918297 
3.540000000003046, -0.6152616641752975 
3.550000000003067, -0.6145967536261946 
3.5600000000030882, -0.6139002952060103 
3.5700000000031094, -0.6131983760645007 
3.5800000000031305, -0.6125092180157454 
3.5900000000031516, -0.6118418605961882 
3.6000000000031727, -0.6111987669489033 
3.6100000000031938, -0.6105800477595604 
3.620000000003215, -0.6099871887111079 
3.630000000003236, -0.6094254601639721 
3.640000000003257, -0.6089053042439805 
3.650000000003278, -0.6084433717068173 
3.6600000000032993, -0.608063696895671 
3.6700000000033204, -0.6077991513522492 
3.6800000000033415, -0.6076930385756731 
3.6900000000033626, -0.6078005065737343 
3.7000000000033837, -0.6081892634731358 
3.710000000003405, -0.60893872485693 
3.720000000003426, -0.6101360148655173 
3.730000000003447, -0.6118661225278093 
3.740000000003468, -0.6141924919917783 
3.750000000003489, -0.6171253535850134 
3.7600000000035103, -0.6205820167519287 
3.7700000000035314, -0.624358504589529 
3.7800000000035525, -0.6281456540361318 
3.7900000000035736, -0.63160849937236 
3.8000000000035947, -0.6344952873054609 
3.810000000003616, -0.6367041365728767 
3.820000000003637, -0.6382700168298402 
3.830000000003658, -0.6393026187087382 
3.840000000003679, -0.6399264151968713 
3.8500000000037002, -0.6402469953829957 
3.8600000000037213, -0.6403402667061331 
3.8700000000037424, -0.6402530471660547 
3.8800000000037635, -0.6400065614560901 
3.8900000000037847, -0.6395987270633513 
3.9000000000038058, -0.6390037865117911 
3.910000000003827, -0.6381692748628873 
3.920000000003848, -0.6370118340921618 
3.930000000003869, -0.6354163798995697 
3.94000000000389, -0.6332481017243653 
3.9500000000039113, -0.6303901959413363 
3.9600000000039324, -0.6268108424964274 
3.9700000000039535, -0.6226311844697693 
3.9800000000039746, -0.6181356764636176 
3.9900000000039957, -0.6136926123268756 
4.000000000004016, -0.6096313834111252 
4.010000000003993, -0.6061584733651264 
4.02000000000397, -0.6033459892086419 
4.030000000003946, -0.6011675960387872 
4.040000000003923, -0.5995439725099238 
4.0500000000039, -0.5983773511326683 
4.0600000000038765, -0.5975717161431258 
4.070000000003853, -0.597042335999908 
4.08000000000383, -0.59671900432599 
4.090000000003807, -0.5965460439645501 
4.100000000003783, -0.5964808362554179 
4.11000000000376, -0.596491834928028 
4.120000000003737, -0.5965566041759138 
4.130000000003713, -0.5966601809383089 
4.14000000000369, -0.5967938367934493 
4.150000000003667, -0.5969540082203881 
4.1600000000036434, -0.5971408115897167 
4.17000000000362, -0.597355419295532 
4.180000000003597, -0.5975960476953286 
4.1900000000035735, -0.5978535224719919 
4.20000000000355, -0.5981086968667653 
4.210000000003527, -0.5983340813777215 
4.220000000003504, -0.5984999992712771 
4.23000000000348, -0.5985824354240129 
4.240000000003457, -0.5985683285086358 
4.250000000003434, -0.5984559997461254 
4.26000000000341, -0.5982517962779199 
4.270000000003387, -0.5979657595954537 
4.280000000003364, -0.5976085550264065 
4.2900000000033405, -0.5971905425115456 
4.300000000003317, -0.5967230447454109 
4.310000000003294, -0.596221755541588 
4.320000000003271, -0.595712387084425 
4.330000000003247, -0.5952384857967192 
4.340000000003224, -0.5948700913617075 
4.350000000003201, -0.594708579579221 
4.360000000003177, -0.5948773140480533 
4.370000000003154, -0.5954836408941289 
4.380000000003131, -0.5965490428917773 
4.390000000003107, -0.5979460958852768 
4.400000000003084, -0.5994226520707164 
4.410000000003061, -0.6007382694816751 
4.4200000000030375, -0.601793102175227 
4.430000000003014, -0.6026216128752124 
4.440000000002991, -0.6032967599739543 
4.450000000002968, -0.6038640832336447 
4.460000000002944, -0.604336305015063 
4.470000000002921, -0.6047118451892486 
4.480000000002898, -0.6049886188337513 
4.490000000002874, -0.6051681071168509 
4.500000000002851, -0.6052539940936723 
4.510000000002828, -0.6052493238066424 
4.520000000002804, -0.605153975444721 
4.530000000002781, -0.604962997219235 
4.540000000002758, -0.604666067921361 
4.5500000000027345, -0.6042486124885029 
4.560000000002711, -0.603695364573871 
4.570000000002688, -0.6029967498454772 
4.580000000002665, -0.6021567225730544 
4.590000000002641, -0.6011981879658118 
4.600000000002618, -0.6001615212075675 
4.610000000002595, -0.5990953237547061 
4.620000000002571, -0.5980441584785423 
4.630000000002548, -0.5970399300972246 
4.640000000002525, -0.5961001342964365 
4.6500000000025015, -0.5952314996998449 
4.660000000002478, -0.5944355506626986 
4.670000000002455, -0.5937134374109154 
4.6800000000024315, -0.5930690943262534 
4.690000000002408, -0.5925109724149118 
4.700000000002385, -0.5920529530221963 
4.710000000002362, -0.5917149169678376 
4.720000000002338, -0.5915231956327724 
4.730000000002315, -0.5915109484865037 
4.740000000002292, -0.591718391700884 
4.750000000002268, -0.5921926443757914 
4.760000000002245, -0.592986626236606 
4.770000000002222, -0.5941558147150403 
4.7800000000021985, -0.5957507791373782 
4.790000000002175, -0.5978027645515666 
4.800000000002152, -0.6003007401423125 
4.810000000002129, -0.6031638883552172 
4.820000000002105, -0.6062244052065517 
4.830000000002082, -0.6092437297107427 
4.840000000002059, -0.6119727267569833 
4.850000000002035, -0.6142292876614697 
4.860000000002012, -0.6159431855039317 
4.870000000001989, -0.6171444085772647 
4.880000000001965, -0.6179174497514832 
4.890000000001942, -0.618357318031608 
4.900000000001919, -0.6185442080583164 
4.9100000000018955, -0.6185346703007026 
4.920000000001872, -0.6183611484630465 
