t, s[1].omega / s[0].omega 
0, -0.5199977516365314 
0.009999999999999995, -0.5197891582817415 
0.019999999999999934, -0.5196057172576986 
0.029999999999999874, -0.5194293189586949 
0.04000000000000012, -0.5192376400844017 
0.050000000000000405, -0.5190114309210767 
0.06000000000000069, -0.5187389371809571 
0.07000000000000098, -0.5184165612452886 
0.08000000000000126, -0.5180472114206071 
0.09000000000000155, -0.5176385115642658 
0.10000000000000184, -0.5172024499836663 
0.11000000000000212, -0.5167572764327479 
0.12000000000000241, -0.516332131762824 
0.130000000000002, -0.5159748963986285 
0.1400000000000009, -0.5157634676793036 
0.1499999999999998, -0.5158189493602003 
0.1599999999999987, -0.5163138698223209 
0.1699999999999976, -0.517456818219268 
0.1799999999999965, -0.5194196382647702 
0.1899999999999954, -0.5221818206486237 
0.1999999999999943, -0.5253605191399648 
0.2099999999999932, -0.5282558641199346 
0.2199999999999921, -0.5302599387937236 
0.229999999999991, -0.5312744472338045 
0.2399999999999899, -0.5316452579110614 
0.2499999999999888, -0.5317764004705114 
0.2599999999999877, -0.5318956807989318 
0.2699999999999866, -0.5320634261871492 
0.2799999999999855, -0.5322607504048237 
0.2899999999999844, -0.5324517858284178 
0.2999999999999833, -0.5326080228782285 
0.3099999999999822, -0.5327119456950321 
0.3199999999999811, -0.5327536271908174 
0.32999999999998, -0.5327264841712118 
0.3399999999999789, -0.5326242191369166 
0.3499999999999778, -0.5324394957746306 
0.35999999999997667, -0.5321646374735244 
0.36999999999997557, -0.5317945498201742 
0.37999999999997447, -0.5313313950193819 
0.38999999999997337, -0.5307890460689955 
0.39999999999997227, -0.530194026057575 
0.40999999999997117, -0.5295805549617932 
0.41999999999997006, -0.5289810441258114 
0.42999999999996896, -0.5284169157962634 
0.43999999999996786, -0.5278944671409064 
0.44999999999996676, -0.5274070395864535 
0.45999999999996566, -0.5269412512826952 
0.46999999999996456, -0.5264837356801615 
0.47999999999996346, -0.5260257890441588 
0.48999999999996235, -0.5255653720200846 
0.49999999999996125, -0.5251075548724485 
0.5099999999999602, -0.52466500204836 
0.519999999999959, -0.5242597790344296 
0.529999999999958, -0.5239273219969051 
0.5399999999999568, -0.5237231960229838 
0.5499999999999557, -0.5237331877781799 
0.5599999999999546, -0.5240868942110566 
0.5699999999999535, -0.5249733887957528 
0.5799999999999524, -0.5266530572500299 
0.5899999999999513, -0.5294497779805686 
0.5999999999999502, -0.5336920352795481 
0.6099999999999491, -0.5395643636781589 
0.619999999999948, -0.5468780776662645 
0.6299999999999469, -0.5549152606478934 
0.6399999999999458, -0.5626060662965748 
0.6499999999999447, -0.5690410463453637 
0.6599999999999436, -0.5738678129320853 
0.6699999999999425, -0.5772366621401903 
0.6799999999999414, -0.5795012520742853 
0.6899999999999403, -0.5809971349926994 
0.6999999999999392, -0.581970071408316 
0.7099999999999381, -0.582582387454967 
0.719999999999937, -0.582936882502189 
0.7299999999999359, -0.5830964274694328 
0.7399999999999348, -0.5830962909013764 
0.7499999999999337, -0.5829510617213391 
0.7599999999999326, -0.5826583579965047 
0.7699999999999315, -0.5822013332460692 
0.7799999999999304, -0.5815522927551643 
0.7899999999999293, -0.5806801922206187 
0.7999999999999282, -0.5795639765852958 
0.8099999999999271, -0.5782096587747588 
0.819999999999926, -0.5766624676925488 
0.8299999999999249, -0.5750032087362016 
0.8399999999999238, -0.5733271260725125 
0.8499999999999227, -0.5717174625346092 
0.8599999999999216, -0.5702289791573321 
0.8699999999999205, -0.5688866598988936 
0.8799999999999194, -0.5676944062683938 
0.8899999999999183, -0.5666460378320087 
0.8999999999999172, -0.5657339271803188 
0.9099999999999161, -0.5649541393545043 
0.919999999999915, -0.5643088548314532 
0.9299999999999139, -0.5638072764847012 
0.9399999999999128, -0.5634659389089126 
0.9499999999999117, -0.5633089431491387 
0.9599999999999106, -0.5633683640617754 
0.9699999999999095, -0.563684905395806 
0.9799999999999084, -0.5643086783529355 
0.9899999999999073, -0.565299574467835 
0.9999999999999062, -0.5667258917232684 
1.0099999999999052, -0.5686585130366626 
1.019999999999904, -0.5711562986245002 
1.029999999999903, -0.5742380231301059 
1.039999999999902, -0.5778412257930541 
1.0499999999999008, -0.581783611309874 
1.0599999999998997, -0.5857629016985421 
1.0699999999998986, -0.5894273053655151 
1.0799999999998975, -0.5924945880626526 
1.0899999999998964, -0.5948391090806665 
1.0999999999998953, -0.5964895652954139 
1.1099999999998942, -0.5975626313415532 
1.119999999999893, -0.5981936180121904 
1.129999999999892, -0.5984965055357525 
1.1399999999998909, -0.5985508944683914 
1.1499999999998898, -0.598402216337488 
1.1599999999998887, -0.5980648517225271 
1.1699999999998876, -0.5975230601278441 
1.1799999999998865, -0.5967278093863974 
1.1899999999998854, -0.5955895066034738 
1.1999999999998843, -0.5939695429267096 
1.2099999999998832, -0.5916801547465214 
1.219999999999882, -0.5885127226449459 
1.229999999999881, -0.5843182000179975 
1.2399999999998799, -0.5791314244382411 
1.2499999999998788, -0.573257371558719 
1.2599999999998777, -0.5672117997786911 
1.2699999999998766, -0.5615273045942806 
1.2799999999998755, -0.5565732736006352 
1.2899999999998744, -0.5525017187599824 
1.2999999999998733, -0.5492976898991043 
1.3099999999998722, -0.546857985033691 
1.319999999999871, -0.545051159579258 
1.32999999999987, -0.5437502385572882 
1.3399999999998689, -0.5428459956291367 
1.3499999999998678, -0.5422499470092179 
1.3599999999998666, -0.5418930121122874 
1.3699999999998655, -0.5417228658866218 
1.3799999999998644, -0.5417012752593597 
1.3899999999998633, -0.5418018827656834 
1.3999999999998622, -0.5420085452470246 
1.4099999999998611, -0.542314134647486 
1.41999999999986, -0.5427194546638892 
1.429999999999859, -0.5432315368551954 
1.4399999999998578, -0.5438601762041876 
1.4499999999998567, -0.5446115755546959 
1.4599999999998556, -0.545479038533758 
1.4699999999998545, -0.5464331893012102 
1.4799999999998534, -0.5474173733638458 
1.4899999999998523, -0.5483545628987254 
1.4999999999998512, -0.5491664451033664 
1.5099999999998501, -0.549795464626548 
1.519999999999849, -0.5502166919067141 
1.529999999999848, -0.5504343628994232 
1.5399999999998468, -0.5504689608133904 
1.5499999999998457, -0.5503437745575755 
1.5599999999998446, -0.550075623204766 
1.5699999999998435, -0.5496696397182456 
1.5799999999998424, -0.5491158989081909 
1.5899999999998413, -0.5483854552272927 
1.5999999999998402, -0.5474234793815783 
1.6099999999998391, -0.5461369512148473 
1.619999999999838, -0.5443743908156531 
1.629999999999837, -0.5418987980943767 
1.6399999999998358, -0.5383713060654711 
1.6499999999998347, -0.5334010404293198 
1.6599999999998336, -0.5267431403048399 
1.6699999999998325, -0.518616691299507 
1.6799999999998314, -0.5098453553712397 
1.6899999999998303, -0.501532917792145 
1.6999999999998292, -0.4945184660932152 
1.709999999999828, -0.48911405903039906 
1.719999999999827, -0.485214252797626 
1.729999999999826, -0.48252615351400274 
1.7399999999998248, -0.4807344663923289 
1.7499999999998237, -0.4795741270675202 
1.7599999999998226, -0.47884612838828255 
1.7699999999998215, -0.4784098238327787 
1.7799999999998204, -0.4781693612873038 
1.7899999999998193, -0.47806116828027134 
1.7999999999998182, -0.47804437322463933 
1.809999999999817, -0.4780941874641753 
1.819999999999816, -0.478197751604451 
1.8299999999998149, -0.4783518244417729 
1.8399999999998138, -0.4785615303120398 
1.8499999999998127, -0.4788390509754651 
1.8599999999998116, -0.47920082489526517 
1.8699999999998105, -0.47966196257616744 
1.8799999999998094, -0.4802277024741909 
1.8899999999998083, -0.48088394772174725 
1.8999999999998072, -0.48159154495001 
1.909999999999806, -0.48228983973685446 
1.919999999999805, -0.48291117225116353 
1.9299999999998039, -0.48339998041897553 
1.9399999999998028, -0.4837255252961947 
1.9499999999998017, -0.483882119639605 
1.9599999999998006, -0.48387996100469105 
1.9699999999997995, -0.4837337207661182 
1.9799999999997984, -0.48345352947796216 
1.9899999999997973, -0.4830389144232292 
1.9999999999997962, -0.48247391423408975 
2.0099999999998173, -0.4817209065050979 
2.0199999999998384, -0.48071051856357244 
2.0299999999998595, -0.4793250825660259 
2.0399999999998806, -0.4773752257449644 
2.0499999999999017, -0.4745790079858632 
2.059999999999923, -0.4705789616872968 
2.069999999999944, -0.46506437399350686 
2.079999999999965, -0.4580273311840927 
2.089999999999986, -0.44998553424583376 
2.100000000000007, -0.4418669660422074 
2.1100000000000283, -0.434563706629748 
2.1200000000000494, -0.4285700803184259 
2.1300000000000705, -0.42395786052331436 
2.1400000000000916, -0.42055140390934875 
2.1500000000001127, -0.4180977916360048 
2.160000000000134, -0.4163598440237604 
2.170000000000155, -0.415148185357455 
2.180000000000176, -0.41432325658163355 
2.190000000000197, -0.413787074475067 
2.2000000000002182, -0.4134736731738536 
2.2100000000002393, -0.41334129125379915 
2.2200000000002604, -0.41336691811025805 
2.2300000000002815, -0.4135429871927078 
2.2400000000003026, -0.413875766963287 
2.2500000000003237, -0.41438483923694314 
2.260000000000345, -0.4151026936760819 
2.270000000000366, -0.4160727534374365 
2.280000000000387, -0.4173431112608948 
2.290000000000408, -0.4189524463934074 
2.3000000000004293, -0.4209058086761785 
2.3100000000004504, -0.4231445503337149 
2.3200000000004715, -0.42552776817350085 
2.3300000000004926, -0.4278509114474619 
2.3400000000005137, -0.4299081612795903 
2.3500000000005348, -0.4315628869068787 
2.360000000000556, -0.4327767717302379 
2.370000000000577, -0.43358765233803764 
2.380000000000598, -0.4340665849018219 
2.390000000000619, -0.4342839216486107 
2.4000000000006403, -0.43429250791254964 
2.4100000000006614, -0.434122581959694 
2.4200000000006825, -0.4337813078875163 
2.4300000000007036, -0.43325279154015767 
2.4400000000007247, -0.43249757161891134 
2.450000000000746, -0.43145354085189724 
2.460000000000767, -0.4300436800176934 
2.470000000000788, -0.42819850815992594 
2.480000000000809, -0.4258965832683231 
2.49000000000083, -0.4232078212192798 
2.5000000000008513, -0.4203032983720349 
2.5100000000008724, -0.4174074501464517 
2.5200000000008935, -0.41471958441611223 
2.5300000000009146, -0.41235998045840255 
2.5400000000009357, -0.4103650790000282 
2.550000000000957, -0.40871409977470236 
2.560000000000978, -0.4073602334748803 
2.570000000000999, -0.40625274566257696 
2.58000000000102, -0.40534864706487533 
2.5900000000010412, -0.4046173224744428 
2.6000000000010624, -0.40404170899692876 
2.6100000000010835, -0.4036185140278071 
2.6200000000011046, -0.40335894792525984 
2.6300000000011257, -0.40329083493530726 
2.6400000000011468, -0.4034626965629607 
2.650000000001168, -0.4039502763037076 
2.660000000001189, -0.4048656531504398 
2.67000000000121, -0.4063678946231876 
2.680000000001231, -0.408670738429007 
2.6900000000012523, -0.41203479856732994 
2.7000000000012734, -0.41671821804081394 
2.7100000000012945, -0.4228506246230042 
2.7200000000013156, -0.4302306226807243 
2.7300000000013367, -0.43817550008015926 
2.740000000001358, -0.4456698299462868 
2.750000000001379, -0.4518462461725263 
2.7600000000014, -0.4563809141564919 
2.770000000001421, -0.4594511956399122 
2.780000000001442, -0.46143687696035574 
2.7900000000014633, -0.462691937525031 
2.8000000000014844, -0.46346975296020687 
2.8100000000015055, -0.46393156691872717 
2.8200000000015266, -0.4641744268979551 
2.8300000000015477, -0.4642542687572976 
2.840000000001569, -0.4642006350977302 
2.85000000000159, -0.46402537614706085 
2.860000000001611, -0.4637282530805237 
2.870000000001632, -0.4633019524080978 
2.8800000000016532, -0.46273848842583265 
2.8900000000016743, -0.46203773752609434 
2.9000000000016954, -0.46121622138383334 
2.9100000000017165, -0.46031125346486534 
2.9200000000017377, -0.4593757203842485 
2.9300000000017588, -0.4584643014843423 
2.94000000000178, -0.45761847976150705 
2.950000000001801, -0.456858255744927 
2.960000000001822, -0.45618300742463197 
2.970000000001843, -0.4555785512263647 
2.9800000000018643, -0.45502580590280983 
2.9900000000018854, -0.45450767115750157 
3.0000000000019065, -0.45401287245547983 
3.0100000000019276, -0.4535373415265096 
3.0200000000019487, -0.4530845869651232 
3.03000000000197, -0.45266650982007206 
3.040000000001991, -0.4523057527299704 
3.050000000002012, -0.45204040328713546 
3.060000000002033, -0.45193180349975426 
3.070000000002054, -0.4520760493296036 
3.0800000000020753, -0.4526186662599991 
3.0900000000020964, -0.4537680526869079 
3.1000000000021175, -0.45579321052412336 
3.1100000000021386, -0.45897257349118775 
3.1200000000021597, -0.463446192598143 
3.130000000002181, -0.4689716046990692 
3.140000000002202, -0.4747685303758201 
3.150000000002223, -0.47978686195386067 
3.160000000002244, -0.48334929899460155 
3.1700000000022652, -0.4854943606109369 
3.1800000000022863, -0.48668655779258785 
3.1900000000023074, -0.48737799585440966 
3.2000000000023285, -0.48783520563051647 
3.2100000000023496, -0.48817362951222887 
3.2200000000023707, -0.4884324135741487 
3.230000000002392, -0.48862214032465107 
3.240000000002413, -0.48874524612663606 
3.250000000002434, -0.4888022201415181 
3.260000000002455, -0.48879243897071845 
3.2700000000024763, -0.4887137290652073 
3.2800000000024974, -0.4885623424190359 
3.2900000000025185, -0.4883341484950418 
3.3000000000025396, -0.48802742937614535 
3.3100000000025607, -0.4876469378414375 
3.3200000000025818, -0.4872075689444402 
3.330000000002603, -0.48673488304605383 
3.340000000002624, -0.48626045292828535 
3.350000000002645, -0.4858130955016537 
3.360000000002666, -0.4854101607643142 
3.3700000000026873, -0.48505325326863324 
3.3800000000027084, -0.48473006052135775 
3.3900000000027295, -0.4844207166261323 
3.4000000000027506, -0.4841052670241103 
3.4100000000027717, -0.4837690340409509 
3.420000000002793, -0.48340460898716087 
3.430000000002814, -0.4830113322023232 
3.440000000002835, -0.482594090875846 
3.450000000002856, -0.4821630104720871 
3.460000000002877, -0.4817349805051198 
3.4700000000028983, -0.48133757396432814 
3.4800000000029194, -0.48101580824961176 
3.4900000000029405, -0.4808418551677994 
3.5000000000029616, -0.4809261356296696 
3.5100000000029827, -0.4814230868173362 
3.520000000003004, -0.48251342781670514 
3.530000000003025, -0.4843292948417582 
3.540000000003046, -0.4867964910434031 
3.550000000003067, -0.489466031471502 
3.5600000000030882, -0.4915840898909615 
3.5700000000031094, -0.49256247733679015 
3.5800000000031305, -0.4924337149460585 
3.5900000000031516, -0.4917216214097587 
3.6000000000031727, -0.4909535746712394 
3.6100000000031938, -0.49039331678324016 
3.620000000003215, -0.4900796253097214 
3.630000000003236, -0.4899519276728431 
3.640000000003257, -0.4899336149529712 
3.650000000003278, -0.489963792147779 
3.6600000000032993, -0.4900017890911842 
3.6700000000033204, -0.49002247434231555 
3.6800000000033415, -0.4900104278028593 
3.6900000000033626, -0.4899555703093529 
3.7000000000033837, -0.48985080003712095 
3.710000000003405, -0.4896916468363691 
3.720000000003426, -0.4894777426538452 
3.730000000003447, -0.4892153769464791 
3.740000000003468, -0.48891947222518606 
3.750000000003489, -0.4886127203202439 
3.7600000000035103, -0.48832056388593265 
3.7700000000035314, -0.4880632847797761 
3.7800000000035525, -0.4878487927806473 
3.7900000000035736, -0.4876697725072906 
3.8000000000035947, -0.4875066272869056 
3.810000000003616, -0.48733465254836483 
3.820000000003637, -0.48713178922831163 
3.830000000003658, -0.4868834968049547 
3.840000000003679, -0.48658360028047765 
3.8500000000037002, -0.48623242785865717 
3.8600000000037213, -0.4858344232662362 
3.8700000000037424, -0.4853968307747727 
3.8800000000037635, -0.48493015939535694 
3.8900000000037847, -0.4844506245819142 
3.9000000000038058, -0.4839845326135831 
3.910000000003827, -0.483573958703574 
3.920000000003848, -0.48328085225690176 
3.930000000003869, -0.4831809347886673 
3.94000000000389, -0.48332846535376073 
3.9500000000039113, -0.48366743287459774 
3.9600000000039324, -0.48390286555843176 
3.9700000000039535, -0.4834737612246915 
3.9800000000039746, -0.48185153548353127 
3.9900000000039957, -0.47904566194735637 
4.000000000004016, -0.4757018054736749 
4.010000000003993, -0.4726042351371964 
4.02000000000397, -0.4702020593340591 
4.030000000003946, -0.46855882800012266 
4.040000000003923, -0.46753331086757477 
4.0500000000039, -0.4669392697020328 
4.0600000000038765, -0.466618957284257 
4.070000000003853, -0.46645967503373836 
4.08000000000383, -0.4663875266631849 
4.090000000003807, -0.46635624137170817 
4.100000000003783, -0.4663375246229776 
4.11000000000376, -0.46631438469579595 
4.120000000003737, -0.4662772757213838 
4.130000000003713, -0.46622255900182685 
4.14000000000369, -0.46615265146348756 
4.150000000003667, -0.46607685733903625 
4.1600000000036434, -0.46601132951300184 
4.17000000000362, -0.4659764828709079 
4.180000000003597, -0.46599118397366734 
4.1900000000035735, -0.46606504353026396 
4.20000000000355, -0.46619196862961854 
4.210000000003527, -0.4663485349548561 
4.220000000003504, -0.46649906192696766 
4.23000000000348, -0.4666057192912715 
4.240000000003457, -0.46663862788835325 
4.250000000003434, -0.4665809469912106 
4.26000000000341, -0.46642767537707125 
4.270000000003387, -0.4661806448636149 
4.280000000003364, -0.46584296003235764 
4.2900000000033405, -0.46541460872002116 
4.300000000003317, -0.464889214681025 
4.310000000003294, -0.4642508350341914 
4.320000000003271, -0.4634689601215095 
4.330000000003247, -0.4624887055191187 
4.340000000003224, -0.46121122669896913 
4.350000000003201, -0.459458389582982 
4.360000000003177, -0.45692470147273 
4.370000000003154, -0.4531596904678958 
4.380000000003131, -0.4476976353500263 
4.390000000003107, -0.44042738839317497 
4.400000000003084, -0.43196089480231636 
4.410000000003061, -0.42347626536507244 
4.4200000000030375, -0.41605644367331535 
4.430000000003014, -0.41021461683420374 
4.440000000002991, -0.40593239947684373 
4.450000000002968, -0.4029304041825231 
4.460000000002944, -0.40088232157243303 
4.470000000002921, -0.39951101639342557 
4.480000000002898, -0.39861023064766316 
4.490000000002874, -0.3980364027509364 
4.500000000002851, -0.397693618313825 
4.510000000002828, -0.39752016164043796 
4.520000000002804, -0.3974786741705094 
4.530000000002781, -0.39754972484490236 
4.540000000002758, -0.39772807096128215 
4.5500000000027345, -0.3980208236552966 
4.560000000002711, -0.39844662085520244 
4.570000000002688, -0.3990345576120986 
4.580000000002665, -0.39982103808431435 
4.590000000002641, -0.40084216259506283 
4.600000000002618, -0.40211949591875895 
4.610000000002595, -0.4036396620722992 
4.620000000002571, -0.4053349047488431 
4.630000000002548, -0.4070800716990462 
4.640000000002525, -0.4087197993193379 
4.6500000000025015, -0.41011814197264573 
4.660000000002478, -0.41119911102252055 
4.670000000002455, -0.41195296786149777 
4.6800000000024315, -0.41241365859882634 
4.690000000002408, -0.4126298129306343 
4.700000000002385, -0.4126443446718963 
4.710000000002362, -0.4124844635168512 
4.720000000002338, -0.4121577766743448 
4.730000000002315, -0.41165024041501297 
4.740000000002292, -0.4109239276985098 
4.750000000002268, -0.4099153299346832 
4.760000000002245, -0.40853860398204533 
4.770000000002222, -0.4067025256825508 
4.7800000000021985, -0.40434989042091446 
4.790000000002175, -0.40151291716957604 
4.800000000002152, -0.39834799825294787 
4.810000000002129, -0.39510506565304937 
4.820000000002105, -0.3920378720967262 
4.830000000002082, -0.38932066165898493 
4.840000000002059, -0.38702274213732935 
4.850000000002035, -0.38513311962405505 
4.860000000002012, -0.38359977446370047 
4.870000000001989, -0.38236023627115007 
4.880000000001965, -0.38135852118157343 
