t, s[1].omega / s[0].omega 
0, -0.4799977617058585 
0.009999999999999995, -0.47978739060489983 
0.019999999999999934, -0.4795983337792329 
0.029999999999999874, -0.4794167133787751 
0.04000000000000012, -0.47922512652703936 
0.050000000000000405, -0.47900800257855963 
0.06000000000000069, -0.47875493937140623 
0.07000000000000098, -0.47846127660120763 
0.08000000000000126, -0.4781267840835173 
0.09000000000000155, -0.47775388872589886 
0.10000000000000184, -0.47734646780991286 
0.11000000000000212, -0.47690960962169215 
0.12000000000000241, -0.4764503105478405 
0.130000000000002, -0.47597878308209857 
0.1400000000000009, -0.475509540089267 
0.1499999999999998, -0.4750602065982088 
0.1599999999999987, -0.47464376127921826 
0.1699999999999976, -0.4742478109384386 
0.1799999999999965, -0.4737986839854204 
0.1899999999999954, -0.47313089305373124 
0.1999999999999943, -0.4720208233261324 
0.2099999999999932, -0.47033006690559126 
0.2199999999999921, -0.46816530353789004 
0.229999999999991, -0.46586116708720865 
0.2399999999999899, -0.46377704013995646 
0.2499999999999888, -0.4621208595166989 
0.2599999999999877, -0.4609264159971122 
0.2699999999999866, -0.460123981806518 
0.2799999999999855, -0.4596123995391669 
0.2899999999999844, -0.4592988461039198 
0.2999999999999833, -0.45911200142936986 
0.3099999999999822, -0.4590019181119124 
0.3199999999999811, -0.4589354771400602 
0.32999999999998, -0.45889153155726625 
0.3399999999999789, -0.45885715720130993 
0.3499999999999778, -0.45882529501134517 
0.35999999999997667, -0.45879365826318574 
0.36999999999997557, -0.4587645553771675 
0.37999999999997447, -0.4587449890652125 
0.38999999999997337, -0.4587460632847075 
0.39999999999997227, -0.4587806856327111 
0.40999999999997117, -0.4588591954223243 
0.41999999999997006, -0.4589838759199226 
0.42999999999996896, -0.459144665491831 
0.43999999999996786, -0.4593187491205429 
0.44999999999996676, -0.45947528943148486 
0.45999999999996566, -0.4595836114567578 
0.46999999999996456, -0.45962073403551207 
0.47999999999996346, -0.45957462991934905 
0.48999999999996235, -0.45944265250769867 
0.49999999999996125, -0.45922722594666876 
0.5099999999999602, -0.45893123943064296 
0.519999999999959, -0.4585543466879597 
0.529999999999958, -0.4580900692518819 
0.5399999999999568, -0.457522870153268 
0.5499999999999557, -0.4568240282315905 
0.5599999999999546, -0.4559449452243965 
0.5699999999999535, -0.4548067457583199 
0.5799999999999524, -0.45328730328048417 
0.5899999999999513, -0.451214782568539 
0.5999999999999502, -0.4483926088765056 
0.6099999999999491, -0.44468901716075465 
0.619999999999948, -0.44017890968557405 
0.6299999999999469, -0.435221489007693 
0.6399999999999458, -0.4303473432501854 
0.6499999999999447, -0.42602085494136127 
0.6599999999999436, -0.4224825915167999 
0.6699999999999425, -0.4197552061935668 
0.6799999999999414, -0.41773495098084873 
0.6899999999999403, -0.4162774603693159 
0.6999999999999392, -0.415246255444628 
0.7099999999999381, -0.41453089264077947 
0.719999999999937, -0.4140491278238523 
0.7299999999999359, -0.4137430241216336 
0.7399999999999348, -0.4135738964866641 
0.7499999999999337, -0.41351798306771437 
0.7599999999999326, -0.41356333964471775 
0.7699999999999315, -0.4137078893456286 
0.7799999999999304, -0.4139583015718381 
0.7899999999999293, -0.4143291328036319 
0.7999999999999282, -0.41484130895609994 
0.8099999999999271, -0.41551860255034334 
0.819999999999926, -0.41638056185096584 
0.8299999999999249, -0.4174310936444273 
0.8399999999999238, -0.41864460658710245 
0.8499999999999227, -0.4199564075822645 
0.8599999999999216, -0.4212673870543287 
0.8699999999999205, -0.42246776143248005 
0.8799999999999194, -0.423469785091226 
0.8899999999999183, -0.42422942449127554 
0.8999999999999172, -0.4247458353409438 
0.9099999999999161, -0.4250451015619324 
0.919999999999915, -0.4251617098434857 
0.9299999999999139, -0.4251257753940063 
0.9399999999999128, -0.42495667273769194 
0.9499999999999117, -0.4246604858985803 
0.9599999999999106, -0.42422880280760084 
0.9699999999999095, -0.42363768062091356 
0.9799999999999084, -0.42284721609445475 
0.9899999999999073, -0.4218041406892724 
0.9999999999999062, -0.42045194390078605 
1.0099999999999052, -0.41875283622331605 
1.019999999999904, -0.4167187076982926 
1.029999999999903, -0.41443386985057656 
1.039999999999902, -0.41204588083847965 
1.0499999999999008, -0.4097208583234404 
1.0599999999998997, -0.4075914756886923 
1.0699999999998986, -0.4057299331639059 
1.0799999999998975, -0.40415221930701006 
1.0899999999998964, -0.4028385062018535 
1.0999999999998953, -0.40175381050401426 
1.1099999999998942, -0.40086201620938927 
1.119999999999893, -0.4001331955073105 
1.129999999999892, -0.39954656895059376 
1.1399999999998909, -0.39909139143489997 
1.1499999999998898, -0.39876731614484423 
1.1599999999998887, -0.3985851351576606 
1.1699999999998876, -0.39856837984595317 
1.1799999999998865, -0.3987560002385953 
1.1899999999998854, -0.39920603418417244 
1.1999999999998843, -0.3999995062046988 
1.2099999999998832, -0.401242248514692 
1.219999999999882, -0.40305927310640655 
1.229999999999881, -0.40557184021342946 
1.2399999999998799, -0.4088452443448086 
1.2499999999998788, -0.41280752696586437 
1.2599999999998777, -0.4171798076375218 
1.2699999999998766, -0.42150367936777194 
1.2799999999998755, -0.4253088298700467 
1.2899999999998744, -0.4283129556979599 
1.2999999999998733, -0.4304866060892697 
1.3099999999998722, -0.43196610127649554 
1.319999999999871, -0.4329327067921073 
1.32999999999987, -0.4335420940224707 
1.3399999999998689, -0.4339056215849023 
1.3499999999998678, -0.4340959463542807 
1.3599999999998666, -0.43415782643563183 
1.3699999999998655, -0.4341170551030367 
1.3799999999998644, -0.43398653083749394 
1.3899999999998633, -0.4337703784697129 
1.3999999999998622, -0.433467370695098 
1.4099999999998611, -0.4330747546198498 
1.41999999999986, -0.43259304378533825 
1.429999999999859, -0.4320311502403086 
1.4399999999998578, -0.4314096719411501 
1.4499999999998567, -0.43075960437134364 
1.4599999999998556, -0.43011570266791893 
1.4699999999998545, -0.429507294781662 
1.4799999999998534, -0.42895122575214134 
1.4899999999998523, -0.4284499924253099 
1.4999999999998512, -0.4279948503297912 
1.5099999999998501, -0.42757144524843477 
1.519999999999849, -0.4271652195008091 
1.529999999999848, -0.42676489149776076 
1.5399999999998468, -0.42636375912104807 
1.5499999999998457, -0.4259596062103637 
1.5599999999998446, -0.42555426151348713 
1.5699999999998435, -0.4251536012393939 
1.5799999999998424, -0.4247684030476349 
1.5899999999998413, -0.4244161358976545 
1.5999999999998402, -0.42412337552069 
1.6099999999998391, -0.4239276543450957 
1.619999999999838, -0.42387552448039223 
1.629999999999837, -0.4240099595667869 
1.6399999999998358, -0.4243368984593235 
1.6499999999998347, -0.4247676422849794 
1.6599999999998336, -0.4250697518989169 
1.6699999999998325, -0.42491443182187966 
1.6799999999998314, -0.42407514406612573 
1.6899999999998303, -0.42262888551527605 
1.6999999999998292, -0.4209171991378839 
1.709999999999828, -0.41930488412894906 
1.719999999999827, -0.4180011059624663 
1.729999999999826, -0.4170495500273527 
1.7399999999998248, -0.41640100692579163 
1.7499999999998237, -0.41597875821034824 
1.7599999999998226, -0.4157121601714763 
1.7699999999998215, -0.4155472007779245 
1.7799999999998204, -0.4154463618387577 
1.7899999999998193, -0.4153851807759611 
1.7999999999998182, -0.4153487208271728 
1.809999999999817, -0.4153290053271551 
1.819999999999816, -0.41532358648030787 
1.8299999999998149, -0.4153350526626534 
1.8399999999998138, -0.4153710037500808 
1.8499999999998127, -0.41544370208804116 
1.8599999999998116, -0.4155683769779858 
1.8699999999998105, -0.4157593645510437 
1.8799999999998094, -0.4160241724432356 
1.8899999999998083, -0.41635705475473567 
1.8999999999998072, -0.41673513807074924 
1.909999999999806, -0.41712035113753576 
1.919999999999805, -0.4174680496098085 
1.9299999999998039, -0.4177388262987586 
1.9399999999998028, -0.4179072848441021 
1.9499999999998017, -0.41796374519936136 
1.9599999999998006, -0.4179098030358143 
1.9699999999997995, -0.41775150889113555 
1.9799999999997984, -0.41749319419924785 
1.9899999999997973, -0.4171328080250678 
1.9999999999997962, -0.4166580862714809 
2.0099999999998173, -0.4160423551980109 
2.0199999999998384, -0.41523896192106086 
2.0299999999998595, -0.41417431541852573 
2.0399999999998806, -0.41274231837437253 
2.0499999999999017, -0.4108090279019917 
2.059999999999923, -0.40824395989700457 
2.069999999999944, -0.4049904858489105 
2.079999999999965, -0.4011511646643764 
2.089999999999986, -0.39701222073893966 
2.100000000000007, -0.3929518519401348 
2.1100000000000283, -0.38929064390930174 
2.1200000000000494, -0.3861999724265375 
2.1300000000000705, -0.38370771182535407 
2.1400000000000916, -0.3817547766154726 
2.1500000000001127, -0.3802498833558866 
2.160000000000134, -0.37910274049046805 
2.170000000000155, -0.37823832981579214 
2.180000000000176, -0.37760041260059624 
2.190000000000197, -0.37715048438749754 
2.2000000000002182, -0.3768655779703615 
2.2100000000002393, -0.37673643703633863 
2.2200000000002604, -0.37676661993782334 
2.2300000000002815, -0.3769726430020453 
2.2400000000003026, -0.37738498858588054 
2.2500000000003237, -0.3780494008126124 
2.260000000000345, -0.3790270830338975 
2.270000000000366, -0.38039091900376026 
2.280000000000387, -0.3822127561135789 
2.290000000000408, -0.3845357344307487 
2.3000000000004293, -0.38733057477853033 
2.3100000000004504, -0.3904522295507883 
2.3200000000004715, -0.3936370965051378 
2.3300000000004926, -0.39657481543637185 
2.3400000000005137, -0.3990249727971906 
2.3500000000005348, -0.400892125508374 
2.360000000000556, -0.40221217053415365 
2.370000000000577, -0.40308751554184885 
2.380000000000598, -0.4036291494344718 
2.390000000000619, -0.4039279512772097 
2.4000000000006403, -0.4040481520446514 
2.4100000000006614, -0.4040304425902552 
2.4200000000006825, -0.4038971718315724 
2.4300000000007036, -0.40365692219796595 
2.4400000000007247, -0.4033083242438041 
2.450000000000746, -0.40284406705824327 
2.460000000000767, -0.40225632203056944 
2.470000000000788, -0.401544099107522 
2.480000000000809, -0.40072103009240145 
2.49000000000083, -0.39981953081655364 
2.5000000000008513, -0.39888708314851484 
2.5100000000008724, -0.39797468261671465 
2.5200000000008935, -0.3971233055672626 
2.5300000000009146, -0.3963555019304536 
2.5400000000009357, -0.395674914422027 
2.550000000000957, -0.3950715955843085 
2.560000000000978, -0.39452920357799737 
2.570000000000999, -0.3940310748391086 
2.58000000000102, -0.39356392603816104 
2.5900000000010412, -0.39311937615268394 
2.6000000000010624, -0.39269421046420505 
2.6100000000010835, -0.3922903852829106 
2.6200000000011046, -0.39191549970954687 
2.6300000000011257, -0.3915841312145566 
2.6400000000011468, -0.39132011998013955 
2.650000000001168, -0.3911593909717005 
2.660000000001189, -0.39115171651899117 
2.67000000000121, -0.3913571393107981 
2.680000000001231, -0.39182813952891454 
2.6900000000012523, -0.3925651271048712 
2.7000000000012734, -0.3934443374229137 
2.7100000000012945, -0.3941664880259794 
2.7200000000013156, -0.3943369451107634 
2.7300000000013367, -0.39371620387627587 
2.740000000001358, -0.3924242936533478 
2.750000000001379, -0.39084600593247704 
2.7600000000014, -0.3893547903324309 
2.770000000001421, -0.38814914033137565 
2.780000000001442, -0.38726547260795524 
2.7900000000014633, -0.3866565972712912 
2.8000000000014844, -0.38625311566401616 
2.8100000000015055, -0.385992570722412 
2.8200000000015266, -0.3858278698718105 
2.8300000000015477, -0.38572674635957843 
2.840000000001569, -0.3856686984036727 
2.85000000000159, -0.3856420499582498 
2.860000000001611, -0.3856419472561326 
2.870000000001632, -0.3856693596379096 
2.8800000000016532, -0.3857308046275371 
2.8900000000016743, -0.38583821677471325 
2.9000000000016954, -0.3860080604735119 
2.9100000000017165, -0.38625862996462346 
2.9200000000017377, -0.38660480853437884 
2.9300000000017588, -0.38705063237459514 
2.94000000000178, -0.3875818107971988 
2.950000000001801, -0.38816224206238126 
2.960000000001822, -0.3887386583360814 
2.970000000001843, -0.38925369148537764 
2.9800000000018643, -0.38966134656854395 
2.9900000000018854, -0.3899363387925435 
3.0000000000019065, -0.390073466116245 
3.0100000000019276, -0.39008006827289543 
3.0200000000019487, -0.3899670537635217 
3.03000000000197, -0.3897418321452946 
3.040000000001991, -0.38940354963417056 
3.050000000002012, -0.3889395338455518 
3.060000000002033, -0.38832178205493173 
3.070000000002054, -0.3875031708340398 
3.0800000000020753, -0.386414921034435 
3.0900000000020964, -0.38497021289390204 
3.1000000000021175, -0.3830827486719126 
3.1100000000021386, -0.3807074204961169 
3.1200000000021597, -0.37789270295342337 
3.130000000002181, -0.37480585192777954 
3.140000000002202, -0.37169261278716376 
3.150000000002223, -0.3687882306019835 
3.160000000002244, -0.3662447276182992 
3.1700000000022652, -0.36411523074208013 
3.1800000000022863, -0.3623813065474402 
3.1900000000023074, -0.3609899360523273 
3.2000000000023285, -0.35988068847552274 
3.2100000000023496, -0.35900010896980394 
3.2200000000023707, -0.3583072568848097 
3.230000000002392, -0.35777478638704974 
3.240000000002413, -0.3573885014414192 
3.250000000002434, -0.35714697926030003 
3.260000000002455, -0.3570620491476532 
3.2700000000024763, -0.3571605026004324 
3.2800000000024974, -0.35748714999060216 
3.2900000000025185, -0.35810892763099006 
3.3000000000025396, -0.3591187419071226 
3.3100000000025607, -0.3606354022746611 
3.3200000000025818, -0.36279164933482905 
3.330000000002603, -0.365697092400573 
3.340000000002624, -0.36936486616232106 
3.350000000002645, -0.3736184286523483 
3.360000000002666, -0.3780535531771786 
3.3700000000026873, -0.3821500689309417 
3.3800000000027084, -0.38550198355794485 
3.3900000000027295, -0.38797379189889053 
3.4000000000027506, -0.3896635983351221 
3.4100000000027717, -0.39076476474863264 
3.420000000002793, -0.39146015084299607 
3.430000000002814, -0.39188418776117023 
3.440000000002835, -0.392124629736741 
3.450000000002856, -0.39223547079744786 
3.460000000002877, -0.3922486540112187 
3.4700000000028983, -0.39218207949364403 
3.4800000000029194, -0.39204475694328794 
3.4900000000029405, -0.3918404896198785 
3.5000000000029616, -0.3915712302021147 
3.5100000000029827, -0.3912407278919473 
3.520000000003004, -0.3908582333501844 
3.530000000003025, -0.3904409518562953 
3.540000000003046, -0.39001339074199354 
3.550000000003067, -0.38960273145050434 
3.5600000000030882, -0.38923168151615034 
3.5700000000031094, -0.388912060826439 
3.5800000000031305, -0.3886420556720237 
3.5900000000031516, -0.3884080831911667 
3.6000000000031727, -0.3881900480947277 
3.6100000000031938, -0.38796745986151887 
3.620000000003215, -0.38772389570517435 
3.630000000003236, -0.38744858210764255 
3.640000000003257, -0.3871354914848945 
3.650000000003278, -0.38678119266740196 
3.6600000000032993, -0.3863825053110507 
3.6700000000033204, -0.3859343184457719 
3.6800000000033415, -0.3854272413599579 
3.6900000000033626, -0.3848441363970418 
3.7000000000033837, -0.38415386078407293 
3.710000000003405, -0.38329976079181627 
3.720000000003426, -0.38218090130934607 
3.730000000003447, -0.38063018268617516 
3.740000000003468, -0.3784129804715594 
3.750000000003489, -0.37529707984506044 
3.7600000000035103, -0.371222754649153 
3.7700000000035314, -0.3664656846118608 
3.7800000000035525, -0.36158341079724265 
3.7900000000035736, -0.35713759558571573 
3.8000000000035947, -0.35345573543036984 
3.810000000003616, -0.3506021433931767 
3.820000000003637, -0.3484808388193253 
3.830000000003658, -0.34694191896612486 
3.840000000003679, -0.34584209560414886 
3.8500000000037002, -0.34506681081515217 
3.8600000000037213, -0.3445326809640618 
3.8700000000037424, -0.3441829442952655 
3.8800000000037635, -0.34398186539026665 
3.8900000000037847, -0.34391024260880887 
3.9000000000038058, -0.34396250986668353 
3.910000000003827, -0.34414531139146143 
3.920000000003848, -0.3444771665759846 
3.930000000003869, -0.344988551746916 
3.94000000000389, -0.34572117341679975 
3.9500000000039113, -0.34672427404729456 
3.9600000000039324, -0.3480447076199334 
3.9700000000039535, -0.3497074480805141 
3.9800000000039746, -0.35168712825320203 
3.9900000000039957, -0.35388220219979327 
4.000000000004016, -0.35611603440943107 
4.010000000003993, -0.35818290910262385 
4.02000000000397, -0.35991978982099593 
4.030000000003946, -0.361253905741432 
4.040000000003923, -0.3621981637362489 
4.0500000000039, -0.36281343352993195 
4.0600000000038765, -0.36317127554640627 
4.070000000003853, -0.3633328024751563 
4.08000000000383, -0.36334170724919923 
4.090000000003807, -0.36322452532260285 
4.100000000003783, -0.3629932345763277 
4.11000000000376, -0.36264824273811086 
4.120000000003737, -0.36218178155291075 
4.130000000003713, -0.3615827406655214 
4.14000000000369, -0.3608439923226684 
4.150000000003667, -0.3599717268045424 
4.1600000000036434, -0.35899322189369803 
4.17000000000362, -0.35795723269285457 
4.180000000003597, -0.35692387009936827 
4.1900000000035735, -0.35594820918425485 
4.20000000000355, -0.3550667351804796 
4.210000000003527, -0.35429279274052783 
4.220000000003504, -0.3536204722210008 
4.23000000000348, -0.35303250477685133 
4.240000000003457, -0.3525080168689111 
4.250000000003434, -0.3520279691842768 
4.26000000000341, -0.35157789302065745 
4.270000000003387, -0.3511486039395662 
4.280000000003364, -0.3507359266767241 
4.2900000000033405, -0.35034031061581566 
4.300000000003317, -0.34996684057507055 
4.310000000003294, -0.3496257344338686 
4.320000000003271, -0.34933289858618166 
4.330000000003247, -0.3491091270314411 
4.340000000003224, -0.3489744743530363 
4.350000000003201, -0.3489308731519044 
4.360000000003177, -0.3489236556548153 
4.370000000003154, -0.3487827688506271 
4.380000000003131, -0.3481882989480728 
4.390000000003107, -0.34676597885849547 
4.400000000003084, -0.3443557580905592 
4.410000000003061, -0.34122643512978806 
4.4200000000030375, -0.33794063827073784 
4.430000000003014, -0.33500070357859235 
4.440000000002991, -0.3326468458982258 
4.450000000002968, -0.33089165061369985 
4.460000000002944, -0.3296374735302453 
4.470000000002921, -0.3287636240694778 
4.480000000002898, -0.32816574973710744 
4.490000000002874, -0.3277659478813688 
4.500000000002851, -0.32751083558175115 
4.510000000002828, -0.3273665667918955 
4.520000000002804, -0.3273142937770067 
4.530000000002781, -0.3273470407342452 
4.540000000002758, -0.3274679993154333 
4.5500000000027345, -0.3276898929453661 
4.560000000002711, -0.32803478947867326 
4.570000000002688, -0.32853334289527564 
4.580000000002665, -0.3292218676485298 
4.590000000002641, -0.33013509626420834 
4.600000000002618, -0.3312926889961549 
4.610000000002595, -0.3326801972012696 
4.620000000002571, -0.33423177323842596 
4.630000000002548, -0.3358293766821065 
4.640000000002525, -0.33733010106052597 
4.6500000000025015, -0.3386121809295298 
4.660000000002478, -0.339610144945785 
4.670000000002455, -0.3403182993736063 
4.6800000000024315, -0.34076953448155317 
4.690000000002408, -0.3410098139553279 
4.700000000002385, -0.3410810353083793 
4.710000000002362, -0.34101344792330346 
4.720000000002338, -0.3408239206754891 
4.730000000002315, -0.34051670246436305 
4.740000000002292, -0.34008519404849835 
4.750000000002268, -0.3395149315000843 
4.760000000002245, -0.3387890587301135 
4.770000000002222, -0.33789750619556036 
4.7800000000021985, -0.3368488645077532 
4.790000000002175, -0.3356796138198953 
4.800000000002152, -0.33445279955005713 
4.810000000002129, -0.3332430676769774 
4.820000000002105, -0.33211538137490504 
4.830000000002082, -0.3311096900897613 
4.840000000002059, -0.3302378749623608 
4.850000000002035, -0.3294902992031202 
4.860000000002012, -0.32884571872468793 
