t, s[1].omega / s[0].omega 
0, -1.0999974997108046 
0.009999999999999995, -1.099678152263886 
0.019999999999999934, -1.0992256855190268 
0.029999999999999874, -1.098652496358416 
0.04000000000000012, -1.0979796330697613 
0.050000000000000405, -1.0972375108530497 
0.06000000000000069, -1.0964664026229216 
0.07000000000000098, -1.095715340344642 
0.08000000000000126, -1.095037549875731 
0.09000000000000155, -1.0944815425429126 
0.10000000000000184, -1.0940796332496763 
0.11000000000000212, -1.0938383673841003 
0.12000000000000241, -1.0937358770232735 
0.130000000000002, -1.0937281884757166 
0.1400000000000009, -1.0937612134125316 
0.1499999999999998, -1.0937819562825832 
0.1599999999999987, -1.0937444515133117 
0.1699999999999976, -1.0936106437553113 
0.1799999999999965, -1.0933493290736036 
0.1899999999999954, -1.0929360047125098 
0.1999999999999943, -1.092354512906261 
0.2099999999999932, -1.0915995612805063 
0.2199999999999921, -1.0906787070160353 
0.229999999999991, -1.089613247105107 
0.2399999999999899, -1.0884385207214118 
0.2499999999999888, -1.0872041229494505 
0.2599999999999877, -1.0859732865222906 
0.2699999999999866, -1.0848191704086916 
0.2799999999999855, -1.0838154180428323 
0.2899999999999844, -1.083020510101726 
0.2999999999999833, -1.0824604491808993 
0.3099999999999822, -1.082119092717322 
0.3199999999999811, -1.0819436627390078 
0.32999999999998, -1.0818628966043486 
0.3399999999999789, -1.0818062677594202 
0.3499999999999778, -1.0817142704759077 
0.35999999999997667, -1.0815384449630128 
0.36999999999997557, -1.081236023863375 
0.37999999999997447, -1.0807648127862453 
0.38999999999997337, -1.0800820664913586 
0.39999999999997227, -1.0791489770617009 
0.40999999999997117, -1.0779400121764557 
0.41999999999997006, -1.0764538534850117 
0.42999999999996896, -1.0747216899102037 
0.43999999999996786, -1.0728102763778107 
0.44999999999996676, -1.0708196244741528 
0.45999999999996566, -1.0688752939776225 
0.46999999999996456, -1.0671130315746011 
0.47999999999996346, -1.0656532924900513 
0.48999999999996235, -1.0645695668540398 
0.49999999999996125, -1.0638650540536525 
0.5099999999999602, -1.0634745310182 
0.519999999999959, -1.0632928923713203 
0.529999999999958, -1.0632117404158197 
0.5399999999999568, -1.0631429041389275 
0.5499999999999557, -1.0630225198482675 
0.5599999999999546, -1.062802454629011 
0.5699999999999535, -1.0624381562507832 
0.5799999999999524, -1.0618785922070493 
0.5899999999999513, -1.061061309790524 
0.5999999999999502, -1.0599153059478288 
0.6099999999999491, -1.0583742383239478 
0.619999999999948, -1.056399660706933 
0.6299999999999469, -1.054007995971812 
0.6399999999999458, -1.0512900251284807 
0.6499999999999447, -1.0484126835323608 
0.6599999999999436, -1.045598606990961 
0.6699999999999425, -1.0430840458911925 
0.6799999999999414, -1.0410615453077914 
0.6899999999999403, -1.0396253368619635 
0.6999999999999392, -1.0387476953635895 
0.7099999999999381, -1.0383038056415188 
0.719999999999937, -1.0381299689317713 
0.7299999999999359, -1.0380780139087356 
0.7399999999999348, -1.0380406689190556 
0.7499999999999337, -1.037949168815182 
0.7599999999999326, -1.0377576159401114 
0.7699999999999315, -1.0374258567372416 
0.7799999999999304, -1.0369056830598464 
0.7899999999999293, -1.0361315929224584 
0.7999999999999282, -1.035017875840073 
0.8099999999999271, -1.0334662763593412 
0.819999999999926, -1.0313894111277897 
0.8299999999999249, -1.0287501188365924 
0.8399999999999238, -1.0256050434243693 
0.8499999999999227, -1.022129833454692 
0.8599999999999216, -1.0186050848299115 
0.8699999999999205, -1.0153579662943257 
0.8799999999999194, -1.0126748877037621 
0.8899999999999183, -1.0107181648830448 
0.8999999999999172, -1.0094867051425351 
0.9099999999999161, -1.0088427409747167 
0.919999999999915, -1.0085856461688019 
0.9299999999999139, -1.0085257279971522 
0.9399999999999128, -1.008523221974477 
0.9499999999999117, -1.0084907122149707 
0.9599999999999106, -1.008376349600576 
0.9699999999999095, -1.008143688559271 
0.9799999999999084, -1.0077550655987433 
0.9899999999999073, -1.0071595325152265 
0.9999999999999062, -1.0062853185912828 
1.0099999999999052, -1.0050389977969185 
1.019999999999904, -1.0033166566258453 
1.029999999999903, -1.0010327029038204 
1.039999999999902, -0.9981647928606708 
1.0499999999999008, -0.9947987434843956 
1.0599999999998997, -0.9911464539974798 
1.0699999999998986, -0.9875168526162301 
1.0799999999998975, -0.9842429112555131 
1.0899999999998964, -0.9815906115017515 
1.0999999999998953, -0.9796871042594864 
1.1099999999998942, -0.9785006207298673 
1.119999999999893, -0.9778799770519429 
1.129999999999892, -0.9776273247449758 
1.1399999999998909, -0.9775625828290485 
1.1499999999998898, -0.9775544666027995 
1.1599999999998887, -0.9775202820580651 
1.1699999999998876, -0.9774101307699647 
1.1799999999998865, -0.9771887066239087 
1.1899999999998854, -0.9768204339982363 
1.1999999999998843, -0.9762589668545765 
1.2099999999998832, -0.9754413080104223 
1.219999999999882, -0.9742885523504878 
1.229999999999881, -0.9727172579591127 
1.2399999999998799, -0.9706644340425887 
1.2499999999998788, -0.9681221465060175 
1.2599999999998777, -0.9651672724171204 
1.2699999999998766, -0.9619681024614731 
1.2799999999998755, -0.9587593913957155 
1.2899999999998744, -0.9557933663669533 
1.2999999999998733, -0.9532831665664915 
1.3099999999998722, -0.9513558863069521 
1.319999999999871, -0.9500302781978757 
1.32999999999987, -0.9492278152661037 
1.3399999999998689, -0.9488116295216219 
1.3499999999998678, -0.9486334770244044 
1.3599999999998666, -0.9485676827909449 
1.3699999999998655, -0.9485235269333007 
1.3799999999998644, -0.9484408341692021 
1.3899999999998633, -0.9482781936503143 
1.3999999999998622, -0.9480008318971136 
1.4099999999998611, -0.9475714165431013 
1.41999999999986, -0.9469451950147789 
1.429999999999859, -0.9460708776316309 
1.4399999999998578, -0.944898872106538 
1.4499999999998567, -0.9433967042953822 
1.4599999999998556, -0.9415669990041048 
1.4699999999998545, -0.9394593703659678 
1.4799999999998534, -0.9371692012371089 
1.4899999999998523, -0.9348236776399087 
1.4999999999998512, -0.932561524819658 
1.5099999999998501, -0.9305125058190002 
1.519999999999849, -0.9287790332107739 
1.529999999999848, -0.9274209923740473 
1.5399999999998468, -0.9264469868673506 
1.5499999999998457, -0.9258165365010992 
1.5599999999998446, -0.9254543979836996 
1.5699999999998435, -0.9252716707289916 
1.5799999999998424, -0.9251846942294787 
1.5899999999998413, -0.9251253446944739 
1.5999999999998402, -0.9250421801135579 
1.6099999999998391, -0.9248959679905105 
1.619999999999838, -0.9246538373630997 
1.629999999999837, -0.9242851663320858 
1.6399999999998358, -0.9237610010071367 
1.6499999999998347, -0.9230575458643132 
1.6599999999998336, -0.9221625422304246 
1.6699999999998325, -0.9210814096657536 
1.6799999999998314, -0.9198395461423715 
1.6899999999998303, -0.9184794366244601 
1.6999999999998292, -0.9170545791058489 
1.709999999999828, -0.9156234998339976 
1.719999999999827, -0.9142454844503808 
1.729999999999826, -0.9129772664781832 
1.7399999999998248, -0.9118689564879506 
1.7499999999998237, -0.9109583661430192 
1.7599999999998226, -0.9102647547417314 
1.7699999999998215, -0.9097846250673325 
1.7799999999998204, -0.9094922217116238 
1.7899999999998193, -0.90934535977542 
1.7999999999998182, -0.9092943562641349 
1.809999999999817, -0.9092903838562558 
1.819999999999816, -0.9092905777421156 
1.8299999999998149, -0.9092595753287164 
1.8399999999998138, -0.9091689822013087 
1.8499999999998127, -0.9089966504938964 
1.8599999999998116, -0.9087268752879488 
1.8699999999998105, -0.9083513550753851 
1.8799999999998094, -0.9078698430732007 
1.8899999999998083, -0.907289546584825 
1.8999999999998072, -0.906623424538963 
1.909999999999806, -0.9058884844770005 
1.919999999999805, -0.9051050400508067 
1.9299999999998039, -0.9042969746486753 
1.9399999999998028, -0.9034923130685835 
1.9499999999998017, -0.9027231949357292 
1.9599999999998006, -0.9020244464647227 
1.9699999999997995, -0.9014302690504408 
1.9799999999997984, -0.900969269275512 
1.9899999999997973, -0.9006590614566985 
1.9999999999997962, -0.9005023812173072 
2.0099999999998173, -0.90048637729632 
2.0199999999998384, -0.9005854454519329 
2.0299999999998595, -0.900766404541554 
2.0399999999998806, -0.9009940091950248 
2.0499999999999017, -0.901235157616498 
2.059999999999923, -0.9014611927324578 
2.069999999999944, -0.9016485720056497 
2.079999999999965, -0.90177850307686 
2.089999999999986, -0.9018361485518049 
2.100000000000007, -0.901810040307373 
2.1100000000000283, -0.9016922987882701 
2.1200000000000494, -0.9014797572932046 
2.1300000000000705, -0.9011753299892705 
2.1400000000000916, -0.9007887467416221 
2.1500000000001127, -0.9003364478006566 
2.160000000000134, -0.8998412426153225 
2.170000000000155, -0.8993323736257478 
2.180000000000176, -0.8988458226124509 
2.190000000000197, -0.898423727840537 
2.2000000000002182, -0.8981114535774448 
2.2100000000002393, -0.8979516936070155 
2.2200000000002604, -0.8979767927543081 
2.2300000000002815, -0.8982020460472372 
2.2400000000003026, -0.8986226818228197 
2.2500000000003237, -0.8992153904227875 
2.260000000000345, -0.8999430155705544 
2.270000000000366, -0.9007599537037416 
2.280000000000387, -0.9016163472775146 
2.290000000000408, -0.9024606748218262 
2.3000000000004293, -0.903241862532672 
2.3100000000004504, -0.9039126440823242 
2.3200000000004715, -0.9044348910015406 
2.3300000000004926, -0.9047853552054734 
2.3400000000005137, -0.9049586820618674 
2.3500000000005348, -0.9049656897594944 
2.360000000000556, -0.9048280415766048 
2.370000000000577, -0.9045725917541063 
2.380000000000598, -0.9042283157214828 
2.390000000000619, -0.9038269701046362 
2.4000000000006403, -0.9034070200410167 
2.4100000000006614, -0.9030191955118921 
2.4200000000006825, -0.9027308496558287 
2.4300000000007036, -0.9026252725690599 
2.4400000000007247, -0.9027926239924641 
2.450000000000746, -0.9033125157683246 
2.460000000000767, -0.9042333466229545 
2.470000000000788, -0.9055562699193176 
2.480000000000809, -0.907229358752839 
2.49000000000083, -0.9091523970529567 
2.5000000000008513, -0.9111896915990112 
2.5100000000008724, -0.9131889916338046 
2.5200000000008935, -0.9150055973016388 
2.5300000000009146, -0.9165279945566585 
2.5400000000009357, -0.9176963656558479 
2.550000000000957, -0.9185052624989865 
2.560000000000978, -0.9189899622837588 
2.570000000000999, -0.9192053497011926 
2.58000000000102, -0.9192078006193695 
2.5900000000010412, -0.9190452735491116 
2.6000000000010624, -0.9187553927209022 
2.6100000000010835, -0.918369392851066 
2.6200000000011046, -0.9179204864108991 
2.6300000000011257, -0.9174562230373334 
2.6400000000011468, -0.9170538731883389 
2.650000000001168, -0.9168346181128679 
2.660000000001189, -0.9169669355167048 
2.67000000000121, -0.9176463887358082 
2.680000000001231, -0.9190453132183005 
2.6900000000012523, -0.9212438426698502 
2.7000000000012734, -0.924172508940327 
2.7100000000012945, -0.9275997177096409 
2.7200000000013156, -0.9311796657742413 
2.7300000000013367, -0.9345469793211258 
2.740000000001358, -0.9374176971555871 
2.750000000001379, -0.9396494094253998 
2.7600000000014, -0.9412381440812669 
2.770000000001421, -0.9422695391933225 
2.780000000001442, -0.9428615894915293 
2.7900000000014633, -0.9431249560455027 
2.8000000000014844, -0.9431455251221085 
2.8100000000015055, -0.94298211341319 
2.8200000000015266, -0.9426714663822636 
2.8300000000015477, -0.9422364858773864 
2.840000000001569, -0.9416974797213458 
2.85000000000159, -0.9410887442168996 
2.860000000001611, -0.9404830568919043 
2.870000000001632, -0.9400223228621464 
2.8800000000016532, -0.9399408461783965 
2.8900000000016743, -0.9405515932163164 
2.9000000000016954, -0.9421633746273537 
2.9100000000017165, -0.9449336041480618 
2.9200000000017377, -0.9487310058830216 
2.9300000000017588, -0.9531189906823039 
2.94000000000178, -0.9575048643932587 
2.950000000001801, -0.9613685958787576 
2.960000000001822, -0.964421454689222 
2.970000000001843, -0.9666191254070154 
2.9800000000018643, -0.9680737100060046 
2.9900000000018854, -0.9689518839641817 
3.0000000000019065, -0.9694093772198444 
3.0100000000019276, -0.9695649878280921 
3.0200000000019487, -0.9694981031312986 
3.03000000000197, -0.9692553928438377 
3.040000000001991, -0.968859571504494 
3.050000000002012, -0.9683189593479604 
3.060000000002033, -0.9676404024508706 
3.070000000002054, -0.9668506143195141 
3.0800000000020753, -0.9660308797910396 
3.0900000000020964, -0.9653622702732786 
3.1000000000021175, -0.9651568760226039 
3.1100000000021386, -0.9658222844042024 
3.1200000000021597, -0.9677119010083919 
3.130000000002181, -0.9709007662411631 
3.140000000002202, -0.975049305256284 
3.150000000002223, -0.9795082954665298 
3.160000000002244, -0.9836137594909291 
3.1700000000022652, -0.9869439084070027 
3.1800000000022863, -0.989380742516109 
3.1900000000023074, -0.9910153161621797 
3.2000000000023285, -0.9920204061979051 
3.2100000000023496, -0.9925656616827793 
3.2200000000023707, -0.992782664138286 
3.230000000002392, -0.9927598348047859 
3.240000000002413, -0.992548905060087 
3.250000000002434, -0.9921737091738512 
3.260000000002455, -0.9916390971389879 
3.2700000000024763, -0.9909422541988263 
3.2800000000024974, -0.9900920141393618 
3.2900000000025185, -0.9891433159179568 
3.3000000000025396, -0.9882486054223554 
3.3100000000025607, -0.9877063174147223 
3.3200000000025818, -0.9879491449003748 
3.330000000002603, -0.9894027846987277 
3.340000000002624, -0.9922318288248357 
3.350000000002645, -0.9961501743583814 
3.360000000002666, -1.0005001972156204 
3.3700000000026873, -1.0045715855282513 
3.3800000000027084, -1.0078977962670248 
3.3900000000027295, -1.0103360539933155 
3.4000000000027506, -1.0119693033645214 
3.4100000000027717, -1.012969855883839 
3.420000000002793, -1.0135087100444604 
3.430000000002814, -1.0137184408465598 
3.440000000002835, -1.0136877437118423 
3.450000000002856, -1.0134681120020628 
3.460000000002877, -1.013083020975653 
3.4700000000028983, -1.012537554367651 
3.4800000000029194, -1.0118312562922838 
3.4900000000029405, -1.0109805005783534 
3.5000000000029616, -1.0100576937326422 
3.5100000000029827, -1.0092465432245825 
3.520000000003004, -1.0088854371988611 
3.530000000003025, -1.0094314718823825 
3.540000000003046, -1.0112817419529971 
3.550000000003067, -1.0145060528531842 
3.5600000000030882, -1.0187033222818203 
3.5700000000031094, -1.023155109652007 
3.5800000000031305, -1.02717309770906 
3.5900000000031516, -1.0303594933140614 
3.6000000000031727, -1.0326362479176836 
3.6100000000031938, -1.0341234863228341 
3.620000000003215, -1.035005872945862 
3.630000000003236, -1.0354530791555856 
3.640000000003257, -1.0355915007449994 
3.650000000003278, -1.0355034734488748 
3.6600000000032993, -1.0352361442836633 
3.6700000000033204, -1.0348124079107692 
3.6800000000033415, -1.0342436001068598 
3.6900000000033626, -1.033548204502209 
3.7000000000033837, -1.032782990093911 
3.710000000003405, -1.0320889678207983 
3.720000000003426, -1.0317361384431751 
3.730000000003447, -1.0321178249428729 
3.740000000003468, -1.0336324492411588 
3.750000000003489, -1.0364611040922183 
3.7600000000035103, -1.0403855985606987 
3.7700000000035314, -1.044824918015337 
3.7800000000035525, -1.0490930216630583 
3.7900000000035736, -1.0526812979461015 
3.8000000000035947, -1.055380088653787 
3.810000000003616, -1.0572253690017361 
3.820000000003637, -1.0583751763813687 
3.830000000003658, -1.0590083434413073 
3.840000000003679, -1.0592736250145818 
3.8500000000037002, -1.0592765816421457 
3.8600000000037213, -1.059084665154171 
3.8700000000037424, -1.058738589503302 
3.8800000000037635, -1.058266505907837 
3.8900000000037847, -1.0577029065177563 
3.9000000000038058, -1.0571158326483283 
3.910000000003827, -1.0566410888243447 
3.920000000003848, -1.0565067073905654 
3.930000000003869, -1.0570109909414795 
3.94000000000389, -1.0584233265426173 
3.9500000000039113, -1.06083719764467 
3.9600000000039324, -1.0640754797613252 
3.9700000000039535, -1.0677312964225165 
3.9800000000039746, -1.071321894733496 
3.9900000000039957, -1.074454261608715 
4.000000000004016, -1.0769163757018512 
4.010000000003993, -1.0786746537002565 
4.02000000000397, -1.079812559208985 
4.030000000003946, -1.080459589817696 
4.040000000003923, -1.080741706552629 
4.0500000000039, -1.0807590811010144 
4.0600000000038765, -1.0805832468922196 
4.070000000003853, -1.0802645705342466 
4.08000000000383, -1.0798452172940585 
4.090000000003807, -1.0793764735304237 
4.100000000003783, -1.0789390861975063 
4.11000000000376, -1.0786593020738333 
4.120000000003737, -1.078704177236553 
4.130000000003713, -1.079240424727111 
4.14000000000369, -1.0803655827469458 
4.150000000003667, -1.0820530434472224 
4.1600000000036434, -1.0841506781957735 
4.17000000000362, -1.0864309477210192 
4.180000000003597, -1.0886573070252192 
4.1900000000035735, -1.0906362141470942 
4.20000000000355, -1.0922445768022557 
4.210000000003527, -1.0934344472663353 
4.220000000003504, -1.0942199649210054 
4.23000000000348, -1.0946539875354406 
4.240000000003457, -1.0948039908305507 
4.250000000003434, -1.0947350491486278 
4.26000000000341, -1.0945027874040665 
4.270000000003387, -1.094155130067183 
4.280000000003364, -1.093740162846685 
4.2900000000033405, -1.0933167494073623 
4.300000000003317, -1.0929624623950436 
4.310000000003294, -1.0927706829542954 
4.320000000003271, -1.0928309612032594 
4.330000000003247, -1.0931984350156365 
4.340000000003224, -1.093870849749845 
4.350000000003201, -1.0947887550114408 
4.360000000003177, -1.0958564007444065 
4.370000000003154, -1.0969680683766247 
4.380000000003131, -1.0980274967490518 
4.390000000003107, -1.0989577167782387 
4.400000000003084, -1.0997045221705846 
4.410000000003061, -1.1002370903778955 
4.4200000000030375, -1.1005469275701096 
4.430000000003014, -1.1006446337272933 
4.440000000002991, -1.1005544925316124 
4.450000000002968, -1.1003086150904748 
4.460000000002944, -1.0999431726860045 
4.470000000002921, -1.099498205515708 
4.480000000002898, -1.0990202448220825 
4.490000000002874, -1.0985645355363702 
4.500000000002851, -1.0981922628181708 
4.510000000002828, -1.0979600160102299 
4.520000000002804, -1.0979045398543803 
4.530000000002781, -1.098031191221113 
4.540000000002758, -1.0983130651621065 
4.5500000000027345, -1.0987003969777402 
4.560000000002711, -1.0991341327613864 
4.570000000002688, -1.0995574819523501 
4.580000000002665, -1.099922586350638 
4.590000000002641, -1.100192722007344 
4.600000000002618, -1.100342005441756 
4.610000000002595, -1.1003544442540956 
4.620000000002571, -1.1002232674571144 
4.630000000002548, -1.0999506248572928 
4.640000000002525, -1.0995473689805908 
4.6500000000025015, -1.099032812839763 
4.660000000002478, -1.0984347351947326 
4.670000000002455, -1.0977897502610383 
4.6800000000024315, -1.0971431222668455 
4.690000000002408, -1.096545961912658 
4.700000000002385, -1.0960480773178485 
4.710000000002362, -1.095687317493252 
4.720000000002338, -1.095479407092652 
4.730000000002315, -1.095413196368137 
4.740000000002292, -1.0954538973887373 
4.750000000002268, -1.095552693174871 
4.760000000002245, -1.0956578463083806 
4.770000000002222, -1.0957225952649685 
4.7800000000021985, -1.0957083726740207 
4.790000000002175, -1.0955850305185617 
4.800000000002152, -1.095330493619613 
4.810000000002129, -1.0949310529401282 
4.820000000002105, -1.0943821066460502 
4.830000000002082, -1.093688738197271 
4.840000000002059, -1.0928660154240932 
4.850000000002035, -1.0919394053403937 
4.860000000002012, -1.0909455155736276 
4.870000000001989, -1.0899325004285 
4.880000000001965, -1.0889584149770324 
4.890000000001942, -1.0880853697295358 
4.900000000001919, -1.0873684759338087 
4.9100000000018955, -1.0868416929193072 
4.920000000001872, -1.0865065498842068 
4.930000000001849, -1.0863307432389084 
