t, s[1].omega / s[0].omega 
0, -0.6899976952081546 
0.009999999999999995, -0.6897522029690659 
0.019999999999999934, -0.6894764651289106 
0.029999999999999874, -0.6891695019079964 
0.04000000000000012, -0.6888312420926314 
0.050000000000000405, -0.6884638337051748 
0.06000000000000069, -0.6880723360969028 
0.07000000000000098, -0.6876648874179037 
0.08000000000000126, -0.6872528237471291 
0.09000000000000155, -0.6868511748664581 
0.10000000000000184, -0.6864796732357186 
0.11000000000000212, -0.686164109517118 
0.12000000000000241, -0.6859376302097201 
0.130000000000002, -0.6858413895998371 
0.1400000000000009, -0.6859238215351245 
0.1499999999999998, -0.6862376886013768 
0.1599999999999987, -0.6868340271697555 
0.1699999999999976, -0.6877522687986144 
0.1799999999999965, -0.689006579185545 
0.1899999999999954, -0.6905705147913777 
0.1999999999999943, -0.6923657731143901 
0.2099999999999932, -0.6942642209332766 
0.2199999999999921, -0.6961103313067463 
0.229999999999991, -0.6977597094892078 
0.2399999999999899, -0.6991153630323975 
0.2499999999999888, -0.7001423905265379 
0.2599999999999877, -0.7008575061837984 
0.2699999999999866, -0.701305812190631 
0.2799999999999855, -0.7015392920867959 
0.2899999999999844, -0.7016036216876167 
0.2999999999999833, -0.7015326315236188 
0.3099999999999822, -0.7013471688721428 
0.3199999999999811, -0.701055551906883 
0.32999999999998, -0.7006540025509982 
0.3399999999999789, -0.7001264052963929 
0.3499999999999778, -0.6994434298035315 
0.35999999999997667, -0.698561793469245 
0.36999999999997557, -0.6974255926876678 
0.37999999999997447, -0.6959732720540928 
0.38999999999997337, -0.6941548578629692 
0.39999999999997227, -0.6919612657382477 
0.40999999999997117, -0.6894570069632711 
0.41999999999997006, -0.6867936391304703 
0.42999999999996896, -0.6841821046915749 
0.43999999999996786, -0.681829854798988 
0.44999999999996676, -0.6798793361176491 
0.45999999999996566, -0.6783818203876673 
0.46999999999996456, -0.6773101070532684 
0.47999999999996346, -0.6765905813793249 
0.48999999999996235, -0.6761344229104296 
0.49999999999996125, -0.6758583307615137 
0.5099999999999602, -0.6756941816932065 
0.519999999999959, -0.6755909121415736 
0.529999999999958, -0.67551225865908 
0.5399999999999568, -0.6754329944595934 
0.5499999999999557, -0.6753351974158793 
0.5599999999999546, -0.6752053109664369 
0.5699999999999535, -0.6750323412286525 
0.5799999999999524, -0.6748073246636077 
0.5899999999999513, -0.6745239885379233 
0.5999999999999502, -0.674180145060838 
0.6099999999999491, -0.6737788835462061 
0.619999999999948, -0.6733284825393351 
0.6299999999999469, -0.6728406012799109 
0.6399999999999458, -0.6723274889937889 
0.6499999999999447, -0.6717996803936026 
0.6599999999999436, -0.671265234466559 
0.6699999999999425, -0.6707304771596098 
0.6799999999999414, -0.6702014458845886 
0.6899999999999403, -0.6696852589524621 
0.6999999999999392, -0.6691911014084284 
0.7099999999999381, -0.6687308977028752 
0.719999999999937, -0.6683198219247386 
0.7299999999999359, -0.6679766816830424 
0.7399999999999348, -0.6677240728239524 
0.7499999999999337, -0.6675881288411633 
0.7599999999999326, -0.6675976821013151 
0.7699999999999315, -0.6677826637413129 
0.7799999999999304, -0.6681715319180117 
0.7899999999999293, -0.6687874107375498 
0.7999999999999282, -0.6696425481399112 
0.8099999999999271, -0.6707309822765295 
0.819999999999926, -0.6720204445681218 
0.8299999999999249, -0.6734467391829221 
0.8399999999999238, -0.67491598520842 
0.8499999999999227, -0.6763190894990456 
0.8599999999999216, -0.6775561588898792 
0.8699999999999205, -0.6785599203750413 
0.8799999999999194, -0.6793058556602298 
0.8899999999999183, -0.6798058473561892 
0.8999999999999172, -0.6800925624980652 
0.9099999999999161, -0.6802041372817533 
0.919999999999915, -0.6801741741174456 
0.9299999999999139, -0.6800271067867698 
0.9399999999999128, -0.6797768669022372 
0.9499999999999117, -0.6794268517913888 
0.9599999999999106, -0.6789699706359161 
0.9699999999999095, -0.6783882695640819 
0.9799999999999084, -0.6776522214975598 
0.9899999999999073, -0.6767204369968708 
0.9999999999999062, -0.6755416094542882 
1.0099999999999052, -0.6740620194975941 
1.019999999999904, -0.6722428695253024 
1.029999999999903, -0.6700887879431263 
1.039999999999902, -0.667678062069162 
1.0499999999999008, -0.6651711197989555 
1.0599999999998997, -0.6627764249839339 
1.0699999999998986, -0.6606841431565323 
1.0799999999998975, -0.6590084508221021 
1.0899999999998964, -0.6577708944716902 
1.0999999999998953, -0.6569220781446299 
1.1099999999998942, -0.6563776119377567 
1.119999999999893, -0.6560481289898312 
1.129999999999892, -0.6558562990185999 
1.1399999999998909, -0.6557426724147637 
1.1499999999998898, -0.6556648531486411 
1.1599999999998887, -0.6555938179540391 
1.1699999999998876, -0.6555097096289831 
1.1799999999998865, -0.6553982406764571 
1.1899999999998854, -0.6552481681290032 
1.1999999999998843, -0.6550500123782493 
1.2099999999998832, -0.6547960630872917 
1.219999999999882, -0.6544815040974175 
1.229999999999881, -0.6541060606841931 
1.2399999999998799, -0.6536750969049001 
1.2499999999998788, -0.6531990928131799 
1.2599999999998777, -0.652691299026111 
1.2699999999998766, -0.6521646336870387 
1.2799999999998755, -0.6516294370877678 
1.2899999999998744, -0.6510930171588992 
1.2999999999998733, -0.6505607176200564 
1.3099999999998722, -0.6500375696428646 
1.319999999999871, -0.6495297485615487 
1.32999999999987, -0.649045590583166 
1.3399999999998689, -0.6485963012903955 
1.3499999999998678, -0.6481965475675192 
1.3599999999998666, -0.6478649959461579 
1.3699999999998655, -0.6476247081924809 
1.3799999999998644, -0.6475032049003457 
1.3899999999998633, -0.6475319538436721 
1.3999999999998622, -0.6477449854161915 
1.4099999999998611, -0.6481762320399984 
1.41999999999986, -0.6488550321067514 
1.429999999999859, -0.6497991855177878 
1.4399999999998578, -0.6510054254904016 
1.4499999999998567, -0.6524388253529814 
1.4599999999998556, -0.6540256716264744 
1.4699999999998545, -0.6556569310572764 
1.4799999999998534, -0.6572073289514713 
1.4899999999998523, -0.6585656418375324 
1.4999999999998512, -0.6596613976833894 
1.5099999999998501, -0.6604737912649867 
1.519999999999849, -0.6610214932282047 
1.529999999999848, -0.661343683437109 
1.5399999999998468, -0.6614832469449106 
1.5499999999998457, -0.661476695181997 
1.5599999999998446, -0.6613499654080985 
1.5699999999998435, -0.6611174715390312 
1.5799999999998424, -0.6607822142422807 
1.5899999999998413, -0.6603357056467023 
1.5999999999998402, -0.6597572440078727 
1.6099999999998391, -0.6590127295914364 
1.619999999999838, -0.6580540773156801 
1.629999999999837, -0.6568216895656163 
1.6399999999998358, -0.6552542103335658 
1.6499999999998347, -0.6533100080254638 
1.6599999999998336, -0.650999353089857 
1.6699999999998325, -0.6484129877222631 
1.6799999999998314, -0.6457220267645394 
1.6899999999998303, -0.6431359934882402 
1.6999999999998292, -0.6408388765421129 
1.709999999999828, -0.6389417125932126 
1.719999999999827, -0.6374728562265509 
1.729999999999826, -0.6363978309471705 
1.7399999999998248, -0.6356486623445676 
1.7499999999998237, -0.6351483217223526 
1.7599999999998226, -0.6348256328838123 
1.7699999999998215, -0.6346218468261469 
1.7799999999998204, -0.6344918150332945 
1.7899999999998193, -0.6344023725071444 
1.7999999999998182, -0.6343296969834168 
1.809999999999817, -0.6342566745859667 
1.819999999999816, -0.6341708150200088 
1.8299999999998149, -0.6340629673000361 
1.8399999999998138, -0.6339268700589817 
1.8499999999998127, -0.633759313046354 
1.8599999999998116, -0.6335603782889849 
1.8699999999998105, -0.6333330667755139 
1.8799999999998094, -0.6330819072088127 
1.8899999999998083, -0.6328109098959065 
1.8999999999998072, -0.6325219219800233 
1.909999999999806, -0.632214359186365 
1.919999999999805, -0.6318864027850314 
1.9299999999998039, -0.6315368359017627 
1.9399999999998028, -0.6311665219971292 
1.9499999999998017, -0.6307790958123771 
1.9599999999998006, -0.6303811206137939 
1.9699999999997995, -0.6299822605157049 
1.9799999999997984, -0.6295959087755476 
1.9899999999997973, -0.629240449522497 
1.9999999999997962, -0.6289410863353699 
2.0099999999998173, -0.6287319573229433 
2.0199999999998384, -0.6286579950554926 
2.0299999999998595, -0.6287755954423565 
2.0399999999998806, -0.629150594428151 
2.0499999999999017, -0.6298514270324544 
2.059999999999923, -0.6309351696403115 
2.069999999999944, -0.6324256897099148 
2.079999999999965, -0.6342880897714401 
2.089999999999986, -0.6364119071266552 
2.100000000000007, -0.6386206161063931 
2.1100000000000283, -0.6407149880041266 
2.1200000000000494, -0.6425321517178384 
2.1300000000000705, -0.6439854925495389 
2.1400000000000916, -0.6450657912029225 
2.1500000000001127, -0.6458144819024751 
2.160000000000134, -0.6462924923398797 
2.170000000000155, -0.6465589854961445 
2.180000000000176, -0.6466615576615038 
2.190000000000197, -0.6466337242628184 
2.2000000000002182, -0.6464955088720449 
2.2100000000002393, -0.6462546383311147 
2.2200000000002604, -0.6459072683053605 
2.2300000000002815, -0.6454380565599012 
2.2400000000003026, -0.6448200875651648 
2.2500000000003237, -0.6440159685888541 
2.260000000000345, -0.6429823920745898 
2.270000000000366, -0.6416808386680221 
2.280000000000387, -0.6400950621005954 
2.290000000000408, -0.6382501818143613 
2.3000000000004293, -0.6362217714655471 
2.3100000000004504, -0.6341247853635086 
2.3200000000004715, -0.632084996848256 
2.3300000000004926, -0.6302084844102935 
2.3400000000005137, -0.6285639588751594 
2.3500000000005348, -0.6271812174273463 
2.360000000000556, -0.6260596954574399 
2.370000000000577, -0.6251796654125614 
2.380000000000598, -0.6245117160548275 
2.390000000000619, -0.6240232861479621 
2.4000000000006403, -0.6236826287929486 
2.4100000000006614, -0.6234609771052863 
2.4200000000006825, -0.6233335591984042 
2.4300000000007036, -0.6232798974063564 
2.4400000000007247, -0.6232836728123722 
2.450000000000746, -0.6233323435877729 
2.460000000000767, -0.623416627254505 
2.470000000000788, -0.6235298497845319 
2.480000000000809, -0.6236670297405195 
2.49000000000083, -0.6238234902862702 
2.5000000000008513, -0.6239929434842669 
2.5100000000008724, -0.6241654750730748 
2.5200000000008935, -0.6243264568765108 
2.5300000000009146, -0.6244575173487592 
2.5400000000009357, -0.6245397918143736 
2.550000000000957, -0.6245581405018494 
2.560000000000978, -0.6245041885099945 
2.570000000000999, -0.6243768153847353 
2.58000000000102, -0.6241804021743415 
2.5900000000010412, -0.6239222413184814 
2.6000000000010624, -0.6236104453663727 
2.6100000000010835, -0.6232530193818695 
2.6200000000011046, -0.6228582071373039 
2.6300000000011257, -0.622436015985951 
2.6400000000011468, -0.6220008175618722 
2.650000000001168, -0.6215748441318243 
2.660000000001189, -0.6211919812144389 
2.67000000000121, -0.6209002608037183 
2.680000000001231, -0.6207599271257016 
2.6900000000012523, -0.6208328746476575 
2.7000000000012734, -0.6211613690828071 
2.7100000000012945, -0.6217423211953124 
2.7200000000013156, -0.6225147210537062 
2.7300000000013367, -0.6233769264784221 
2.740000000001358, -0.6242267690870515 
2.750000000001379, -0.6249942452662245 
2.7600000000014, -0.6256469764650535 
2.770000000001421, -0.6261773703891437 
2.780000000001442, -0.6265892657792331 
2.7900000000014633, -0.6268909321328795 
2.8000000000014844, -0.627092306159197 
2.8100000000015055, -0.6272034754075335 
2.8200000000015266, -0.6272332907971822 
2.8300000000015477, -0.627188073612305 
2.840000000001569, -0.627070557770363 
2.85000000000159, -0.6268791387718573 
2.860000000001611, -0.6266075305245119 
2.870000000001632, -0.6262451159541459 
2.8800000000016532, -0.6257785247189638 
2.8900000000016743, -0.6251950301639702 
2.9000000000016954, -0.6244878133752518 
2.9100000000017165, -0.6236617575077388 
2.9200000000017377, -0.6227369060335091 
2.9300000000017588, -0.6217468132497052 
2.94000000000178, -0.6207317315289382 
2.950000000001801, -0.6197299920290912 
2.960000000001822, -0.6187717873833183 
2.970000000001843, -0.6178773133339022 
2.9800000000018643, -0.617058408858451 
2.9900000000018854, -0.6163216405882131 
3.0000000000019065, -0.6156712003901765 
3.0100000000019276, -0.6151109226017477 
3.0200000000019487, -0.614645401577645 
3.03000000000197, -0.6142804554775384 
3.040000000001991, -0.6140231975580323 
3.050000000002012, -0.613881904281578 
3.060000000002033, -0.6138657818193998 
3.070000000002054, -0.6139846329828247 
3.0800000000020753, -0.6142482969930252 
3.0900000000020964, -0.6146655681783484 
3.1000000000021175, -0.6152421345858513 
3.1100000000021386, -0.6159770462555946 
3.1200000000021597, -0.6168576004154873 
3.130000000002181, -0.6178536509367591 
3.140000000002202, -0.6189141540640941 
3.150000000002223, -0.6199700192279881 
3.160000000002244, -0.6209456685491046 
3.1700000000022652, -0.6217762286073469 
3.1800000000022863, -0.622421949863803 
3.1900000000023074, -0.6228723980275235 
3.2000000000023285, -0.623140073748367 
3.2100000000023496, -0.6232491978385851 
3.2200000000023707, -0.623225647575541 
3.230000000002392, -0.6230906276187285 
3.240000000002413, -0.6228576880259953 
3.250000000002434, -0.6225316244987613 
3.260000000002455, -0.6221079611702661 
3.2700000000024763, -0.621572240614414 
3.2800000000024974, -0.6208988613611485 
3.2900000000025185, -0.6200497819396367 
3.3000000000025396, -0.6189743671518783 
3.3100000000025607, -0.6176133005087288 
3.3200000000025818, -0.6159113785768376 
3.330000000002603, -0.6138433275220374 
3.340000000002624, -0.6114482596430043 
3.350000000002645, -0.6088520860508136 
3.360000000002666, -0.6062507454429927 
3.3700000000026873, -0.6038515978312667 
3.3800000000027084, -0.6018079599863698 
3.3900000000027295, -0.6001865968636831 
3.4000000000027506, -0.598976276646622 
3.4100000000027717, -0.5981178644702279 
3.420000000002793, -0.5975343984452256 
3.430000000002814, -0.5971511061383459 
3.440000000002835, -0.5969049753990681 
3.450000000002856, -0.5967472202587059 
3.460000000002877, -0.5966420343015845 
3.4700000000028983, -0.5965639362082648 
3.4800000000029194, -0.5964949891168702 
3.4900000000029405, -0.5964225126016689 
3.5000000000029616, -0.5963375434424106 
3.5100000000029827, -0.59623409019955 
3.520000000003004, -0.5961090243051341 
3.530000000003025, -0.5959621910681827 
3.540000000003046, -0.5957961115006001 
3.550000000003067, -0.5956147539895911 
3.5600000000030882, -0.5954214617170915 
3.5700000000031094, -0.5952169279091456 
3.5800000000031305, -0.5949984058089987 
3.5900000000031516, -0.5947607029176442 
3.6000000000031727, -0.5944983799448217 
3.6100000000031938, -0.5942079061851548 
3.620000000003215, -0.593888823013494 
3.630000000003236, -0.5935438353178927 
3.640000000003257, -0.5931784177707918 
3.650000000003278, -0.5928006410728436 
3.6600000000032993, -0.5924216857952188 
3.6700000000033204, -0.5920572329554016 
3.6800000000033415, -0.5917297258814218 
3.6900000000033626, -0.5914713156589702 
3.7000000000033837, -0.591326967296288 
3.710000000003405, -0.5913565299835627 
3.720000000003426, -0.5916334492785608 
3.730000000003447, -0.5922364676899703 
3.740000000003468, -0.5932303684601109 
3.750000000003489, -0.5946353969266213 
3.7600000000035103, -0.5963952377502507 
3.7700000000035314, -0.5983662793424231 
3.7800000000035525, -0.6003493576304122 
3.7900000000035736, -0.6021556195883664 
3.8000000000035947, -0.6036645910084601 
3.810000000003616, -0.6048391439686382 
3.820000000003637, -0.6057022071422311 
3.830000000003658, -0.6063035521141572 
3.840000000003679, -0.6066962094591303 
3.8500000000037002, -0.606925411266492 
3.8600000000037213, -0.607025450492149 
3.8700000000037424, -0.6070199277426555 
3.8800000000037635, -0.6069228839255024 
3.8900000000037847, -0.6067398214726045 
3.9000000000038058, -0.6064684115391089 
3.910000000003827, -0.6060991397743825 
3.920000000003848, -0.6056165307455386 
3.930000000003869, -0.6050019350960503 
3.94000000000389, -0.6042388418227003 
3.9500000000039113, -0.6033206639918055 
3.9600000000039324, -0.6022586808117718 
3.9700000000039535, -0.601085675631344 
3.9800000000039746, -0.599851650036924 
3.9900000000039957, -0.5986126964005243 
4.000000000004016, -0.5974187818914605 
4.010000000003993, -0.596306200227677 
4.02000000000397, -0.5952963945432485 
4.030000000003946, -0.5943991136152498 
4.040000000003923, -0.593616904458925 
4.0500000000039, -0.5929489621990649 
4.0600000000038765, -0.5923936804179853 
4.070000000003853, -0.5919500393963935 
4.08000000000383, -0.591618223186816 
4.090000000003807, -0.5913998232559391 
4.100000000003783, -0.591297863479045 
4.11000000000376, -0.5913167502151571 
4.120000000003737, -0.5914621219860009 
4.130000000003713, -0.5917404310734615 
4.14000000000369, -0.5921579269496743 
4.150000000003667, -0.5927185664560775 
4.1600000000036434, -0.5934203880156151 
4.17000000000362, -0.5942503412829023 
4.180000000003597, -0.5951787651579232 
4.1900000000035735, -0.5961564735353962 
4.20000000000355, -0.5971183367220417 
4.210000000003527, -0.5979950674140626 
4.220000000003504, -0.5987293909125977 
4.23000000000348, -0.599288376455887 
4.240000000003457, -0.5996657409002779 
4.250000000003434, -0.599874912857545 
4.26000000000341, -0.5999385539752625 
4.270000000003387, -0.5998796848750136 
4.280000000003364, -0.5997162859924325 
4.2900000000033405, -0.5994587582807458 
4.300000000003317, -0.5991088620638002 
4.310000000003294, -0.5986589854126902 
4.320000000003271, -0.5980910863610597 
4.330000000003247, -0.5973751686968504 
4.340000000003224, -0.5964678513271336 
4.350000000003201, -0.5953128466656044 
4.360000000003177, -0.5938471558408508 
4.370000000003154, -0.5920183490299321 
4.380000000003131, -0.5898152969180172 
4.390000000003107, -0.5873023049558548 
4.400000000003084, -0.5846307713328203 
4.410000000003061, -0.5820064368064619 
4.4200000000030375, -0.5796243417284328 
4.430000000003014, -0.5776128744047618 
4.440000000002991, -0.5760165267766731 
4.450000000002968, -0.574813033835375 
4.460000000002944, -0.5739430853095129 
4.470000000002921, -0.5733357480174098 
4.480000000002898, -0.5729239927726163 
4.490000000002874, -0.5726516255698165 
4.500000000002851, -0.5724748226502809 
4.510000000002828, -0.5723609783523905 
4.520000000002804, -0.5722865791233969 
4.530000000002781, -0.5722350280777438 
4.540000000002758, -0.5721948606963785 
4.5500000000027345, -0.5721585156780978 
4.560000000002711, -0.5721216298559592 
4.570000000002688, -0.5720826232698799 
4.580000000002665, -0.5720421382488331 
4.590000000002641, -0.5720018496488432 
4.600000000002618, -0.5719624901288819 
4.610000000002595, -0.5719216325637886 
4.620000000002571, -0.5718723881531788 
4.630000000002548, -0.5718040530134367 
4.640000000002525, -0.5717046866692381 
4.6500000000025015, -0.5715643501268695 
4.660000000002478, -0.5713773532177403 
4.670000000002455, -0.5711426792826153 
4.6800000000024315, -0.5708629647714872 
4.690000000002408, -0.5705430406082852 
4.700000000002385, -0.5701889091315753 
4.710000000002362, -0.5698075875221392 
4.720000000002338, -0.5694079112015602 
4.730000000002315, -0.5690022422268 
4.740000000002292, -0.5686089238315629 
4.750000000002268, -0.568255039732609 
4.760000000002245, -0.5679783470159248 
4.770000000002222, -0.5678260642246941 
4.7800000000021985, -0.5678470400417285 
4.790000000002175, -0.5680746959472037 
4.800000000002152, -0.5685043191090647 
4.810000000002129, -0.5690795408639964 
4.820000000002105, -0.5697068382142676 
4.830000000002082, -0.5702967226731921 
4.840000000002059, -0.5707998647262262 
4.850000000002035, -0.5712097265820628 
4.860000000002012, -0.5715402137491633 
4.870000000001989, -0.571805198009382 
4.880000000001965, -0.5720117605787389 
4.890000000001942, -0.5721621673562877 
4.900000000001919, -0.5722571898826334 
4.9100000000018955, -0.5722977199081182 
4.920000000001872, -0.5722847561005212 
