"Latest: Time (s)","Latest: Magnetic Field (mT)"
0,0.0332086076305
0.005,0.0250890247407
0.01,0.0130326743893
0.015,-0.0155088897081
0.02,-0.0479872212672
0.025,-0.0888311836825
0.03,-0.137548681021
0.035,-0.194631809216
0.04,-0.259588472334
0.045,-0.32872795088
0.05,-0.410169827745
0.055,-0.50366805496
0.06,-0.589292747252
0.065,-0.67860815904
0.07,-0.764232851332
0.075,-0.857731078548
0.08,-0.934990139984
0.085,-0.99601003564
0.09,-1.05309316384
0.095,-1.09369107828
0.1,-1.11804982695
0.105,-1.12223264238
0.11,-1.12223264238
0.115,-1.10181066117
0.12,-1.06514951419
0.125,-1.01643201685
0.13,-0.955412121191
0.135,-0.886272642645
0.14,-0.804830765781
0.145,-0.715269306027
0.15,-0.621771078811
0.155,-0.536392434486
0.16,-0.450767742193
0.165,-0.369571913296
0.17,-0.292066803893
0.175,-0.227110140775
0.18,-0.166090245119
0.185,-0.117126699814
0.19,-0.0765287853646
0.195,-0.0398676383775
0.2,-0.0155088897081
0.205,0.00491309149947
0.21,0.016969441851
0.215,0.016969441851
0.22,0.016969441851
0.225,0.00491309149947
0.23,-0.0113260742801
0.235,-0.0398676383775
0.24,-0.0684092024749
0.245,-0.109007116924
0.25,-0.157970662229
0.255,-0.214807742457
0.26,-0.275827638114
0.265,-0.35308669955
0.27,-0.434528576414
0.275,-0.524090036168
0.28,-0.613651495922
0.285,-0.703212955676
0.29,-0.796711182891
0.295,-0.886272642645
0.3,-0.963531704081
0.305,-1.03267118263
0.31,-1.08557149539
0.315,-1.13035222527
0.32,-1.15471097394
0.325,-1.16701337226
0.33,-1.17095013972
0.335,-1.15077420648
0.34,-1.11804982695
0.345,-1.06933232961
0.35,-1.00412961853
0.355,-0.934990139984
0.36,-0.849611495658
0.365,-0.764232851332
0.37,-0.666551808688
0.375,-0.568870766045
0.38,-0.475372538829
0.385,-0.385811079075
0.39,-0.300432434749
0.395,-0.222927325347
0.4,-0.157970662229
0.405,-0.100887534034
0.41,-0.0521700366953
0.415,-0.0155088897081
0.42,0.016969441851
0.425,0.0373914230586
0.43,0.0578134042662
0.435,0.065932987156
0.44,0.065932987156
0.445,0.0617501717279
0.45,0.0496938213764
0.455,0.0292718401688
0.46,0.000730276071408
0.465,-0.0359308709158
0.47,-0.0765287853646
0.475,-0.129429098131
0.48,-0.18626617836
0.485,-0.251468889444
0.49,-0.324791183419
0.495,-0.410169827745
0.5,-0.49554847207
0.505,-0.589292747252
0.51,-0.67860815904
0.515,-0.764232851332
0.52,-0.857731078548
0.525,-0.934990139984
0.53,-1.00412961853
0.535,-1.06121274672
0.54,-1.10181066117
0.545,-1.13428899273
0.55,-1.14659139105
0.555,-1.15077420648
0.56,-1.13035222527
0.565,-1.10181066117
0.57,-1.0570299313
0.575,-1.00019285107
0.58,-0.926870557094
0.585,-0.84542868023
0.59,-0.760050035904
0.595,-0.66236899326
0.6,-0.568870766045
0.605,-0.479309306291
0.61,-0.389747846537
0.615,-0.312488785101
0.62,-0.235229723665
0.625,-0.174209828008
0.63,-0.125246282703
0.635,-0.0807116007927
0.64,-0.0359308709158
0.645,-0.0113260742801
0.65,0.00884985896118
0.655,0.0292718401688
0.66,0.0332086076305
0.665,0.0373914230586
0.67,0.0292718401688
0.675,0.016969441851
0.68,-0.00738930681837
0.685,-0.0359308709158
0.69,-0.0684092024749
0.695,-0.113189932352
0.7,-0.166090245119
0.705,-0.231046908237
0.71,-0.296249619321
0.715,-0.373508680757
0.72,-0.463070140511
0.725,-0.548448784837
0.73,-0.642193060019
0.735,-0.731508471807
0.74,-0.817133164099
0.745,-0.898328992997
0.75,-0.967468471543
0.755,-1.02455159974
0.76,-1.06933232961
0.765,-1.10181066117
0.77,-1.12223264238
0.775,-1.12223264238
0.78,-1.11411305949
0.785,-1.08950826286
0.79,-1.04891034841
0.795,-0.99601003564
0.8,-0.934990139984
0.805,-0.85354826312
0.81,-0.772352434222
0.815,-0.682790974468
0.82,-0.593229514714
0.825,-0.50366805496
0.83,-0.418289410634
0.835,-0.341030349198
0.84,-0.271890870652
0.845,-0.202751392106
0.85,-0.149851079339
0.855,-0.100887534034
0.86,-0.0642263870468
0.865,-0.027811288026
0.87,-0.00738930681837
0.875,0.00884985896118
0.88,0.021152257279
0.885,0.021152257279
0.89,0.0130326743893
0.895,-0.0032064913903
0.9,-0.0196917051362
0.905,-0.0479872212672
0.91,-0.0846483682544
0.915,-0.125246282703
0.92,-0.174209828008
0.925,-0.235229723665
0.93,-0.308552017639
0.935,-0.377691496185
0.94,-0.463070140511
0.945,-0.552631600265
0.95,-0.642193060019
0.955,-0.731508471807
0.96,-0.82106993156
0.965,-0.906448575886
0.97,-0.983953685289
0.975,-1.04079076552
0.98,-1.09787389371
0.985,-1.13847180816
0.99,-1.15889378937
0.995,-1.17095013972
1,-1.16283055683
1.005,-1.13847180816
1.01,-1.1059934766
1.015,-1.0570299313
1.02,-0.992073268179
1.025,-0.918750974204
1.03,-0.833372329878
1.035,-0.739628054696
1.04,-0.646129827481
1.045,-0.548448784837
1.05,-0.454950557621
1.055,-0.365389097868
1.06,-0.283947221003
1.065,-0.210870974995
1.07,-0.145668263911
1.075,-0.0927679511442
1.08,-0.0479872212672
1.085,-0.00738930681837
1.09,0.021152257279
1.095,0.0415742384866
1.1,0.0578134042662
1.105,0.0617501717279
1.11,0.0698697546177
1.115,0.0578134042662
1.12,0.0455110059484
1.125,0.0250890247407
1.13,-0.0032064913903
1.135,-0.0440504538055
1.14,-0.0807116007927
1.145,-0.137548681021
1.15,-0.202751392106
1.155,-0.271890870652
1.16,-0.35308669955
1.165,-0.434528576414
1.17,-0.524090036168
1.175,-0.617588263383
1.18,-0.711332538565
1.185,-0.800647950353
1.19,-0.886272642645
1.195,-0.959348888653
1.2,-1.02455159974
1.205,-1.08138867997
1.21,-1.12223264238
1.215,-1.14240857562
1.22,-1.15471097394
1.225,-1.14659139105
1.23,-1.12223264238
1.235,-1.08950826286
1.24,-1.04079076552
1.245,-0.971651286971
1.25,-0.902511808425
1.255,-0.812950348671
1.26,-0.723388888917
1.265,-0.629890661701
1.27,-0.536392434486
1.275,-0.450767742193
1.28,-0.369571913296
1.285,-0.288130036432
1.29,-0.218990557885
1.295,-0.16190742969
1.3,-0.109007116924
1.305,-0.0642263870468
1.31,-0.027811288026
1.315,-0.0032064913903
1.32,0.016969441851
1.325,0.0292718401688
1.33,0.0373914230586
1.335,0.0373914230586
1.34,0.0250890247407
1.345,0.016969441851
1.35,-0.0113260742801
1.355,-0.0398676383775
1.36,-0.0807116007927
1.365,-0.129429098131
1.37,-0.182329410898
1.375,-0.247532121983
1.38,-0.324791183419
1.385,-0.402050244855
1.39,-0.491611704609
1.395,-0.580927116396
1.4,-0.67048857615
1.405,-0.760050035904
1.41,-0.84542868023
1.415,-0.926870557094
1.42,-0.992073268179
1.425,-1.04497358095
1.43,-1.08557149539
1.435,-1.10993024406
1.44,-1.12223264238
1.445,-1.11804982695
1.45,-1.10181066117
1.455,-1.06933232961
1.46,-1.02455159974
1.465,-0.963531704081
1.47,-0.894392225535
1.475,-0.817133164099
1.48,-0.723388888917
1.485,-0.638010244591
1.49,-0.548448784837
1.495,-0.467006907973
1.5,-0.381628263647
1.505,-0.304369202211
1.51,-0.235229723665
1.515,-0.17814659547
1.52,-0.125246282703
1.525,-0.0807116007927
1.53,-0.0440504538055
1.535,-0.0196917051362
1.54,0.000730276071408
1.545,0.0130326743893
1.55,0.016969441851
1.555,0.016969441851
1.56,0.00884985896118
1.565,-0.0113260742801
1.57,-0.0359308709158
1.575,-0.0642263870468
1.58,-0.105070349462
1.585,-0.149851079339
1.59,-0.202751392106
1.595,-0.267708055224
1.6,-0.341030349198
1.605,-0.418289410634
1.61,-0.50366805496
1.615,-0.593229514714
1.62,-0.68672774193
1.625,-0.780472017112
1.63,-0.870033476866
1.635,-0.943109722873
1.64,-1.01643201685
1.645,-1.0774519125
1.65,-1.11804982695
1.655,-1.15077420648
1.66,-1.16283055683
1.665,-1.16701337226
1.67,-1.15077420648
1.675,-1.12223264238
1.68,-1.08138867997
1.685,-1.02455159974
1.69,-0.955412121191
1.695,-0.873970244327
1.7,-0.784408784573
1.705,-0.68672774193
1.71,-0.597412330142
1.715,-0.49554847207
1.72,-0.410169827745
1.725,-0.320608367991
1.73,-0.243349306555
1.735,-0.174209828008
1.74,-0.117126699814
1.745,-0.0684092024749
1.75,-0.027811288026
1.755,0.00884985896118
1.76,0.0332086076305
1.765,0.0496938213764
1.77,0.0617501717279
1.775,0.065932987156
1.78,0.0578134042662
1.785,0.0496938213764
1.79,0.0292718401688
1.795,0.00491309149947
1.8,-0.0196917051362
1.805,-0.0684092024749
1.81,-0.117126699814
1.815,-0.166090245119
1.82,-0.235229723665
1.825,-0.308552017639
1.83,-0.389747846537
1.835,-0.475372538829
1.84,-0.568870766045
1.845,-0.654249410371
1.85,-0.747747637586
1.855,-0.833372329878
1.86,-0.910631391314
1.865,-0.98789045275
1.87,-1.04497358095
1.875,-1.09369107828
1.88,-1.12616940984
1.885,-1.14659139105
1.89,-1.15077420648
1.895,-1.13847180816
1.9,-1.11411305949
1.905,-1.07326909708
1.91,-1.02036878431
1.915,-0.951229305763
1.92,-0.873970244327
1.925,-0.784408784573
1.93,-0.699030140247
1.935,-0.601349097604
1.94,-0.51178763785
1.945,-0.422472226062
1.95,-0.341030349198
1.955,-0.263771287762
1.96,-0.198568576678
1.965,-0.141731496449
1.97,-0.0888311836825
1.975,-0.0521700366953
1.98,-0.0196917051362
1.985,0.00491309149947
1.99,0.0250890247407
1.995,0.0332086076305
2,0.0373914230586
2.005,0.0332086076305
2.01,0.0250890247407
2.015,0.000730276071408
2.02,-0.0236284725979
2.025,-0.056106804157
2.03,-0.0969507665723
2.035,-0.145668263911
2.04,-0.206688159567
2.045,-0.263771287762
2.05,-0.341030349198
2.055,-0.414352643173
2.06,-0.507850870388
2.065,-0.597412330142
2.07,-0.68672774193
2.075,-0.776289201684
2.08,-0.857731078548
2.085,-0.934990139984
2.09,-1.00019285107
2.095,-1.0570299313
2.1,-1.09369107828
2.105,-1.11411305949
2.11,-1.12616940984
2.115,-1.12223264238
2.12,-1.10181066117
2.125,-1.06933232961
2.13,-1.02455159974
2.135,-0.963531704081
2.14,-0.894392225535
2.145,-0.817133164099
2.15,-0.727571704345
2.155,-0.638010244591
2.16,-0.548448784837
2.165,-0.463070140511
2.17,-0.381628263647
2.175,-0.304369202211
2.18,-0.235229723665
2.185,-0.174209828008
2.19,-0.121309515242
2.195,-0.0807116007927
2.2,-0.0440504538055
2.205,-0.0155088897081
2.21,0.000730276071408
2.215,0.0130326743893
2.22,0.016969441851
2.225,0.016969441851
2.23,0.00491309149947
2.235,-0.0113260742801
2.24,-0.0317480554877
2.245,-0.0602896195851
2.25,-0.105070349462
2.255,-0.149851079339
2.26,-0.206688159567
2.265,-0.267708055224
2.27,-0.341030349198
2.275,-0.422472226062
2.28,-0.50366805496
2.285,-0.593229514714
2.29,-0.682790974468
2.295,-0.776289201684
2.3,-0.865850661437
2.305,-0.943109722873
2.31,-1.01224920142
2.315,-1.0774519125
2.32,-1.11804982695
2.325,-1.14659139105
2.33,-1.16701337226
2.335,-1.17095013972
2.34,-1.15471097394
2.345,-1.12616940984
2.35,-1.08557149539
2.355,-1.02455159974
2.36,-0.959348888653
2.365,-0.878153059755
2.37,-0.788591600001
2.375,-0.694847324819
2.38,-0.601349097604
2.385,-0.50366805496
2.39,-0.414352643173
2.395,-0.324791183419
2.4,-0.247532121983
2.405,-0.17814659547
2.41,-0.117126699814
2.415,-0.0642263870468
2.42,-0.027811288026
2.425,0.00491309149947
2.43,0.0332086076305
2.435,0.0536305888381
2.44,0.065932987156
2.445,0.0617501717279
2.45,0.0617501717279
2.455,0.0536305888381
2.46,0.0332086076305
2.465,0.0130326743893
2.47,-0.0196917051362
2.475,-0.056106804157
2.48,-0.105070349462
2.485,-0.166090245119
2.49,-0.231046908237
2.495,-0.304369202211
2.5,-0.385811079075
2.505,-0.467006907973
2.51,-0.564687950617
2.515,-0.654249410371
2.52,-0.743810870124
2.525,-0.833372329878
2.53,-0.914568158776
2.535,-0.992073268179
2.54,-1.04891034841
2.545,-1.09787389371
2.55,-1.13035222527
2.555,-1.14659139105
2.56,-1.15077420648
2.565,-1.13428899273
2.57,-1.11411305949
2.575,-1.07326909708
2.58,-1.01643201685
2.585,-0.951229305763
2.59,-0.873970244327
2.595,-0.784408784573
2.6,-0.690910557358
2.605,-0.601349097604
2.61,-0.50366805496
2.615,-0.418289410634
2.62,-0.341030349198
2.625,-0.259588472334
2.63,-0.198568576678
2.635,-0.145668263911
2.64,-0.0927679511442
2.645,-0.0521700366953
2.65,-0.0196917051362
2.655,0.00491309149947
2.66,0.0250890247407
2.665,0.0332086076305
2.67,0.0373914230586
2.675,0.0332086076305
2.68,0.021152257279
2.685,0.00491309149947
2.69,-0.0196917051362
2.695,-0.056106804157
2.7,-0.0969507665723
2.705,-0.141731496449
2.71,-0.206688159567
2.715,-0.267708055224
2.72,-0.341030349198
2.725,-0.426408993524
2.73,-0.515970453278
2.735,-0.605531913032
2.74,-0.694847324819
2.745,-0.784408784573
2.75,-0.865850661437
2.755,-0.939172955412
2.76,-1.00831243396
2.765,-1.05309316384
2.77,-1.08950826286
2.775,-1.11411305949
2.78,-1.11804982695
2.785,-1.11804982695
2.79,-1.09787389371
2.795,-1.06514951419
2.8,-1.01643201685
2.805,-0.955412121191
2.81,-0.886272642645
2.815,-0.804830765781
2.82,-0.711332538565
2.825,-0.621771078811
2.83,-0.540329201947
2.835,-0.450767742193
2.84,-0.369571913296
2.845,-0.296249619321
2.85,-0.222927325347
2.855,-0.17002701258
2.86,-0.121309515242
2.865,-0.0765287853646
2.87,-0.0440504538055
2.875,-0.0196917051362
2.88,0.00491309149947
2.885,0.0130326743893
2.89,0.016969441851
2.895,0.016969441851
2.9,0.000730276071408
2.905,-0.00738930681837
2.91,-0.0359308709158
2.915,-0.0723459699366
2.92,-0.100887534034
2.925,-0.153787846801
2.93,-0.210870974995
2.935,-0.271890870652
2.94,-0.34496711666
2.945,-0.422472226062
2.95,-0.51178763785
2.955,-0.601349097604
2.96,-0.690910557358
2.965,-0.784408784573
2.97,-0.870033476866
2.975,-0.951229305763
2.98,-1.01643201685
2.985,-1.0774519125
2.99,-1.12223264238
2.995,-1.15077420648
3,-1.16701337226
3.005,-1.16701337226
3.01,-1.15077420648
3.015,-1.12223264238
3.02,-1.0774519125
3.025,-1.02036878431
3.03,-0.947292538302
3.035,-0.865850661437
3.04,-0.776289201684
3.045,-0.67860815904
3.05,-0.585109931824
3.055,-0.487428889181
3.06,-0.397867429427
3.065,-0.316671600529
3.07,-0.239166491127
3.075,-0.17002701258
3.08,-0.113189932352
3.085,-0.0602896195851
3.09,-0.0236284725979
3.095,0.0130326743893
3.1,0.0332086076305
3.105,0.0496938213764
3.11,0.065932987156
3.115,0.065932987156
3.12,0.0617501717279
3.125,0.0496938213764
3.13,0.0292718401688
3.135,0.00884985896118
3.14,-0.027811288026
3.145,-0.0684092024749
3.15,-0.117126699814
3.155,-0.174209828008
3.16,-0.243349306555
3.165,-0.320608367991
3.17,-0.402050244855
3.175,-0.487428889181
3.18,-0.580927116396
3.185,-0.666551808688
3.19,-0.764232851332
3.195,-0.849611495658
3.2,-0.926870557094
3.205,-1.00019285107
3.21,-1.0570299313
3.215,-1.10181066117
3.22,-1.13428899273
3.225,-1.15077420648
3.23,-1.15077420648
3.235,-1.13428899273
3.24,-1.1059934766
3.245,-1.06514951419
3.25,-1.00831243396
3.255,-0.939172955412
3.26,-0.85354826312
3.265,-0.768169618794
3.27,-0.674671391578
3.275,-0.580927116396
3.28,-0.487428889181
3.285,-0.402050244855
3.29,-0.324791183419
3.295,-0.243349306555
3.3,-0.182329410898
3.305,-0.129429098131
3.31,-0.0807116007927
3.315,-0.0398676383775
3.32,-0.0155088897081
3.325,0.0130326743893
3.33,0.0250890247407
3.335,0.0332086076305
3.34,0.0373914230586
3.345,0.0292718401688
3.35,0.016969441851
3.355,0.000730276071408
3.36,-0.0359308709158
3.365,-0.0642263870468
3.37,-0.109007116924
3.375,-0.166090245119
3.38,-0.227110140775
3.385,-0.296249619321
3.39,-0.373508680757
3.395,-0.450767742193
3.4,-0.544512017375
3.405,-0.629890661701
3.41,-0.723388888917
3.415,-0.817133164099
3.42,-0.894392225535
3.425,-0.963531704081
3.43,-1.02036878431
3.435,-1.07326909708
3.44,-1.10181066117
3.445,-1.12223264238
3.45,-1.12223264238
3.455,-1.11411305949
3.46,-1.08557149539
3.465,-1.04497358095
3.47,-0.992073268179
3.475,-0.931053372522
3.48,-0.849611495658
3.485,-0.764232851332
3.49,-0.682790974468
3.495,-0.585109931824
3.5,-0.50366805496
3.505,-0.414352643173
3.51,-0.341030349198
3.515,-0.263771287762
3.52,-0.198568576678
3.525,-0.141731496449
3.53,-0.0969507665723
3.535,-0.056106804157
3.54,-0.027811288026
3.545,-0.00738930681837
3.55,0.0130326743893
3.555,0.016969441851
3.56,0.016969441851
3.565,0.0130326743893
3.57,-0.00738930681837
3.575,-0.0196917051362
3.58,-0.0521700366953
3.585,-0.0888311836825
3.59,-0.129429098131
3.595,-0.18626617836
3.6,-0.243349306555
3.605,-0.312488785101
3.61,-0.389747846537
3.615,-0.479309306291
3.62,-0.568870766045
3.625,-0.658432225799
3.63,-0.747747637586
3.635,-0.83730909734
3.64,-0.922933789632
3.645,-0.99601003564
3.65,-1.0570299313
3.655,-1.10993024406
3.66,-1.14240857562
3.665,-1.16283055683
3.67,-1.17095013972
3.675,-1.15889378937
3.68,-1.13847180816
3.685,-1.09787389371
3.69,-1.04891034841
3.695,-0.983953685289
3.7,-0.902511808425
3.705,-0.817133164099
3.71,-0.723388888917
3.715,-0.621771078811
3.72,-0.528272851596
3.725,-0.438711391842
3.73,-0.349149932088
3.735,-0.267708055224
3.74,-0.198568576678
3.745,-0.133611913559
3.75,-0.0807116007927
3.755,-0.0359308709158
3.76,0.00491309149947
3.765,0.0250890247407
3.77,0.0496938213764
3.775,0.0578134042662
3.78,0.0617501717279
3.785,0.0617501717279
3.79,0.0578134042662
3.795,0.0373914230586
3.8,0.016969441851
3.805,-0.0196917051362
3.81,-0.056106804157
3.815,-0.100887534034
3.82,-0.157970662229
3.825,-0.222927325347
3.83,-0.300432434749
3.835,-0.373508680757
3.84,-0.463070140511
3.845,-0.556568367727
3.85,-0.646129827481
3.855,-0.739628054696
3.86,-0.82918951445
3.865,-0.914568158776
3.87,-0.98789045275
3.875,-1.04891034841
3.88,-1.09787389371
3.885,-1.13035222527
3.89,-1.14659139105
3.895,-1.15471097394
3.9,-1.13847180816
3.905,-1.10993024406
3.91,-1.07326909708
3.915,-1.01643201685
3.92,-0.947292538302
3.925,-0.865850661437
3.93,-0.780472017112
3.935,-0.68672774193
3.94,-0.597412330142
3.945,-0.499731287498
3.95,-0.410169827745
3.955,-0.332910766308
3.96,-0.259588472334
3.965,-0.194631809216
3.97,-0.137548681021
3.975,-0.0846483682544
3.98,-0.0440504538055
3.985,-0.0196917051362
3.99,0.00491309149947
3.995,0.0250890247407
4,0.0373914230586
4.005,0.0373914230586
4.01,0.0292718401688
4.015,0.021152257279
4.02,0.000730276071408
4.025,-0.027811288026
4.03,-0.056106804157
4.035,-0.105070349462
4.04,-0.157970662229
4.045,-0.210870974995
4.05,-0.283947221003
4.055,-0.361452330406
4.06,-0.446830974732
4.065,-0.532209619058
4.07,-0.629890661701
4.075,-0.723388888917
4.08,-0.804830765781
4.085,-0.890209410107
4.09,-0.963531704081
4.095,-1.02455159974
4.1,-1.06933232961
4.105,-1.10181066117
4.11,-1.12223264238
4.115,-1.12223264238
4.12,-1.11411305949
4.125,-1.08557149539
4.13,-1.04497358095
4.135,-0.99601003564
4.14,-0.926870557094
4.145,-0.85354826312
4.15,-0.772352434222
4.155,-0.67860815904
4.16,-0.589292747252
4.165,-0.50366805496
4.17,-0.418289410634
4.175,-0.33684753377
4.18,-0.263771287762
4.185,-0.202751392106
4.19,-0.145668263911
4.195,-0.0969507665723
4.2,-0.0602896195851
4.205,-0.027811288026
4.21,-0.00738930681837
4.215,0.00491309149947
4.22,0.016969441851
4.225,0.021152257279
4.23,0.0130326743893
4.235,0.000730276071408
4.24,-0.0236284725979
4.245,-0.0521700366953
4.25,-0.0888311836825
4.255,-0.133611913559
4.26,-0.18626617836
4.265,-0.243349306555
4.27,-0.308552017639
4.275,-0.389747846537
4.28,-0.471189723401
4.285,-0.560751183155
4.29,-0.654249410371
4.295,-0.743810870124
4.3,-0.833372329878
4.305,-0.918750974204
4.31,-0.99601003564
4.315,-1.0570299313
4.32,-1.1059934766
4.325,-1.14240857562
4.33,-1.16283055683
4.335,-1.16283055683
4.34,-1.15889378937
4.345,-1.13035222527
4.35,-1.09369107828
4.355,-1.04497358095
4.36,-0.971651286971
4.365,-0.894392225535
4.37,-0.809013581209
4.375,-0.711332538565
4.38,-0.613651495922
4.385,-0.51990722074
4.39,-0.426408993524
4.395,-0.33684753377
4.4,-0.259588472334
4.405,-0.190448993788
4.41,-0.129429098131
4.415,-0.0765287853646
4.42,-0.0317480554877
4.425,0.00491309149947
4.43,0.0292718401688
4.435,0.0455110059484
4.44,0.0578134042662
4.445,0.065932987156
4.45,0.0617501717279
4.455,0.0496938213764
4.46,0.0373914230586
4.465,0.016969441851
4.47,-0.0196917051362
4.475,-0.0602896195851
4.48,-0.105070349462
4.485,-0.16190742969
4.49,-0.227110140775
4.495,-0.300432434749
4.5,-0.381628263647
4.505,-0.467006907973
4.51,-0.556568367727
4.515,-0.650312642909
4.52,-0.743810870124
4.525,-0.833372329878
4.53,-0.914568158776
4.535,-0.983953685289
4.54,-1.04891034841
4.545,-1.09369107828
4.55,-1.13035222527
4.555,-1.15077420648
4.56,-1.15471097394
4.565,-1.14240857562
4.57,-1.11411305949
4.575,-1.06933232961
4.58,-1.01643201685
4.585,-0.943109722873
4.59,-0.870033476866
4.595,-0.780472017112
4.6,-0.68672774193
4.605,-0.589292747252
4.61,-0.499731287498
4.615,-0.410169827745
4.62,-0.32872795088
4.625,-0.255651704872
4.63,-0.190448993788
4.635,-0.133611913559
4.64,-0.0846483682544
4.645,-0.0479872212672
4.65,-0.0155088897081
4.655,0.00884985896118
4.66,0.0250890247407
4.665,0.0373914230586
4.67,0.0332086076305
4.675,0.0292718401688
4.68,0.021152257279
